XYDATA



INTER 1.0 1.0 0 0
TEMP 524.085
  9.97    756.00     27.50
 10.07    732.34     27.06
 10.17    708.51     26.62
 10.27    711.14     26.67
 10.37    752.00     27.42
 10.47    745.92     27.31
 10.57    713.17     26.71
 10.67    733.00     27.07
 10.77    659.00     25.67
 10.87    769.00     27.73
 10.97    735.52     27.12
 11.07    736.00     27.13
 11.17    755.00     27.48
 11.27    726.92     26.96
 11.37    653.50     25.56
 11.47    672.43     25.93
 11.57    697.00     26.40
 11.67    727.36     26.97
 11.77    702.97     26.51
 11.87    788.00     28.07
 11.97    765.00     27.66
 12.07    834.00     28.88
 12.17    828.00     28.77
 12.27    795.59     28.21
 12.37    791.00     28.12
 12.47    744.00     27.28
 12.57    714.85     26.74
 12.67    701.00     26.48
 12.77    753.00     27.44
 12.87    738.89     27.18
 12.97    663.00     25.75
 13.07    632.00     25.14
 13.17    653.00     25.55
 13.27    659.00     25.67
 13.37    660.86     25.71
 13.47    630.00     25.10
 13.57    683.00     26.13
 13.67    680.00     26.08
 13.77    684.62     26.17
 13.87    655.00     25.59
 13.97    730.66     27.03
 14.07    680.00     26.08
 14.17    641.20     25.32
 14.27    663.00     25.75
 14.37    622.00     24.94
 14.47    669.00     25.87
 14.57    645.00     25.40
 14.67    644.48     25.39
 14.77    629.00     25.08
 14.87    638.52     25.27
 14.97    668.00     25.85
 15.07    669.00     25.87
 15.17    618.15     24.86
 15.27    635.66     25.21
 15.37    629.00     25.08
 15.47    685.54     26.18
 15.57    660.00     25.69
 15.67    672.00     25.92
 15.77    701.03     26.48
 15.87    641.01     25.32
 15.97    647.00     25.44
 16.07    687.11     26.21
 16.17    679.00     26.06
 16.27    652.00     25.53
 16.37    684.00     26.15
 16.47    626.00     25.02
 16.57    637.79     25.25
 16.67    658.00     25.65
 16.77    694.39     26.35
 16.87    631.00     25.12
 16.97    598.00     24.45
 17.07    610.00     24.70
 17.17    656.72     25.63
 17.27    630.00     25.10
 17.37    636.00     25.22
 17.47    624.00     24.98
 17.57    654.00     25.57
 17.67    623.67     24.97
 17.77    634.00     25.18
 17.87    633.00     25.16
 17.97    647.46     25.45
 18.07    639.98     25.30
 18.17    656.00     25.61
 18.27    618.00     24.86
 18.37    630.00     25.10
 18.47    597.00     24.43
 18.57    592.00     24.33
 18.67    629.00     25.08
 18.77    648.52     25.47
 18.87    661.00     25.71
 18.97    662.00     25.73
 19.07    613.00     24.76
 19.17    632.00     25.14
 19.27    590.04     24.29
 19.37    633.00     25.16
 19.47    625.00     25.00
 19.57    643.01     25.36
 19.67    638.00     25.26
 19.77    589.41     24.28
 19.87    679.86     26.07
 19.97    612.00     24.74
 20.07    633.57     25.17
 20.17    598.00     24.45
 20.27    603.00     24.56
 20.37    661.00     25.71
 20.47    603.39     24.56
 20.57    626.00     25.02
 20.67    624.00     24.98
 20.77    593.00     24.35
 20.87    589.52     24.28
 20.97    648.00     25.46
 21.07    635.27     25.20
 21.17    594.00     24.37
 21.27    634.58     25.19
 21.37    587.26     24.23
 21.47    602.00     24.54
 21.57    592.00     24.33
 21.67    584.00     24.17
 21.77    629.00     25.08
 21.87    650.00     25.50
 21.97    621.50     24.93
 22.07    624.00     24.98
 22.17    623.55     24.97
 22.27    645.00     25.40
 22.37    575.00     23.98
 22.47    627.00     25.04
 22.57    613.38     24.77
 22.67    590.79     24.31
 22.77    665.93     25.81
 22.87    572.00     23.92
 22.97    607.70     24.65
 23.07    630.12     25.10
 23.17    619.00     24.88
 23.27    622.00     24.94
 23.37    591.00     24.31
 23.47    612.00     24.74
 23.57    640.00     25.30
 23.67    595.41     24.40
 23.77    584.99     24.19
 23.87    697.00     26.40
 23.97    648.98     25.48
 24.07    581.62     24.12
 24.17    660.00     25.69
 24.27    620.00     24.90
 24.37    633.00     25.16
 24.47    655.00     25.59
 24.57    641.00     25.32
 24.67    665.00     25.79
 24.77    673.00     25.94
 24.87    669.00     25.87
 24.97    717.00     26.78
 25.07    712.00     26.68
 25.17    695.00     26.36
 25.27    652.00     25.53
 25.37    662.00     25.73
 25.47    636.00     25.22
 25.57    666.00     25.81
 25.67    608.00     24.66
 25.77    605.17     24.60
 25.87    692.00     26.31
 25.97    684.19     26.16
 26.07    594.14     24.38
 26.17    680.57     26.09
 26.27    637.03     25.24
 26.37    602.00     24.54
 26.47    672.00     25.92
 26.57    617.00     24.84
 26.67    681.00     26.10
 26.77    688.00     26.23
 26.87    673.05     25.94
 26.97    637.13     25.24
 27.07    734.47     27.10
 27.17    710.62     26.66
 27.27    679.00     26.06
 27.37    752.00     27.42
 27.47    727.00     26.96
 27.57    780.00     27.93
 27.67    789.00     28.09
 27.77    901.00     30.02
 27.87   1048.00     32.37
 27.97   1373.33     37.06
 28.07   1876.00     43.31
 28.17   3306.75     57.50
 28.27   5178.00     71.96
 28.37   7098.00     84.25
 28.47   7954.00     89.19
 28.57   7064.01     84.05
 28.67   5475.00     73.99
 28.77   3845.92     62.02
 28.87   3360.39     57.97
 28.97   3706.00     60.88
 29.07   4292.00     65.51
 29.17   4545.51     67.42
 29.27   4113.00     64.13
 29.37   3087.00     55.56
 29.47   2213.00     47.04
 29.57   1501.00     38.74
 29.67   1152.71     33.95
 29.77   1012.00     31.81
 29.87    861.86     29.36
 29.97    806.00     28.39
 30.07    790.72     28.12
 30.17    750.29     27.39
 30.27    666.02     25.81
 30.37    692.29     26.31
 30.47    663.00     25.75
 30.57    754.00     27.46
 30.67    685.00     26.17
 30.77    737.07     27.15
 30.87    705.00     26.55
 30.97    748.00     27.35
 31.07    804.00     28.35
 31.17    796.15     28.22
 31.27    727.56     26.97
 31.37    824.00     28.71
 31.47    720.00     26.83
 31.57    692.12     26.31
 31.67    693.64     26.34
 31.77    707.00     26.59
 31.87    655.00     25.59
 31.97    616.03     24.82
 32.07    672.00     25.92
 32.17    667.00     25.83
 32.27    607.00     24.64
 32.37    618.59     24.87
 32.47    664.22     25.77
 32.57    615.00     24.80
 32.67    653.00     25.55
 32.77    621.00     24.92
 32.87    659.00     25.67
 32.97    565.67     23.78
 33.07    630.00     25.10
 33.17    624.00     24.98
 33.27    614.00     24.78
 33.37    662.00     25.73
 33.47    612.00     24.74
 33.57    604.61     24.59
 33.67    690.00     26.27
 33.77    719.00     26.81
 33.87    740.00     27.20
 33.97    902.38     30.04
 34.07    995.00     31.54
 34.17   1086.00     32.95
 34.27   1192.36     34.53
 34.37   1295.00     35.99
 34.47   1171.02     34.22
 34.57   1003.00     31.67
 34.67    876.00     29.60
 34.77    761.00     27.59
 34.87    764.48     27.65
 34.97    652.00     25.53
 35.07    698.00     26.42
 35.17    603.73     24.57
 35.27    674.00     25.96
 35.37    645.00     25.40
 35.47    606.07     24.62
 35.57    580.74     24.10
 35.67    620.00     24.90
 35.77    596.00     24.41
 35.87    582.00     24.12
 35.97    601.00     24.52
 36.07    558.01     23.62
 36.17    580.00     24.08
 36.27    605.00     24.60
 36.37    601.00     24.52
 36.47    560.76     23.68
 36.57    609.00     24.68
 36.67    632.00     25.14
 36.77    621.00     24.92
 36.87    608.10     24.66
 36.97    588.00     24.25
 37.07    598.00     24.45
 37.17    601.14     24.52
 37.27    599.00     24.47
 37.37    608.31     24.66
 37.47    582.00     24.12
 37.57    589.00     24.27
 37.67    628.00     25.06
 37.77    595.75     24.41
 37.87    678.35     26.05
 37.97    647.00     25.44
 38.07    738.00     27.17
 38.17    699.00     26.44
 38.27    768.19     27.72
 38.37    777.14     27.88
 38.47    748.00     27.35
 38.57    728.00     26.98
 38.67    649.00     25.48
 38.77    689.61     26.26
 38.87    587.53     24.24
 38.97    575.00     23.98
 39.07    585.00     24.19
 39.17    584.00     24.17
 39.27    588.00     24.25
 39.37    567.99     23.83
 39.47    621.55     24.93
 39.57    579.00     24.06
 39.67    547.89     23.41
 39.77    616.00     24.82
 39.87    627.00     25.04
 39.97    580.00     24.08
 40.07    585.00     24.19
 40.17    612.64     24.75
 40.27    627.46     25.05
 40.37    608.00     24.66
 40.47    539.83     23.23
 40.57    596.54     24.42
 40.67    604.01     24.58
 40.77    630.00     25.10
 40.87    612.00     24.74
 40.97    608.00     24.66
 41.07    612.80     24.75
 41.17    604.10     24.58
 41.27    626.59     25.03
 41.37    559.00     23.64
 41.47    581.00     24.10
 41.57    536.00     23.15
 41.67    589.00     24.27
 41.77    589.00     24.27
 41.87    599.00     24.47
 41.97    633.76     25.17
 42.07    598.00     24.45
 42.17    580.00     24.08
 42.27    566.00     23.79
 42.37    609.00     24.68
 42.47    592.91     24.35
 42.57    640.00     25.30
 42.67    622.85     24.96
 42.77    645.00     25.40
 42.87    702.39     26.50
 42.97    731.50     27.05
 43.07    745.47     27.30
 43.17    698.00     26.42
 43.27    681.69     26.11
 43.37    622.00     24.94
 43.47    634.00     25.18
 43.57    625.00     25.00
 43.67    641.17     25.32
 43.77    637.00     25.24
 43.87    567.88     23.83
 43.97    564.38     23.76
 44.07    608.00     24.66
 44.17    626.00     25.02
 44.27    640.00     25.30
 44.37    615.93     24.82
 44.47    651.00     25.51
 44.57    620.86     24.92
 44.67    596.00     24.41
 44.77    590.00     24.29
 44.87    614.00     24.78
 44.97    560.00     23.66
 45.07    618.00     24.86
 45.17    569.96     23.87
 45.27    597.84     24.45
 45.37    553.13     23.52
 45.47    540.00     23.24
 45.57    582.00     24.12
 45.67    595.81     24.41
 45.77    640.78     25.31
 45.87    587.00     24.23
 45.97    614.00     24.78
 46.07    619.00     24.88
 46.17    609.81     24.69
 46.27    584.00     24.17
 46.37    620.00     24.90
 46.47    633.00     25.16
 46.57    609.57     24.69
 46.67    588.00     24.25
 46.77    555.25     23.56
 46.87    604.00     24.58
 46.97    620.00     24.90
 47.07    587.90     24.25
 47.17    554.70     23.55
 47.27    613.00     24.76
 47.37    643.00     25.36
 47.47    564.00     23.75
 47.57    572.75     23.93
 47.67    607.00     24.64
 47.77    604.00     24.58
 47.87    598.17     24.46
 47.97    641.00     25.32
 48.07    728.00     26.98
 48.17    693.00     26.32
 48.27    694.34     26.35
 48.37    691.00     26.29
 48.47    678.00     26.04
 48.57    657.00     25.63
 48.67    658.00     25.65
 48.77    643.00     25.36
 48.87    657.00     25.63
 48.97    586.00     24.21
 49.07    604.00     24.58
 49.17    634.56     25.19
 49.27    692.78     26.32
 49.37    649.00     25.48
 49.47    641.00     25.32
 49.57    655.00     25.59
 49.67    684.71     26.17
 49.77    754.64     27.47
 49.87    813.00     28.51
 49.97    951.00     30.84
 50.07   1172.00     34.23
 50.17   1598.53     39.98
 50.27   2086.74     45.68
 50.37   2550.00     50.50
 50.47   2920.00     54.04
 50.57   3180.00     56.39
 50.67   3073.00     55.43
 50.77   2678.97     51.76
 50.87   2305.00     48.01
 50.97   1744.00     41.76
 51.07   1390.00     37.28
 51.17   1088.00     32.98
 51.27    889.60     29.83
 51.37    844.00     29.05
 51.47    815.00     28.55
 51.57    750.00     27.39
 51.67    724.04     26.91
 51.77    782.00     27.96
 51.87    660.79     25.71
 51.97    725.00     26.93
 52.07    651.00     25.51
 52.17    676.38     26.01
 52.27    660.80     25.71
 52.37    697.00     26.40
 52.47    667.00     25.83
 52.57    680.48     26.09
 52.67    644.00     25.38
 52.77    717.00     26.78
 52.87    617.00     24.84
 52.97    712.00     26.68
 53.07    679.00     26.06
 53.17    772.00     27.78
 53.27    707.54     26.60
 53.37    740.00     27.20
 53.47    887.00     29.78
 53.57    931.00     30.51
 53.67   1034.00     32.16
 53.77   1172.00     34.23
 53.87   1293.00     35.96
 53.97   1374.59     37.08
 54.07   1288.92     35.90
 54.17   1193.71     34.55
 54.27   1115.00     33.39
 54.37    980.51     31.31
 54.47    862.70     29.37
 54.57    771.00     27.77
 54.67    708.00     26.61
 54.77    767.23     27.70
 54.87    709.00     26.63
 54.97    692.56     26.32
 55.07    721.43     26.86
 55.17    645.00     25.40
 55.27    648.00     25.46
 55.37    647.00     25.44
 55.47    658.00     25.65
 55.57    661.49     25.72
 55.67    731.00     27.04
 55.77    664.74     25.78
 55.87    691.00     26.29
 55.97    701.00     26.48
 56.07    695.98     26.38
 56.17    688.00     26.23
 56.27    704.00     26.53
 56.37    710.00     26.65
 56.47    815.00     28.55
 56.57    917.00     30.28
 56.67   1036.00     32.19
 56.77   1174.00     34.26
 56.87   1546.00     39.32
 56.97   1863.52     43.17
 57.07   2180.00     46.69
 57.17   2547.00     50.47
 57.27   2754.26     52.48
 57.37   2770.00     52.63
 57.47   2550.00     50.50
 57.57   2247.05     47.40
 57.67   1965.93     44.34
 57.77   1703.00     41.27
 57.87   1389.24     37.27
 57.97   1069.00     32.70
 58.07    985.00     31.38
 58.17    908.00     30.13
 58.27    805.92     28.39
 58.37    816.00     28.57
 58.47    848.74     29.13
 58.57    858.38     29.30
 58.67    868.33     29.47
 58.77    894.00     29.90
 58.87    916.00     30.27
 58.97    982.00     31.34
 59.07   1208.00     34.76
 59.17   1258.00     35.47
 59.27   1282.20     35.81
 59.37   1400.67     37.43
 59.47   1382.61     37.18
 59.57   1407.00     37.51
 59.67   1242.00     35.24
 59.77   1219.71     34.92
 59.87   1296.00     36.00
 59.97   1148.58     33.89
 60.07   1269.00     35.62
 60.17   1236.00     35.16
 60.27   1336.00     36.55
 60.37   1439.29     37.94
 60.47   1500.00     38.73
 60.57   1646.00     40.57
 60.67   1551.09     39.38
 60.77   1604.00     40.05
 60.87   1491.00     38.61
 60.97   1410.26     37.55
 61.07   1229.28     35.06
 61.17   1170.00     34.21
 61.27   1043.43     32.30
 61.37    924.00     30.40
 61.47    840.00     28.98
 61.57    868.42     29.47
 61.67    806.00     28.39
 61.77    792.00     28.14
 61.87    848.97     29.14
 61.97    979.38     31.30
 62.07   1039.55     32.24
 62.17   1170.00     34.21
 62.27   1278.00     35.75
 62.37   1463.00     38.25
 62.47   1572.79     39.66
 62.57   1711.00     41.36
 62.67   1775.00     42.13
 62.77   1704.57     41.29
 62.87   1675.00     40.93
 62.97   1447.00     38.04
 63.07   1287.00     35.87
 63.17   1165.00     34.13
 63.27   1002.00     31.65
 63.37    942.87     30.71
 63.47    825.00     28.72
 63.57    853.00     29.21
 63.67    765.71     27.67
 63.77    736.00     27.13
 63.87    687.31     26.22
 63.97    710.00     26.65
 64.07    782.00     27.96
 64.17    698.14     26.42
 64.27    752.00     27.42
 64.37    776.93     27.87
 64.47    901.00     30.02
 64.57    956.08     30.92
 64.67   1049.46     32.40
 64.77   1041.19     32.27
 64.87   1288.78     35.90
 64.97   1414.45     37.61
 65.07   1497.00     38.69
 65.17   1499.14     38.72
 65.27   1614.40     40.18
 65.37   1527.52     39.08
 65.47   1422.00     37.71
 65.57   1401.00     37.43
 65.67   1206.00     34.73
 65.77   1129.44     33.61
 65.87    978.94     31.29
 65.97    996.11     31.56
 66.07    902.29     30.04
 66.17    773.58     27.81
 66.27    743.00     27.26
 66.37    764.00     27.64
 66.47    655.00     25.59
 66.57    726.38     26.95
 66.67    688.31     26.24
 66.77    685.00     26.17
 66.87    667.10     25.83
 66.97    669.00     25.87
 67.07    692.98     26.32
 67.17    716.00     26.76
 67.27    727.00     26.96
 67.37    730.00     27.02
 67.47    791.44     28.13
 67.57    827.91     28.77
 67.67    826.00     28.74
 67.77    929.00     30.48
 67.87    985.21     31.39
 67.97   1264.00     35.55
 68.07   1341.00     36.62
 68.17   1552.00     39.40
 68.27   1817.48     42.63
 68.37   2174.86     46.64
 68.47   2417.70     49.17
 68.57   2505.84     50.06
 68.67   2494.00     49.94
 68.77   2497.09     49.97
 68.87   2338.67     48.36
 68.97   2230.00     47.22
 69.07   1942.00     44.07
 69.17   1690.00     41.11
 69.27   1466.00     38.29
 69.37   1256.20     35.44
 69.47   1071.00     32.73
 69.57   1011.00     31.80
 69.67    942.00     30.69
 69.77    787.00     28.05
 69.87    789.00     28.09
 69.97    676.20     26.00
 70.07    733.00     27.07
 70.17    755.00     27.48
 70.27    698.85     26.44
 70.37    734.83     27.11
 70.47    753.00     27.44
 70.57    704.00     26.53
 70.67    625.88     25.02
 70.77    728.46     26.99
 70.87    699.79     26.45
 70.97    696.56     26.39
 71.07    702.00     26.50
 71.17    698.00     26.42
 71.27    755.97     27.49
 71.37    787.00     28.05
 71.47    770.00     27.75
 71.57    792.00     28.14
 71.67    776.25     27.86
 71.77    887.00     29.78
 71.87    940.39     30.67
 71.97   1104.00     33.23
 72.07   1308.00     36.17
 72.17   1386.03     37.23
 72.27   1548.00     39.34
 72.37   1804.00     42.47
 72.47   1944.00     44.09
 72.57   2071.98     45.52
 72.67   2004.00     44.77
 72.77   1985.00     44.55
 72.87   1861.08     43.14
 72.97   1688.00     41.09
 73.07   1563.00     39.53
 73.17   1379.00     37.13
 73.27   1179.00     34.34
 73.37   1148.79     33.89
 73.47    941.00     30.68
 73.57    839.55     28.97
 73.67    840.08     28.98
 73.77    804.00     28.35
 73.87    765.17     27.66
 73.97    649.08     25.48
 74.07    706.00     26.57
 74.17    687.00     26.21
 74.27    666.00     25.81
 74.37    721.16     26.85
 74.47    637.73     25.25
 74.57    670.00     25.88
 74.67    660.11     25.69
 74.77    649.00     25.48
 74.87    638.00     25.26
 74.97    702.04     26.50
 75.07    655.41     25.60
 75.17    669.00     25.87
 75.27    684.00     26.15
 75.37    713.00     26.70
 75.47    705.00     26.55
 75.57    640.14     25.30
 75.67    656.00     25.61
 75.77    720.00     26.83
 75.87    678.00     26.04
 75.97    661.00     25.71
 76.07    618.27     24.86
 76.17    721.00     26.85
 76.27    708.00     26.61
 76.37    699.00     26.44
 76.47    794.32     28.18
 76.57    783.00     27.98
 76.67    839.00     28.97
 76.77    857.00     29.27
 76.87    895.69     29.93
 76.97    997.00     31.58
 77.07    995.15     31.55
 77.17   1003.00     31.67
 77.27   1019.01     31.92
 77.37   1049.00     32.39
 77.47    947.00     30.77
 77.57    924.92     30.41
 77.67    945.38     30.75
 77.77    889.00     29.82
 77.87    806.76     28.40
 77.97    690.00     26.27
 78.07    729.00     27.00
 78.17    712.00     26.68
 78.27    614.00     24.78
 78.37    614.20     24.78
 78.47    667.22     25.83
 78.57    645.00     25.40
 78.67    614.00     24.78
 78.77    670.17     25.89
 78.87    642.00     25.34
 78.97    585.00     24.19
 79.07    615.00     24.80
 79.17    639.00     25.28
 79.27    606.00     24.62
 79.37    619.00     24.88
 79.47    636.00     25.22
 79.57    593.73     24.37
 79.67    610.95     24.72
 79.77    584.00     24.17
 79.87    622.00     24.94
 79.97    629.00     25.08
 80.07    601.18     24.52
 80.17    631.00     25.12
 80.27    621.00     24.92
 80.37    669.00     25.87
 80.47    665.00     25.79
 80.57    729.00     27.00
 80.67    740.00     27.20
 80.77    816.00     28.57
 80.87    827.00     28.76
 80.97    895.68     29.93
 81.07    925.18     30.42
 81.17   1037.00     32.20
 81.27   1142.00     33.79
 81.37   1187.00     34.45
 81.47   1305.00     36.12
 81.57   1387.00     37.24
 81.67   1286.24     35.86
 81.77   1306.32     36.14
 81.87   1438.00     37.92
 81.97   1284.66     35.84
 82.07   1301.08     36.07
 82.17   1205.65     34.72
 82.27   1301.00     36.07
 82.37   1215.00     34.86
 82.47   1078.94     32.85
 82.57    998.00     31.59
 82.67    916.38     30.27
 82.77    910.00     30.17
 82.87    849.00     29.14
 82.97    803.28     28.34
 83.07    761.00     27.59
 83.17    790.00     28.11
 83.27    746.49     27.32
 83.37    719.00     26.81
 83.47    704.29     26.54
 83.57    733.00     27.07
 83.67    631.00     25.12
 83.77    648.00     25.46
 83.87    626.95     25.04
 83.97    625.00     25.00
 84.07    611.00     24.72
 84.17    620.61     24.91
 84.27    607.00     24.64
 84.37    629.00     25.08
 84.47    637.02     25.24
 84.57    639.61     25.29
 84.67    617.00     24.84
 84.77    750.00     27.39
 84.87    624.00     24.98
 84.97    705.00     26.55
 85.07    669.00     25.87
 85.17    647.07     25.44
 85.27    611.00     24.72
 85.37    610.00     24.70
 85.47    617.00     24.84
 85.57    604.00     24.58
 85.67    611.46     24.73
 85.77    614.24     24.78
 85.87    612.00     24.74
 85.97    579.43     24.07
 86.07    604.00     24.58
 86.17    586.00     24.21
 86.27    629.00     25.08
 86.37    662.68     25.74
 86.47    599.00     24.47
 86.57    611.00     24.72
 86.67    604.00     24.58
 86.77    679.02     26.06
 86.87    670.00     25.88
 86.97    681.00     26.10
 87.07    636.00     25.22
 87.17    701.00     26.48
 87.27    733.00     27.07
 87.37    698.47     26.43
 87.47    726.63     26.96
 87.57    769.00     27.73
 87.67    745.00     27.29
 87.77    691.00     26.29
 87.87    806.00     28.39
 87.97    690.00     26.27
 88.07    747.00     27.33
 88.17    740.00     27.20
 88.27    782.00     27.96
 88.37    774.00     27.82
 88.47    761.11     27.59
 88.57    706.00     26.57
 88.67    697.00     26.40
 88.77    708.00     26.61
 88.87    673.00     25.94
 88.97    667.00     25.83
 89.07    687.00     26.21
 89.17    605.98     24.62
 89.27    683.00     26.13
 89.37    640.00     25.30
 89.47    641.00     25.32
 89.57    707.22     26.59
 89.67    644.72     25.39
 89.77    676.00     26.00
 89.87    660.90     25.71
 89.97    677.00     26.02
 90.07    714.00     26.72
 90.17    709.00     26.63
 90.27    702.00     26.50
 90.37    640.64     25.31
 90.47    653.86     25.57
 90.57    695.83     26.38
 90.67    655.00     25.59
 90.77    636.00     25.22
 90.87    659.00     25.67
 90.97    649.00     25.48
 91.07    586.00     24.21
 91.17    594.00     24.37
 91.27    656.00     25.61
 91.37    647.07     25.44
 91.47    630.64     25.11
 91.57    625.54     25.01
 91.67    611.00     24.72
 91.77    573.97     23.96
 91.87    615.00     24.80
 91.97    595.00     24.39
 92.07    600.23     24.50
 92.17    667.00     25.83
 92.27    617.14     24.84
 92.37    614.64     24.79
 92.47    602.00     24.54
 92.57    592.00     24.33
 92.67    569.21     23.86
 92.77    613.00     24.76
 92.87    639.00     25.28
 92.97    648.49     25.47
 93.07    685.90     26.19
 93.17    631.00     25.12
 93.27    723.39     26.90
 93.37    644.00     25.38
 93.47    720.00     26.83
 93.57    748.70     27.36
 93.67    778.00     27.89
 93.77    789.12     28.09
 93.87    756.00     27.50
 93.97    773.00     27.80
 94.07    837.48     28.94
 94.17    875.91     29.60
 94.27    813.72     28.53
 94.37    826.00     28.74
 94.47    902.00     30.03
 94.57    815.00     28.55
 94.67    880.45     29.67
 94.77    881.96     29.70
 94.87    997.00     31.58
 94.97    988.62     31.44
 95.07    998.00     31.59
 95.17    993.70     31.52
 95.27   1062.45     32.60
 95.37   1043.08     32.30
 95.47   1047.53     32.37
 95.57   1063.00     32.60
 95.67   1001.00     31.64
 95.77   1015.00     31.86
 95.87    970.61     31.15
 95.97    989.00     31.45
 96.07   1013.00     31.83
 96.17    948.00     30.79
 96.27    933.00     30.55
 96.37    869.00     29.48
 96.47    808.66     28.44
 96.57    865.00     29.41
 96.67    856.00     29.26
 96.77    775.19     27.84
 96.87    802.81     28.33
 96.97    856.00     29.26
 97.07    797.52     28.24
 97.17    867.00     29.44
 97.27    900.80     30.01
 97.37    930.17     30.50
 97.47   1030.37     32.10
 97.57   1041.05     32.27
 97.67   1188.00     34.47
 97.77   1218.00     34.90
 97.87   1231.61     35.09
 97.97   1337.00     36.57
 98.07   1433.00     37.85
 98.17   1508.00     38.83
 98.27   1502.00     38.76
 98.37   1553.36     39.41
 98.47   1515.07     38.92
 98.57   1606.00     40.07
 98.67   1632.58     40.41
 98.77   1610.36     40.13
 98.87   1507.00     38.82
 98.97   1430.00     37.82
 99.07   1334.00     36.52
 99.17   1314.00     36.25
 99.27   1237.00     35.17
 99.37   1163.59     34.11
 99.47   1155.00     33.99
 99.57   1091.00     33.03
 99.67   1069.00     32.70
 99.77   1011.00     31.80
 99.87   1014.00     31.84
 99.97   1017.89     31.90
100.07   1029.00     32.08
100.17   1054.00     32.47
100.27   1099.24     33.15
100.37   1089.12     33.00
100.47   1265.29     35.57
100.57   1317.00     36.29
100.67   1361.00     36.89
100.77   1482.00     38.50
100.87   1498.20     38.71
100.97   1593.39     39.92
101.07   1665.06     40.81
101.17   1812.00     42.57
101.27   1911.27     43.72
101.37   1959.00     44.26
101.47   1969.94     44.38
101.57   2016.00     44.90
101.67   2049.00     45.27
101.77   2216.00     47.07
101.87   2149.00     46.36
101.97   2176.00     46.65
102.07   2083.00     45.64
102.17   2035.00     45.11
102.27   1916.38     43.78
102.37   1880.00     43.36
102.47   1898.68     43.57
102.57   1731.00     41.61
102.67   1655.00     40.68
102.77   1635.00     40.44
102.87   1548.00     39.34
102.97   1438.29     37.92
103.07   1443.00     37.99
103.17   1401.61     37.44
103.27   1371.00     37.03
103.37   1263.00     35.54
103.47   1306.90     36.15
103.57   1245.00     35.28
103.67   1242.71     35.25
103.77   1272.20     35.67
103.87   1198.70     34.62
103.97   1141.00     33.78
104.07   1117.00     33.42
104.17   1042.00     32.28
104.27   1055.00     32.48
104.37    937.99     30.63
104.47    874.56     29.57
104.57    922.00     30.36
104.67    863.00     29.38
104.77    842.00     29.02
104.87    759.58     27.56
104.97    766.00     27.68
105.07    730.19     27.02
105.17    713.00     26.70
105.27    717.57     26.79
105.37    661.00     25.71
105.47    638.00     25.26
105.57    648.08     25.46
105.67    649.00     25.48
105.77    587.08     24.23
105.87    627.00     25.04
105.97    608.00     24.66
106.07    646.00     25.42
106.17    612.00     24.74
106.27    607.00     24.64
106.37    575.00     23.98
106.47    631.00     25.12
106.57    645.00     25.40
106.67    664.00     25.77
106.77    603.00     24.56
106.87    656.00     25.61
106.97    667.65     25.84
107.07    670.65     25.90
107.17    688.00     26.23
107.27    691.00     26.29
107.37    724.00     26.91
107.47    683.00     26.13
107.57    687.00     26.21
107.67    691.55     26.30
107.77    753.25     27.45
107.87    795.00     28.20
107.97    745.00     27.29
108.07    803.19     28.34
108.17    753.00     27.44
108.27    719.00     26.81
108.37    723.00     26.89
108.47    804.00     28.35
108.57    781.00     27.95
108.67    744.24     27.28
108.77    750.59     27.40
108.87    843.62     29.05
108.97    734.00     27.09
109.07    770.00     27.75
109.17    721.00     26.85
109.27    818.92     28.62
109.37    793.00     28.16
109.47    754.00     27.46
109.57    766.00     27.68
109.67    723.00     26.89
109.77    737.28     27.15
109.87    749.00     27.37
109.97    735.00     27.11
110.07    803.00     28.34
110.17    746.00     27.31
110.27    838.00     28.95
110.37    748.66     27.36
110.47    728.00     26.98
110.57    739.00     27.18
110.67    780.00     27.93
110.77    700.00     26.46
110.87    684.00     26.15
110.97    662.00     25.73
111.07    699.66     26.45
111.17    694.00     26.34
111.27    661.00     25.71
111.37    706.00     26.57
111.47    670.00     25.88
111.57    656.00     25.61
111.67    623.00     24.96
111.77    677.00     26.02
111.87    610.00     24.70
111.97    653.00     25.55
112.07    620.00     24.90
112.17    609.99     24.70
112.27    664.73     25.78
112.37    624.00     24.98
112.47    638.34     25.27
112.57    630.18     25.10
112.67    617.00     24.84
112.77    617.00     24.84
112.87    586.32     24.21
112.97    597.00     24.43
113.07    644.00     25.38
113.17    623.68     24.97
113.27    653.00     25.55
113.37    632.34     25.15
113.47    640.59     25.31
113.57    613.00     24.76
113.67    679.40     26.07
113.77    592.46     24.34
113.87    663.00     25.75
113.97    667.00     25.83
114.07    693.02     26.33
114.17    695.00     26.36
114.27    644.00     25.38
114.37    659.00     25.67
114.47    735.00     27.11
114.57    672.00     25.92
114.67    752.00     27.42
114.77    716.92     26.78
114.87    744.00     27.28
114.97    782.22     27.97
115.07    781.00     27.95
115.17    892.00     29.87
115.27    948.00     30.79
115.37   1000.90     31.64
115.47   1178.80     34.33
115.57   1227.38     35.03
115.67   1347.00     36.70
115.77   1474.00     38.39
115.87   1717.48     41.44
115.97   1851.00     43.02
116.07   2086.25     45.68
116.17   2306.87     48.03
116.27   2536.00     50.36
116.37   2806.00     52.97
116.47   3142.78     56.06
116.57   3405.89     58.36
116.67   3825.00     61.85
116.77   4114.69     64.15
116.87   4710.46     68.63
116.97   4961.22     70.44
117.07   5565.26     74.60
117.17   5838.47     76.41
117.27   6140.97     78.36
117.37   6540.00     80.87
117.47   6874.00     82.91
117.57   6991.06     83.61
117.67   7422.14     86.15
117.77   7447.00     86.30
117.87   7414.00     86.10
117.97   7545.00     86.86
118.07   7529.00     86.77
118.17   7463.00     86.39
118.27   7225.00     85.00
118.37   7072.35     84.10
118.47   6673.00     81.69
118.57   6136.00     78.33
118.67   5773.00     75.98
118.77   5552.38     74.51
118.87   5234.18     72.35
118.97   4810.00     69.35
119.07   4549.00     67.45
119.17   4207.00     64.86
119.27   3648.66     60.40
119.37   3424.24     58.52
119.47   3185.00     56.44
119.57   2866.00     53.54
119.67   2581.00     50.80
119.77   2390.00     48.89
119.87   1975.50     44.45
119.97   1867.50     43.21
120.07   1751.90     41.86
120.17   1575.44     39.69
120.27   1491.00     38.61
120.37   1353.00     36.78
120.47   1262.12     35.53
120.57   1185.00     34.42
120.67   1058.57     32.54
120.77   1048.00     32.37
120.87    894.67     29.91
120.97    950.61     30.83
121.07    885.00     29.75
121.17    871.00     29.51
121.27    841.24     29.00
121.37    811.95     28.49
121.47    775.00     27.84
121.57    740.00     27.20
121.67    745.00     27.29
121.77    685.00     26.17
121.87    712.56     26.69
121.97    736.00     27.13
122.07    718.70     26.81
122.17    686.00     26.19
122.27    642.00     25.34
122.37    690.82     26.28
122.47    719.00     26.81
122.57    659.00     25.67
122.67    661.41     25.72
122.77    748.14     27.35
122.87    685.00     26.17
122.97    650.00     25.50
123.07    733.03     27.07
123.17    710.48     26.65
123.27    685.00     26.17
123.37    705.00     26.55
123.47    749.00     27.37
123.57    775.00     27.84
123.67    750.00     27.39
123.77    770.00     27.75
123.87    776.00     27.86
123.97    741.57     27.23
124.07    741.24     27.23
124.17    784.00     28.00
124.27    775.00     27.84
124.37    793.00     28.16
124.47    823.56     28.70
124.57    773.04     27.80
124.67    775.00     27.84
124.77    802.00     28.32
124.87    784.80     28.01
124.97    756.37     27.50
