XYDATA



INTER 1.0 1.0 0 0
TEMP 496.73
  9.97    776.00     27.86
 10.07    752.23     27.43
 10.17    721.37     26.86
 10.27    726.00     26.94
 10.37    748.00     27.35
 10.47    728.00     26.98
 10.57    739.11     27.19
 10.67    741.00     27.22
 10.77    768.00     27.71
 10.87    754.00     27.46
 10.97    752.00     27.42
 11.07    711.00     26.66
 11.17    701.30     26.48
 11.27    690.00     26.27
 11.37    739.13     27.19
 11.47    757.00     27.51
 11.57    749.00     27.37
 11.67    749.50     27.38
 11.77    811.00     28.48
 11.87    735.42     27.12
 11.97    791.00     28.12
 12.07    765.95     27.68
 12.17    832.00     28.84
 12.27    868.00     29.46
 12.37    825.51     28.73
 12.47    820.56     28.65
 12.57    757.00     27.51
 12.67    750.00     27.39
 12.77    727.00     26.96
 12.87    698.61     26.43
 12.97    681.00     26.10
 13.07    728.00     26.98
 13.17    748.00     27.35
 13.27    694.61     26.36
 13.37    742.59     27.25
 13.47    656.70     25.63
 13.57    681.00     26.10
 13.67    662.00     25.73
 13.77    653.00     25.55
 13.87    679.00     26.06
 13.97    755.00     27.48
 14.07    665.47     25.80
 14.17    670.46     25.89
 14.27    727.84     26.98
 14.37    633.00     25.16
 14.47    729.37     27.01
 14.57    683.00     26.13
 14.67    682.25     26.12
 14.77    683.00     26.13
 14.87    621.68     24.93
 14.97    602.00     24.54
 15.07    621.00     24.92
 15.17    671.00     25.90
 15.27    721.74     26.87
 15.37    637.00     25.24
 15.47    667.00     25.83
 15.57    672.00     25.92
 15.67    680.72     26.09
 15.77    714.00     26.72
 15.87    662.64     25.74
 15.97    640.00     25.30
 16.07    716.05     26.76
 16.17    621.01     24.92
 16.27    679.00     26.06
 16.37    653.00     25.55
 16.47    646.00     25.42
 16.57    683.00     26.13
 16.67    608.00     24.66
 16.77    612.45     24.75
 16.87    705.00     26.55
 16.97    642.80     25.35
 17.07    706.86     26.59
 17.17    639.00     25.28
 17.27    659.00     25.67
 17.37    671.00     25.90
 17.47    639.00     25.28
 17.57    627.15     25.04
 17.67    618.11     24.86
 17.77    635.00     25.20
 17.87    610.33     24.70
 17.97    671.52     25.91
 18.07    706.56     26.58
 18.17    689.60     26.26
 18.27    597.00     24.43
 18.37    675.00     25.98
 18.47    634.00     25.18
 18.57    612.00     24.74
 18.67    607.27     24.64
 18.77    603.00     24.56
 18.87    612.04     24.74
 18.97    670.00     25.88
 19.07    630.00     25.10
 19.17    629.00     25.08
 19.27    621.00     24.92
 19.37    643.00     25.36
 19.47    644.00     25.38
 19.57    644.63     25.39
 19.67    687.31     26.22
 19.77    607.10     24.64
 19.87    598.35     24.46
 19.97    613.00     24.76
 20.07    625.00     25.00
 20.17    612.65     24.75
 20.27    626.00     25.02
 20.37    624.00     24.98
 20.47    616.00     24.82
 20.57    583.02     24.15
 20.67    592.55     24.34
 20.77    664.00     25.77
 20.87    620.00     24.90
 20.97    609.00     24.68
 21.07    682.90     26.13
 21.17    578.41     24.05
 21.27    671.00     25.90
 21.37    649.70     25.49
 21.47    605.00     24.60
 21.57    594.00     24.37
 21.67    597.00     24.43
 21.77    634.00     25.18
 21.87    612.00     24.74
 21.97    636.00     25.22
 22.07    581.63     24.12
 22.17    659.00     25.67
 22.27    622.00     24.94
 22.37    677.50     26.03
 22.47    637.00     25.24
 22.57    594.00     24.37
 22.67    611.00     24.72
 22.77    604.00     24.58
 22.87    625.00     25.00
 22.97    657.00     25.63
 23.07    609.00     24.68
 23.17    585.00     24.19
 23.27    650.00     25.50
 23.37    607.00     24.64
 23.47    580.51     24.09
 23.57    661.00     25.71
 23.67    591.33     24.32
 23.77    662.72     25.74
 23.87    663.69     25.76
 23.97    611.00     24.72
 24.07    627.59     25.05
 24.17    589.00     24.27
 24.27    627.21     25.04
 24.37    627.00     25.04
 24.47    629.37     25.09
 24.57    621.00     24.92
 24.67    711.32     26.67
 24.77    659.00     25.67
 24.87    648.58     25.47
 24.97    721.00     26.85
 25.07    703.00     26.51
 25.17    722.00     26.87
 25.27    708.00     26.61
 25.37    722.00     26.87
 25.47    644.00     25.38
 25.57    696.03     26.38
 25.67    680.00     26.08
 25.77    702.00     26.50
 25.87    621.00     24.92
 25.97    652.00     25.53
 26.07    697.44     26.41
 26.17    681.00     26.10
 26.27    605.00     24.60
 26.37    680.87     26.09
 26.47    689.98     26.27
 26.57    634.04     25.18
 26.67    667.00     25.83
 26.77    659.00     25.67
 26.87    718.68     26.81
 26.97    654.00     25.57
 27.07    690.00     26.27
 27.17    701.00     26.48
 27.27    684.00     26.15
 27.37    700.45     26.47
 27.47    705.00     26.55
 27.57    851.11     29.17
 27.67    837.00     28.93
 27.77    862.95     29.38
 27.87   1075.00     32.79
 27.97   1326.00     36.41
 28.07   2116.62     46.01
 28.17   3324.00     57.65
 28.27   5398.00     73.47
 28.37   7629.85     87.35
 28.47   8691.31     93.23
 28.57   7941.28     89.11
 28.67   6116.00     78.20
 28.77   4370.00     66.11
 28.87   3569.16     59.74
 28.97   3815.00     61.77
 29.07   4448.00     66.69
 29.17   4652.45     68.21
 29.27   4378.00     66.17
 29.37   3492.22     59.09
 29.47   2371.00     48.69
 29.57   1674.31     40.92
 29.67   1287.00     35.87
 29.77    946.04     30.76
 29.87    931.00     30.51
 29.97    857.00     29.27
 30.07    789.00     28.09
 30.17    775.00     27.84
 30.27    776.00     27.86
 30.37    705.00     26.55
 30.47    726.00     26.94
 30.57    742.00     27.24
 30.67    647.55     25.45
 30.77    717.98     26.80
 30.87    720.39     26.84
 30.97    767.78     27.71
 31.07    730.07     27.02
 31.17    819.00     28.62
 31.27    779.00     27.91
 31.37    757.00     27.51
 31.47    664.37     25.78
 31.57    741.00     27.22
 31.67    610.91     24.72
 31.77    674.00     25.96
 31.87    605.68     24.61
 31.97    644.00     25.38
 32.07    623.42     24.97
 32.17    639.00     25.28
 32.27    637.00     25.24
 32.37    667.00     25.83
 32.47    641.00     25.32
 32.57    615.00     24.80
 32.67    572.58     23.93
 32.77    614.00     24.78
 32.87    649.00     25.48
 32.97    616.00     24.82
 33.07    677.15     26.02
 33.17    598.89     24.47
 33.27    594.31     24.38
 33.37    645.00     25.40
 33.47    708.00     26.61
 33.57    683.00     26.13
 33.67    659.00     25.67
 33.77    721.00     26.85
 33.87    757.74     27.53
 33.97    824.00     28.71
 34.07    923.00     30.38
 34.17   1117.03     33.42
 34.27   1220.00     34.93
 34.37   1282.00     35.81
 34.47   1242.00     35.24
 34.57   1022.89     31.98
 34.67    950.48     30.83
 34.77    793.00     28.16
 34.87    716.00     26.76
 34.97    729.00     27.00
 35.07    711.00     26.66
 35.17    673.76     25.96
 35.27    660.00     25.69
 35.37    640.00     25.30
 35.47    637.00     25.24
 35.57    641.46     25.33
 35.67    607.00     24.64
 35.77    605.00     24.60
 35.87    638.00     25.26
 35.97    622.13     24.94
 36.07    627.00     25.04
 36.17    600.00     24.49
 36.27    609.00     24.68
 36.37    620.00     24.90
 36.47    635.00     25.20
 36.57    613.00     24.76
 36.67    635.00     25.20
 36.77    594.00     24.37
 36.87    620.00     24.90
 36.97    560.97     23.68
 37.07    638.00     25.26
 37.17    608.00     24.66
 37.27    595.26     24.40
 37.37    604.00     24.58
 37.47    593.00     24.35
 37.57    639.00     25.28
 37.67    592.00     24.33
 37.77    691.00     26.29
 37.87    589.00     24.27
 37.97    656.00     25.61
 38.07    689.54     26.26
 38.17    733.00     27.07
 38.27    747.00     27.33
 38.37    733.00     27.07
 38.47    788.64     28.08
 38.57    712.00     26.68
 38.67    740.54     27.21
 38.77    646.00     25.42
 38.87    618.68     24.87
 38.97    580.00     24.08
 39.07    561.00     23.69
 39.17    591.00     24.31
 39.27    582.00     24.12
 39.37    634.00     25.18
 39.47    602.59     24.55
 39.57    620.00     24.90
 39.67    628.00     25.06
 39.77    587.93     24.25
 39.87    542.35     23.29
 39.97    632.00     25.14
 40.07    590.00     24.29
 40.17    606.00     24.62
 40.27    625.00     25.00
 40.37    580.00     24.08
 40.47    589.00     24.27
 40.57    610.00     24.70
 40.67    657.00     25.63
 40.77    623.00     24.96
 40.87    614.00     24.78
 40.97    575.00     23.98
 41.07    619.00     24.88
 41.17    544.00     23.32
 41.27    605.27     24.60
 41.37    561.74     23.70
 41.47    619.00     24.88
 41.57    547.00     23.39
 41.67    572.57     23.93
 41.77    577.38     24.03
 41.87    570.54     23.89
 41.97    603.00     24.56
 42.07    631.00     25.12
 42.17    630.54     25.11
 42.27    565.67     23.78
 42.37    628.00     25.06
 42.47    611.68     24.73
 42.57    663.00     25.75
 42.67    639.31     25.28
 42.77    643.00     25.36
 42.87    708.00     26.61
 42.97    752.19     27.43
 43.07    687.00     26.21
 43.17    657.00     25.63
 43.27    648.00     25.46
 43.37    683.00     26.13
 43.47    662.93     25.75
 43.57    675.93     26.00
 43.67    647.00     25.44
 43.77    660.00     25.69
 43.87    549.66     23.44
 43.97    606.00     24.62
 44.07    595.00     24.39
 44.17    584.00     24.17
 44.27    617.38     24.85
 44.37    637.00     25.24
 44.47    614.16     24.78
 44.57    598.12     24.46
 44.67    565.00     23.77
 44.77    602.50     24.55
 44.87    576.91     24.02
 44.97    638.49     25.27
 45.07    645.00     25.40
 45.17    651.00     25.51
 45.27    642.00     25.34
 45.37    590.80     24.31
 45.47    549.00     23.43
 45.57    602.32     24.54
 45.67    574.67     23.97
 45.77    536.00     23.15
 45.87    557.24     23.61
 45.97    603.00     24.56
 46.07    614.00     24.78
 46.17    589.00     24.27
 46.27    649.83     25.49
 46.37    648.05     25.46
 46.47    587.00     24.23
 46.57    624.00     24.98
 46.67    620.00     24.90
 46.77    572.61     23.93
 46.87    564.00     23.75
 46.97    592.00     24.33
 47.07    594.14     24.37
 47.17    620.00     24.90
 47.27    625.55     25.01
 47.37    589.00     24.27
 47.47    582.75     24.14
 47.57    663.85     25.77
 47.67    589.89     24.29
 47.77    661.00     25.71
 47.87    643.00     25.36
 47.97    704.34     26.54
 48.07    694.00     26.34
 48.17    656.00     25.61
 48.27    706.00     26.57
 48.37    692.00     26.31
 48.47    698.00     26.42
 48.57    639.00     25.28
 48.67    697.00     26.40
 48.77    647.15     25.44
 48.87    665.22     25.79
 48.97    627.10     25.04
 49.07    651.00     25.51
 49.17    622.00     24.94
 49.27    671.00     25.90
 49.37    629.00     25.08
 49.47    664.32     25.77
 49.57    677.00     26.02
 49.67    703.00     26.51
 49.77    727.70     26.98
 49.87    843.00     29.03
 49.97   1002.00     31.65
 50.07   1203.61     34.69
 50.17   1492.00     38.63
 50.27   1955.00     44.22
 50.37   2480.00     49.80
 50.47   2935.00     54.18
 50.57   3171.00     56.31
 50.67   3178.49     56.38
 50.77   2763.07     52.56
 50.87   2325.04     48.22
 50.97   1813.00     42.58
 51.07   1468.14     38.32
 51.17   1125.00     33.54
 51.27    936.27     30.60
 51.37    843.00     29.03
 51.47    779.00     27.91
 51.57    786.00     28.04
 51.67    760.00     27.57
 51.77    673.71     25.96
 51.87    743.00     27.26
 51.97    700.00     26.46
 52.07    741.88     27.24
 52.17    748.83     27.36
 52.27    726.57     26.95
 52.37    729.00     27.00
 52.47    697.00     26.40
 52.57    709.00     26.63
 52.67    727.00     26.96
 52.77    665.64     25.80
 52.87    653.00     25.55
 52.97    679.00     26.06
 53.07    744.16     27.28
 53.17    697.00     26.40
 53.27    700.58     26.47
 53.37    779.00     27.91
 53.47    884.30     29.74
 53.57    937.67     30.62
 53.67    975.00     31.22
 53.77   1099.89     33.16
 53.87   1190.00     34.50
 53.97   1224.00     34.99
 54.07   1308.00     36.17
 54.17   1316.52     36.28
 54.27   1167.88     34.17
 54.37   1006.00     31.72
 54.47    989.49     31.46
 54.57    829.00     28.79
 54.67    764.00     27.64
 54.77    695.28     26.37
 54.87    673.24     25.95
 54.97    685.00     26.17
 55.07    647.00     25.44
 55.17    633.75     25.17
 55.27    646.72     25.43
 55.37    616.53     24.83
 55.47    707.00     26.59
 55.57    662.00     25.73
 55.67    667.00     25.83
 55.77    678.00     26.04
 55.87    672.00     25.92
 55.97    667.00     25.83
 56.07    671.00     25.90
 56.17    772.00     27.78
 56.27    738.00     27.17
 56.37    761.00     27.59
 56.47    813.00     28.51
 56.57    873.00     29.55
 56.67    980.00     31.30
 56.77   1164.00     34.12
 56.87   1438.00     37.92
 56.97   1794.00     42.36
 57.07   2274.00     47.69
 57.17   2386.72     48.85
 57.27   2707.00     52.03
 57.37   2633.37     51.32
 57.47   2648.76     51.47
 57.57   2460.96     49.61
 57.67   2027.81     45.03
 57.77   1772.48     42.10
 57.87   1365.49     36.95
 57.97   1156.00     34.00
 58.07   1020.82     31.95
 58.17    881.00     29.68
 58.27    821.00     28.65
 58.37    813.00     28.51
 58.47    853.14     29.21
 58.57    757.49     27.52
 58.67    863.00     29.38
 58.77    922.18     30.37
 58.87    956.00     30.92
 58.97   1022.04     31.97
 59.07   1109.53     33.31
 59.17   1232.00     35.10
 59.27   1258.00     35.47
 59.37   1353.87     36.79
 59.47   1359.00     36.86
 59.57   1363.00     36.92
 59.67   1316.00     36.28
 59.77   1247.23     35.32
 59.87   1285.00     35.85
 59.97   1250.00     35.36
 60.07   1272.61     35.67
 60.17   1320.00     36.33
 60.27   1392.00     37.31
 60.37   1347.45     36.71
 60.47   1480.00     38.47
 60.57   1544.61     39.30
 60.67   1565.54     39.57
 60.77   1663.14     40.78
 60.87   1557.95     39.47
 60.97   1508.00     38.83
 61.07   1295.00     35.99
 61.17   1180.00     34.35
 61.27   1028.22     32.07
 61.37    964.00     31.05
 61.47    865.00     29.41
 61.57    832.24     28.85
 61.67    794.18     28.18
 61.77    814.00     28.53
 61.87    863.00     29.38
 61.97    876.00     29.60
 62.07   1042.00     32.28
 62.17   1124.00     33.53
 62.27   1268.00     35.61
 62.37   1450.44     38.08
 62.47   1626.00     40.32
 62.57   1715.55     41.42
 62.67   1782.00     42.21
 62.77   1771.29     42.09
 62.87   1699.80     41.23
 62.97   1543.00     39.28
 63.07   1463.00     38.25
 63.17   1198.78     34.62
 63.27   1062.00     32.59
 63.37    876.00     29.60
 63.47    853.00     29.21
 63.57    813.00     28.51
 63.67    863.00     29.38
 63.77    793.29     28.17
 63.87    743.00     27.26
 63.97    794.00     28.18
 64.07    693.00     26.32
 64.17    715.00     26.74
 64.27    741.00     27.22
 64.37    765.00     27.66
 64.47    827.00     28.76
 64.57    881.00     29.68
 64.67   1013.00     31.83
 64.77   1091.11     33.03
 64.87   1175.00     34.28
 64.97   1290.41     35.92
 65.07   1520.02     38.99
 65.17   1561.00     39.51
 65.27   1631.00     40.39
 65.37   1500.86     38.74
 65.47   1435.60     37.89
 65.57   1487.73     38.57
 65.67   1356.00     36.82
 65.77   1201.00     34.66
 65.87   1075.00     32.79
 65.97    930.00     30.50
 66.07    912.00     30.20
 66.17    891.56     29.86
 66.27    779.00     27.91
 66.37    755.00     27.48
 66.47    706.00     26.57
 66.57    774.67     27.83
 66.67    703.00     26.51
 66.77    663.05     25.75
 66.87    701.00     26.48
 66.97    731.89     27.05
 67.07    676.00     26.00
 67.17    715.00     26.74
 67.27    723.00     26.89
 67.37    687.88     26.23
 67.47    760.00     27.57
 67.57    780.60     27.94
 67.67    851.00     29.17
 67.77    951.00     30.84
 67.87   1055.00     32.48
 67.97   1099.00     33.15
 68.07   1277.14     35.74
 68.17   1534.00     39.17
 68.27   1768.24     42.05
 68.37   2085.92     45.67
 68.47   2253.00     47.47
 68.57   2466.00     49.66
 68.67   2471.43     49.71
 68.77   2620.00     51.19
 68.87   2311.76     48.08
 68.97   2221.00     47.13
 69.07   1981.90     44.52
 69.17   1725.00     41.53
 69.27   1447.23     38.04
 69.37   1276.87     35.73
 69.47   1055.06     32.48
 69.57   1035.00     32.17
 69.67    956.32     30.92
 69.77    788.42     28.08
 69.87    809.00     28.44
 69.97    714.64     26.73
 70.07    749.34     27.37
 70.17    669.78     25.88
 70.27    737.00     27.15
 70.37    751.42     27.41
 70.47    737.00     27.15
 70.57    683.27     26.14
 70.67    639.88     25.30
 70.77    667.88     25.84
 70.87    686.23     26.20
 70.97    660.48     25.70
 71.07    699.00     26.44
 71.17    736.00     27.13
 71.27    687.00     26.21
 71.37    750.16     27.39
 71.47    756.95     27.51
 71.57    778.00     27.89
 71.67    828.00     28.77
 71.77    857.00     29.27
 71.87   1028.00     32.06
 71.97   1091.00     33.03
 72.07   1268.00     35.61
 72.17   1441.12     37.96
 72.27   1596.74     39.96
 72.37   1683.00     41.02
 72.47   1866.00     43.20
 72.57   1934.00     43.98
 72.67   1980.00     44.50
 72.77   1908.00     43.68
 72.87   1902.00     43.61
 72.97   1859.00     43.12
 73.07   1598.00     39.97
 73.17   1379.69     37.14
 73.27   1251.00     35.37
 73.37   1117.00     33.42
 73.47   1011.00     31.80
 73.57    896.00     29.93
 73.67    839.00     28.97
 73.77    796.00     28.21
 73.87    748.00     27.35
 73.97    768.00     27.71
 74.07    763.00     27.62
 74.17    699.80     26.45
 74.27    672.00     25.92
 74.37    698.71     26.43
 74.47    665.00     25.79
 74.57    705.00     26.55
 74.67    626.52     25.03
 74.77    656.00     25.61
 74.87    741.00     27.22
 74.97    640.00     25.30
 75.07    667.81     25.84
 75.17    727.00     26.96
 75.27    691.00     26.29
 75.37    734.00     27.09
 75.47    676.00     26.00
 75.57    729.28     27.01
 75.67    691.00     26.29
 75.77    709.00     26.63
 75.87    660.00     25.69
 75.97    644.18     25.38
 76.07    689.64     26.26
 76.17    676.00     26.00
 76.27    680.00     26.08
 76.37    748.50     27.36
 76.47    719.00     26.81
 76.57    812.00     28.50
 76.67    827.00     28.76
 76.77    862.00     29.36
 76.87    954.00     30.89
 76.97    952.00     30.85
 77.07   1032.00     32.12
 77.17   1045.00     32.33
 77.27    962.98     31.03
 77.37    985.00     31.38
 77.47   1019.00     31.92
 77.57    996.00     31.56
 77.67    980.95     31.32
 77.77    894.00     29.90
 77.87    847.00     29.10
 77.97    796.00     28.21
 78.07    767.41     27.70
 78.17    736.00     27.13
 78.27    702.00     26.50
 78.37    652.00     25.53
 78.47    624.00     24.98
 78.57    656.22     25.62
 78.67    660.00     25.69
 78.77    595.00     24.39
 78.87    664.00     25.77
 78.97    606.00     24.62
 79.07    635.00     25.20
 79.17    605.00     24.60
 79.27    684.76     26.17
 79.37    628.00     25.06
 79.47    644.17     25.38
 79.57    628.00     25.06
 79.67    652.05     25.54
 79.77    633.00     25.16
 79.87    608.00     24.66
 79.97    628.00     25.06
 80.07    638.00     25.26
 80.17    663.69     25.76
 80.27    604.78     24.59
 80.37    646.80     25.43
 80.47    674.00     25.96
 80.57    668.02     25.85
 80.67    745.55     27.30
 80.77    833.66     28.87
 80.87    774.00     27.82
 80.97    889.55     29.83
 81.07   1036.00     32.19
 81.17   1099.90     33.16
 81.27   1058.76     32.54
 81.37   1316.00     36.28
 81.47   1397.00     37.38
 81.57   1461.00     38.22
 81.67   1471.00     38.35
 81.77   1564.00     39.55
 81.87   1465.35     38.28
 81.97   1466.00     38.29
 82.07   1437.54     37.91
 82.17   1371.00     37.03
 82.27   1272.00     35.67
 82.37   1202.00     34.67
 82.47   1107.47     33.28
 82.57   1089.00     33.00
 82.67    930.23     30.50
 82.77   1002.70     31.67
 82.87    901.00     30.02
 82.97    840.70     28.99
 83.07    759.00     27.55
 83.17    818.71     28.61
 83.27    764.00     27.64
 83.37    695.00     26.36
 83.47    654.00     25.57
 83.57    653.06     25.56
 83.67    619.00     24.88
 83.77    627.00     25.04
 83.87    702.00     26.50
 83.97    618.00     24.86
 84.07    672.89     25.94
 84.17    683.94     26.15
 84.27    635.76     25.21
 84.37    684.14     26.16
 84.47    707.00     26.59
 84.57    743.38     27.27
 84.67    641.00     25.32
 84.77    710.96     26.66
 84.87    691.48     26.30
 84.97    721.99     26.87
 85.07    662.98     25.75
 85.17    652.00     25.53
 85.27    634.56     25.19
 85.37    667.00     25.83
 85.47    629.00     25.08
 85.57    617.00     24.84
 85.67    642.00     25.34
 85.77    636.00     25.22
 85.87    636.00     25.22
 85.97    628.05     25.06
 86.07    607.00     24.64
 86.17    624.43     24.99
 86.27    635.00     25.20
 86.37    588.00     24.25
 86.47    640.29     25.30
 86.57    639.00     25.28
 86.67    591.36     24.32
 86.77    644.00     25.38
 86.87    684.00     26.15
 86.97    713.69     26.71
 87.07    666.00     25.81
 87.17    731.00     27.04
 87.27    683.36     26.14
 87.37    636.16     25.22
 87.47    697.00     26.40
 87.57    712.00     26.68
 87.67    636.42     25.23
 87.77    808.00     28.43
 87.87    695.30     26.37
 87.97    700.78     26.47
 88.07    728.00     26.98
 88.17    659.00     25.67
 88.27    675.00     25.98
 88.37    673.17     25.95
 88.47    762.89     27.62
 88.57    719.00     26.81
 88.67    765.93     27.68
 88.77    668.19     25.85
 88.87    635.54     25.21
 88.97    684.00     26.15
 89.07    730.00     27.02
 89.17    686.00     26.19
 89.27    705.71     26.57
 89.37    640.00     25.30
 89.47    647.00     25.44
 89.57    608.50     24.67
 89.67    678.00     26.04
 89.77    671.00     25.90
 89.87    694.00     26.34
 89.97    717.00     26.78
 90.07    702.00     26.50
 90.17    705.15     26.55
 90.27    689.49     26.26
 90.37    727.00     26.96
 90.47    667.00     25.83
 90.57    672.00     25.92
 90.67    622.00     24.94
 90.77    678.00     26.04
 90.87    645.00     25.40
 90.97    572.00     23.92
 91.07    644.91     25.40
 91.17    640.00     25.30
 91.27    689.00     26.25
 91.37    574.00     23.96
 91.47    565.00     23.77
 91.57    590.85     24.31
 91.67    597.36     24.44
 91.77    622.43     24.95
 91.87    593.00     24.35
 91.97    658.00     25.65
 92.07    620.00     24.90
 92.17    578.98     24.06
 92.27    583.45     24.15
 92.37    628.00     25.06
 92.47    620.00     24.90
 92.57    660.00     25.69
 92.67    561.99     23.71
 92.77    618.00     24.86
 92.87    673.83     25.96
 92.97    662.00     25.73
 93.07    699.00     26.44
 93.17    724.57     26.92
 93.27    664.00     25.77
 93.37    639.00     25.28
 93.47    656.36     25.62
 93.57    720.12     26.84
 93.67    795.00     28.20
 93.77    791.89     28.14
 93.87    763.00     27.62
 93.97    783.00     27.98
 94.07    798.77     28.26
 94.17    814.00     28.53
 94.27    892.22     29.87
 94.37    943.72     30.72
 94.47    836.92     28.93
 94.57    913.00     30.22
 94.67    861.04     29.34
 94.77    909.00     30.15
 94.87    953.00     30.87
 94.97    966.00     31.08
 95.07   1015.00     31.86
 95.17   1029.00     32.08
 95.27    975.77     31.24
 95.37    999.22     31.61
 95.47   1070.00     32.71
 95.57   1130.05     33.62
 95.67   1069.01     32.70
 95.77   1059.00     32.54
 95.87   1071.00     32.73
 95.97   1045.00     32.33
 96.07   1006.00     31.72
 96.17    969.00     31.13
 96.27    914.00     30.23
 96.37    934.00     30.56
 96.47    982.00     31.34
 96.57    854.00     29.22
 96.67    874.00     29.56
 96.77    830.04     28.81
 96.87    846.00     29.09
 96.97    858.00     29.29
 97.07    831.00     28.83
 97.17    875.00     29.58
 97.27    940.85     30.67
 97.37    941.00     30.68
 97.47    927.42     30.45
 97.57   1019.00     31.92
 97.67   1117.00     33.42
 97.77   1198.00     34.61
 97.87   1307.00     36.15
 97.97   1370.03     37.01
 98.07   1510.00     38.86
 98.17   1432.00     37.84
 98.27   1560.00     39.50
 98.37   1624.00     40.30
 98.47   1510.40     38.86
 98.57   1617.81     40.22
 98.67   1598.00     39.97
 98.77   1604.82     40.06
 98.87   1548.00     39.34
 98.97   1462.00     38.24
 99.07   1413.00     37.59
 99.17   1302.00     36.08
 99.27   1328.00     36.44
 99.37   1185.81     34.44
 99.47   1136.62     33.71
 99.57   1110.00     33.32
 99.67   1051.00     32.42
 99.77    963.79     31.04
 99.87    981.00     31.32
 99.97   1021.00     31.95
100.07   1044.00     32.31
100.17   1011.00     31.80
100.27   1106.00     33.26
100.37   1144.00     33.82
100.47   1175.00     34.28
100.57   1278.00     35.75
100.67   1346.05     36.69
100.77   1429.85     37.81
100.87   1520.74     39.00
100.97   1651.00     40.63
101.07   1635.65     40.44
101.17   1739.55     41.71
101.27   1865.00     43.19
101.37   1866.31     43.20
101.47   2024.00     44.99
101.57   2060.46     45.39
101.67   2132.00     46.17
101.77   2158.00     46.45
101.87   2134.94     46.21
101.97   2103.00     45.86
102.07   2138.59     46.24
102.17   2164.54     46.52
102.27   2053.00     45.31
102.37   1968.00     44.36
102.47   1927.12     43.90
102.57   1791.00     42.32
102.67   1649.00     40.61
102.77   1709.00     41.34
102.87   1602.00     40.02
102.97   1559.00     39.48
103.07   1483.71     38.52
103.17   1448.00     38.05
103.27   1460.19     38.21
103.37   1303.00     36.10
103.47   1375.58     37.09
103.57   1262.88     35.54
103.67   1321.00     36.35
103.77   1200.00     34.64
103.87   1195.87     34.58
103.97   1201.00     34.66
104.07   1086.00     32.95
104.17   1034.00     32.16
104.27   1084.41     32.93
104.37   1001.00     31.64
104.47   1011.77     31.81
104.57    943.00     30.71
104.67    937.90     30.63
104.77    808.00     28.43
104.87    754.22     27.46
104.97    794.00     28.18
105.07    800.93     28.30
105.17    769.00     27.73
105.27    694.87     26.36
105.37    707.00     26.59
105.47    673.00     25.94
105.57    689.00     26.25
105.67    613.29     24.76
105.77    641.20     25.32
105.87    615.00     24.80
105.97    611.00     24.72
106.07    659.00     25.67
106.17    571.66     23.91
106.27    621.00     24.92
106.37    598.16     24.46
106.47    651.42     25.52
106.57    608.00     24.66
106.67    562.00     23.71
106.77    660.99     25.71
106.87    644.00     25.38
106.97    646.00     25.42
107.07    651.71     25.53
107.17    710.39     26.65
107.27    668.00     25.85
107.37    696.00     26.38
107.47    660.00     25.69
107.57    638.00     25.26
107.67    703.00     26.51
107.77    752.00     27.42
107.87    774.00     27.82
107.97    782.00     27.96
108.07    728.00     26.98
108.17    755.00     27.48
108.27    800.00     28.28
108.37    802.00     28.32
108.47    785.00     28.02
108.57    786.00     28.04
108.67    783.00     27.98
108.77    857.05     29.28
108.87    746.32     27.32
108.97    755.00     27.48
109.07    837.94     28.95
109.17    757.00     27.51
109.27    770.00     27.75
109.37    738.00     27.17
109.47    746.00     27.31
109.57    816.29     28.57
109.67    757.00     27.51
109.77    741.86     27.24
109.87    740.23     27.21
109.97    790.00     28.11
110.07    735.50     27.12
110.17    741.67     27.23
110.27    784.00     28.00
110.37    799.00     28.27
110.47    769.00     27.73
110.57    785.00     28.02
110.67    712.27     26.69
110.77    758.00     27.53
110.87    762.00     27.60
110.97    674.20     25.97
111.07    736.00     27.13
111.17    702.00     26.50
111.27    708.00     26.61
111.37    695.61     26.37
111.47    658.00     25.65
111.57    703.00     26.51
111.67    702.33     26.50
111.77    672.00     25.92
111.87    608.05     24.66
111.97    644.00     25.38
112.07    599.59     24.49
112.17    590.27     24.30
112.27    650.83     25.51
112.37    643.94     25.38
112.47    614.00     24.78
112.57    637.00     25.24
112.67    580.48     24.09
112.77    598.00     24.45
112.87    635.10     25.20
112.97    624.00     24.98
113.07    571.00     23.90
113.17    658.13     25.65
113.27    669.02     25.87
113.37    669.32     25.87
113.47    600.00     24.49
113.57    671.99     25.92
113.67    619.00     24.88
113.77    661.52     25.72
113.87    623.00     24.96
113.97    694.73     26.36
114.07    604.00     24.58
114.17    718.49     26.80
114.27    657.37     25.64
114.37    715.39     26.75
114.47    706.00     26.57
114.57    686.00     26.19
114.67    707.03     26.59
114.77    715.00     26.74
114.87    751.24     27.41
114.97    773.24     27.81
115.07    842.00     29.02
115.17    909.00     30.15
115.27    889.00     29.82
115.37   1014.04     31.84
115.47    980.00     31.30
115.57   1129.10     33.60
115.67   1352.62     36.78
115.77   1333.00     36.51
115.87   1581.00     39.76
115.97   1713.00     41.39
116.07   1984.00     44.54
116.17   2090.91     45.73
116.27   2417.00     49.16
116.37   2657.52     51.55
116.47   3087.00     55.56
116.57   3380.00     58.14
116.67   3606.00     60.05
116.77   3998.00     63.23
116.87   4301.00     65.58
116.97   4575.00     67.64
117.07   5079.00     71.27
117.17   5563.33     74.59
117.27   5864.00     76.58
117.37   6522.27     80.76
117.47   6728.00     82.02
117.57   6967.00     83.47
117.67   7320.00     85.56
117.77   7439.79     86.25
117.87   7604.00     87.20
117.97   7751.31     88.04
118.07   7698.00     87.74
118.17   7524.00     86.74
118.27   7226.24     85.01
118.37   7099.00     84.26
118.47   6829.00     82.64
118.57   6415.00     80.09
118.67   6067.00     77.89
118.77   5822.00     76.30
118.87   5389.00     73.41
118.97   5180.41     71.98
119.07   4762.00     69.01
119.17   4428.00     66.54
119.27   4022.39     63.42
119.37   3700.43     60.83
119.47   3345.00     57.84
119.57   3085.00     55.54
119.67   2761.00     52.55
119.77   2371.54     48.70
119.87   2252.00     47.46
119.97   2058.00     45.37
120.07   1856.28     43.08
120.17   1606.00     40.07
120.27   1570.00     39.62
120.37   1437.00     37.91
120.47   1315.25     36.27
120.57   1167.84     34.17
120.67   1052.85     32.45
120.77   1087.00     32.97
120.87   1017.62     31.90
120.97    990.00     31.46
121.07    844.45     29.06
121.17    887.00     29.78
121.27    872.00     29.53
121.37    832.32     28.85
121.47    818.00     28.60
121.57    800.77     28.30
121.67    792.00     28.14
121.77    764.33     27.65
121.87    741.44     27.23
121.97    687.00     26.21
122.07    731.00     27.04
122.17    687.00     26.21
122.27    770.22     27.75
122.37    667.00     25.83
122.47    705.39     26.56
122.57    775.45     27.85
122.67    724.00     26.91
122.77    717.29     26.78
122.87    665.00     25.79
122.97    727.00     26.96
123.07    777.13     27.88
123.17    725.00     26.93
123.27    742.00     27.24
123.37    798.32     28.25
123.47    703.22     26.52
123.57    777.96     27.89
123.67    777.00     27.87
123.77    760.91     27.58
123.87    794.09     28.18
123.97    776.51     27.87
124.07    741.00     27.22
124.17    753.59     27.45
124.27    802.00     28.32
124.37    823.00     28.69
124.47    764.84     27.66
124.57    830.00     28.81
124.67    830.00     28.81
124.77    794.00     28.18
124.87    810.00     28.46
124.97    835.00     28.90
