XYDATA



INTER 1.0 1.0 0 0
TEMP 538.356
  9.97    707.00     26.59
 10.07    738.00     27.17
 10.17    732.07     27.06
 10.27    716.00     26.76
 10.37    709.25     26.63
 10.47    672.43     25.93
 10.57    704.69     26.55
 10.67    691.00     26.29
 10.77    746.23     27.32
 10.87    755.43     27.49
 10.97    731.00     27.04
 11.07    668.00     25.85
 11.17    714.79     26.74
 11.27    660.00     25.69
 11.37    780.00     27.93
 11.47    716.00     26.76
 11.57    756.79     27.51
 11.67    741.00     27.22
 11.77    658.68     25.66
 11.87    753.00     27.44
 11.97    844.00     29.05
 12.07    834.00     28.88
 12.17    862.00     29.36
 12.27    835.00     28.90
 12.37    879.00     29.65
 12.47    825.24     28.73
 12.57    778.00     27.89
 12.67    729.00     27.00
 12.77    757.00     27.51
 12.87    719.00     26.81
 12.97    659.57     25.68
 13.07    661.00     25.71
 13.17    686.00     26.19
 13.27    683.00     26.13
 13.37    654.00     25.57
 13.47    614.00     24.78
 13.57    686.00     26.19
 13.67    697.29     26.41
 13.77    691.00     26.29
 13.87    692.00     26.31
 13.97    712.20     26.69
 14.07    707.00     26.59
 14.17    637.24     25.24
 14.27    658.00     25.65
 14.37    635.00     25.20
 14.47    670.00     25.88
 14.57    680.05     26.08
 14.67    664.00     25.77
 14.77    659.00     25.67
 14.87    694.39     26.35
 14.97    686.00     26.19
 15.07    641.00     25.32
 15.17    658.00     25.65
 15.27    623.10     24.96
 15.37    615.68     24.81
 15.47    652.90     25.55
 15.57    657.00     25.63
 15.67    606.00     24.62
 15.77    639.00     25.28
 15.87    692.00     26.31
 15.97    627.00     25.04
 16.07    678.13     26.04
 16.17    650.00     25.50
 16.27    670.47     25.89
 16.37    603.00     24.56
 16.47    703.36     26.52
 16.57    664.00     25.77
 16.67    670.00     25.88
 16.77    632.00     25.14
 16.87    689.00     26.25
 16.97    589.00     24.27
 17.07    597.00     24.43
 17.17    625.00     25.00
 17.27    610.00     24.70
 17.37    629.67     25.09
 17.47    597.00     24.43
 17.57    654.00     25.57
 17.67    628.00     25.06
 17.77    627.00     25.04
 17.87    628.00     25.06
 17.97    645.00     25.40
 18.07    627.00     25.04
 18.17    652.74     25.55
 18.27    654.00     25.57
 18.37    696.00     26.38
 18.47    627.00     25.04
 18.57    688.95     26.25
 18.67    634.00     25.18
 18.77    646.00     25.42
 18.87    680.56     26.09
 18.97    612.00     24.74
 19.07    634.00     25.18
 19.17    644.00     25.38
 19.27    598.73     24.47
 19.37    645.00     25.40
 19.47    654.26     25.58
 19.57    599.00     24.47
 19.67    627.00     25.04
 19.77    645.80     25.41
 19.87    611.00     24.72
 19.97    666.61     25.82
 20.07    653.22     25.56
 20.17    582.00     24.12
 20.27    593.15     24.35
 20.37    671.26     25.91
 20.47    675.54     25.99
 20.57    646.38     25.42
 20.67    628.00     25.06
 20.77    621.00     24.92
 20.87    596.00     24.41
 20.97    637.00     25.24
 21.07    622.00     24.94
 21.17    651.03     25.52
 21.27    593.51     24.36
 21.37    566.00     23.79
 21.47    590.86     24.31
 21.57    657.64     25.64
 21.67    618.00     24.86
 21.77    620.46     24.91
 21.87    639.45     25.29
 21.97    644.00     25.38
 22.07    641.00     25.32
 22.17    642.83     25.35
 22.27    647.00     25.44
 22.37    672.90     25.94
 22.47    637.00     25.24
 22.57    656.31     25.62
 22.67    657.00     25.63
 22.77    668.54     25.86
 22.87    656.00     25.61
 22.97    652.00     25.53
 23.07    601.00     24.52
 23.17    595.40     24.40
 23.27    590.00     24.29
 23.37    638.00     25.26
 23.47    588.97     24.27
 23.57    631.00     25.12
 23.67    576.25     24.01
 23.77    665.00     25.79
 23.87    659.36     25.68
 23.97    580.00     24.08
 24.07    595.03     24.39
 24.17    645.00     25.40
 24.27    600.00     24.49
 24.37    614.34     24.79
 24.47    626.00     25.02
 24.57    626.00     25.02
 24.67    697.00     26.40
 24.77    704.58     26.54
 24.87    697.55     26.41
 24.97    723.00     26.89
 25.07    713.00     26.70
 25.17    692.40     26.31
 25.27    662.84     25.75
 25.37    623.04     24.96
 25.47    639.00     25.28
 25.57    671.72     25.92
 25.67    632.00     25.14
 25.77    630.00     25.10
 25.87    615.97     24.82
 25.97    637.99     25.26
 26.07    649.00     25.48
 26.17    611.65     24.73
 26.27    630.45     25.11
 26.37    681.22     26.10
 26.47    654.34     25.58
 26.57    635.00     25.20
 26.67    654.00     25.57
 26.77    698.56     26.43
 26.87    676.00     26.00
 26.97    702.00     26.50
 27.07    675.00     25.98
 27.17    672.92     25.94
 27.27    720.77     26.85
 27.37    701.00     26.48
 27.47    739.22     27.19
 27.57    787.00     28.05
 27.67    829.00     28.79
 27.77    941.76     30.69
 27.87    986.90     31.41
 27.97   1350.60     36.75
 28.07   1973.00     44.42
 28.17   3176.00     56.36
 28.27   5206.90     72.16
 28.37   7038.00     83.89
 28.47   7729.00     87.91
 28.57   7019.00     83.78
 28.67   5239.00     72.38
 28.77   3976.00     63.06
 28.87   3268.00     57.17
 28.97   3624.00     60.20
 29.07   4025.00     63.44
 29.17   4376.00     66.15
 29.27   3806.00     61.69
 29.37   3043.27     55.17
 29.47   2073.70     45.54
 29.57   1535.00     39.18
 29.67   1132.00     33.65
 29.77    958.67     30.96
 29.87    885.71     29.76
 29.97    813.00     28.51
 30.07    787.10     28.06
 30.17    711.45     26.67
 30.27    654.35     25.58
 30.37    716.11     26.76
 30.47    664.71     25.78
 30.57    726.00     26.94
 30.67    689.00     26.25
 30.77    689.00     26.25
 30.87    683.00     26.13
 30.97    725.00     26.93
 31.07    733.00     27.07
 31.17    750.00     27.39
 31.27    705.04     26.55
 31.37    776.00     27.86
 31.47    684.00     26.15
 31.57    667.00     25.83
 31.67    688.00     26.23
 31.77    711.00     26.66
 31.87    581.80     24.12
 31.97    664.42     25.78
 32.07    580.92     24.10
 32.17    637.00     25.24
 32.27    633.00     25.16
 32.37    608.00     24.66
 32.47    605.00     24.60
 32.57    646.99     25.44
 32.67    626.00     25.02
 32.77    627.00     25.04
 32.87    656.00     25.61
 32.97    677.00     26.02
 33.07    633.00     25.16
 33.17    591.00     24.31
 33.27    598.31     24.46
 33.37    680.00     26.08
 33.47    627.00     25.04
 33.57    650.57     25.51
 33.67    637.00     25.24
 33.77    695.49     26.37
 33.87    737.00     27.15
 33.97    881.29     29.69
 34.07   1010.00     31.78
 34.17   1123.00     33.51
 34.27   1189.44     34.49
 34.37   1231.00     35.09
 34.47   1169.43     34.20
 34.57    963.00     31.03
 34.67    852.99     29.21
 34.77    763.00     27.62
 34.87    688.00     26.23
 34.97    694.00     26.34
 35.07    677.00     26.02
 35.17    630.00     25.10
 35.27    687.00     26.21
 35.37    576.64     24.01
 35.47    624.54     24.99
 35.57    609.69     24.69
 35.67    608.00     24.66
 35.77    647.00     25.44
 35.87    595.00     24.39
 35.97    572.46     23.93
 36.07    591.00     24.31
 36.17    601.00     24.52
 36.27    635.67     25.21
 36.37    598.00     24.45
 36.47    620.67     24.91
 36.57    610.00     24.70
 36.67    620.15     24.90
 36.77    544.81     23.34
 36.87    604.00     24.58
 36.97    589.00     24.27
 37.07    553.54     23.53
 37.17    588.00     24.25
 37.27    563.00     23.73
 37.37    564.00     23.75
 37.47    579.18     24.07
 37.57    676.00     26.00
 37.67    644.00     25.38
 37.77    650.00     25.50
 37.87    637.00     25.24
 37.97    665.55     25.80
 38.07    690.30     26.27
 38.17    727.89     26.98
 38.27    699.00     26.44
 38.37    725.48     26.93
 38.47    686.00     26.19
 38.57    683.99     26.15
 38.67    654.55     25.58
 38.77    621.02     24.92
 38.87    639.00     25.28
 38.97    609.00     24.68
 39.07    632.00     25.14
 39.17    577.65     24.03
 39.27    592.11     24.33
 39.37    579.00     24.06
 39.47    579.00     24.06
 39.57    580.85     24.10
 39.67    567.00     23.81
 39.77    538.63     23.21
 39.87    622.00     24.94
 39.97    568.00     23.83
 40.07    622.00     24.94
 40.17    606.00     24.62
 40.27    553.00     23.52
 40.37    588.00     24.25
 40.47    543.00     23.30
 40.57    555.00     23.56
 40.67    545.13     23.35
 40.77    569.61     23.87
 40.87    543.60     23.32
 40.97    599.00     24.47
 41.07    577.00     24.02
 41.17    556.00     23.58
 41.27    614.00     24.78
 41.37    556.00     23.58
 41.47    592.55     24.34
 41.57    551.00     23.47
 41.67    610.19     24.70
 41.77    582.00     24.12
 41.87    580.32     24.09
 41.97    609.00     24.68
 42.07    548.15     23.41
 42.17    567.00     23.81
 42.27    598.00     24.45
 42.37    561.00     23.69
 42.47    593.00     24.35
 42.57    590.00     24.29
 42.67    638.00     25.26
 42.77    702.35     26.50
 42.87    620.00     24.90
 42.97    678.00     26.04
 43.07    668.61     25.86
 43.17    692.00     26.31
 43.27    698.76     26.43
 43.37    645.00     25.40
 43.47    655.00     25.59
 43.57    637.00     25.24
 43.67    643.84     25.37
 43.77    588.02     24.25
 43.87    614.00     24.78
 43.97    646.00     25.42
 44.07    622.00     24.94
 44.17    625.00     25.00
 44.27    617.00     24.84
 44.37    555.90     23.58
 44.47    599.00     24.47
 44.57    619.00     24.88
 44.67    601.00     24.52
 44.77    549.62     23.44
 44.87    600.00     24.49
 44.97    609.83     24.69
 45.07    562.58     23.72
 45.17    608.00     24.66
 45.27    556.36     23.59
 45.37    549.20     23.43
 45.47    581.00     24.10
 45.57    555.00     23.56
 45.67    594.00     24.37
 45.77    589.00     24.27
 45.87    614.00     24.78
 45.97    574.00     23.96
 46.07    545.00     23.35
 46.17    596.00     24.41
 46.27    580.00     24.08
 46.37    580.59     24.10
 46.47    582.00     24.12
 46.57    615.32     24.81
 46.67    597.00     24.43
 46.77    633.08     25.16
 46.87    567.00     23.81
 46.97    577.68     24.04
 47.07    629.00     25.08
 47.17    581.00     24.10
 47.27    600.00     24.49
 47.37    601.00     24.52
 47.47    615.70     24.81
 47.57    577.45     24.03
 47.67    645.00     25.40
 47.77    609.00     24.68
 47.87    616.00     24.82
 47.97    617.00     24.84
 48.07    676.22     26.00
 48.17    681.00     26.10
 48.27    698.00     26.42
 48.37    722.00     26.87
 48.47    705.00     26.55
 48.57    684.00     26.15
 48.67    659.86     25.69
 48.77    613.36     24.77
 48.87    622.00     24.94
 48.97    680.96     26.10
 49.07    620.62     24.91
 49.17    635.00     25.20
 49.27    633.36     25.17
 49.37    689.00     26.25
 49.47    675.61     25.99
 49.57    655.00     25.59
 49.67    707.00     26.59
 49.77    773.00     27.80
 49.87    865.34     29.42
 49.97    981.00     31.32
 50.07   1250.00     35.36
 50.17   1557.00     39.46
 50.27   2041.53     45.18
 50.37   2570.00     50.70
 50.47   2906.00     53.91
 50.57   3054.52     55.27
 50.67   2962.58     54.43
 50.77   2595.00     50.94
 50.87   2166.00     46.54
 50.97   1634.00     40.42
 51.07   1250.74     35.37
 51.17   1088.28     32.99
 51.27   1006.00     31.72
 51.37    852.00     29.19
 51.47    839.00     28.97
 51.57    777.00     27.87
 51.67    752.18     27.43
 51.77    752.16     27.43
 51.87    702.00     26.50
 51.97    703.49     26.52
 52.07    633.93     25.18
 52.17    680.00     26.08
 52.27    704.18     26.54
 52.37    645.84     25.41
 52.47    696.00     26.38
 52.57    687.00     26.21
 52.67    698.83     26.44
 52.77    685.00     26.17
 52.87    623.11     24.96
 52.97    623.91     24.98
 53.07    690.34     26.27
 53.17    713.00     26.70
 53.27    749.92     27.38
 53.37    788.00     28.07
 53.47    863.00     29.38
 53.57    991.26     31.48
 53.67   1066.19     32.65
 53.77   1152.00     33.94
 53.87   1231.56     35.09
 53.97   1281.00     35.79
 54.07   1257.00     35.45
 54.17   1179.00     34.34
 54.27   1135.00     33.69
 54.37    955.00     30.90
 54.47    869.00     29.48
 54.57    830.62     28.82
 54.67    766.00     27.68
 54.77    744.00     27.28
 54.87    714.00     26.72
 54.97    727.63     26.97
 55.07    688.64     26.24
 55.17    648.00     25.46
 55.27    620.77     24.92
 55.37    675.00     25.98
 55.47    692.40     26.31
 55.57    688.00     26.23
 55.67    661.00     25.71
 55.77    634.00     25.18
 55.87    634.00     25.18
 55.97    638.14     25.26
 56.07    724.00     26.91
 56.17    692.71     26.32
 56.27    716.42     26.77
 56.37    793.00     28.16
 56.47    814.00     28.53
 56.57    887.00     29.78
 56.67   1026.00     32.03
 56.77   1211.00     34.80
 56.87   1510.44     38.86
 56.97   1904.69     43.64
 57.07   2216.00     47.07
 57.17   2419.00     49.18
 57.27   2601.51     51.01
 57.37   2696.00     51.92
 57.47   2504.88     50.05
 57.57   2263.72     47.58
 57.67   1963.00     44.31
 57.77   1691.63     41.13
 57.87   1370.03     37.01
 57.97   1104.00     33.23
 58.07   1003.00     31.67
 58.17    851.88     29.19
 58.27    809.00     28.44
 58.37    785.00     28.02
 58.47    800.00     28.28
 58.57    829.00     28.79
 58.67    810.00     28.46
 58.77    971.97     31.18
 58.87   1055.75     32.49
 58.97   1055.16     32.48
 59.07   1150.00     33.91
 59.17   1257.00     35.45
 59.27   1269.00     35.62
 59.37   1365.00     36.95
 59.47   1313.27     36.24
 59.57   1275.00     35.71
 59.67   1303.81     36.11
 59.77   1285.04     35.85
 59.87   1200.69     34.65
 59.97   1226.00     35.01
 60.07   1260.52     35.50
 60.17   1244.00     35.27
 60.27   1362.86     36.92
 60.37   1424.38     37.74
 60.47   1474.00     38.39
 60.57   1540.00     39.24
 60.67   1549.00     39.36
 60.77   1589.69     39.87
 60.87   1556.59     39.45
 60.97   1407.70     37.52
 61.07   1271.36     35.66
 61.17   1123.00     33.51
 61.27    990.00     31.46
 61.37    944.51     30.73
 61.47    889.81     29.83
 61.57    842.07     29.02
 61.67    790.00     28.11
 61.77    847.00     29.10
 61.87    832.00     28.84
 61.97    960.11     30.99
 62.07   1074.00     32.77
 62.17   1102.00     33.20
 62.27   1258.48     35.48
 62.37   1510.00     38.86
 62.47   1529.00     39.10
 62.57   1663.00     40.78
 62.67   1701.00     41.24
 62.77   1702.00     41.26
 62.87   1642.66     40.53
 62.97   1455.51     38.15
 63.07   1341.95     36.63
 63.17   1099.88     33.16
 63.27    997.60     31.58
 63.37    874.00     29.56
 63.47    854.00     29.22
 63.57    777.00     27.87
 63.67    792.00     28.14
 63.77    728.00     26.98
 63.87    770.00     27.75
 63.97    742.60     27.25
 64.07    764.89     27.66
 64.17    744.00     27.28
 64.27    794.71     28.19
 64.37    789.00     28.09
 64.47    857.00     29.27
 64.57    874.00     29.56
 64.67   1040.00     32.25
 64.77   1071.37     32.73
 64.87   1211.38     34.80
 64.97   1389.00     37.27
 65.07   1481.00     38.48
 65.17   1517.00     38.95
 65.27   1472.51     38.37
 65.37   1420.93     37.70
 65.47   1389.00     37.27
 65.57   1336.00     36.55
 65.67   1224.00     34.99
 65.77   1129.90     33.61
 65.87    981.65     31.33
 65.97    940.00     30.66
 66.07    854.91     29.24
 66.17    787.00     28.05
 66.27    781.37     27.95
 66.37    739.00     27.18
 66.47    703.00     26.51
 66.57    738.32     27.17
 66.67    638.00     25.26
 66.77    654.00     25.57
 66.87    701.00     26.48
 66.97    720.00     26.83
 67.07    693.00     26.32
 67.17    669.00     25.87
 67.27    698.00     26.42
 67.37    754.00     27.46
 67.47    757.00     27.51
 67.57    833.39     28.87
 67.67    894.93     29.92
 67.77    948.68     30.80
 67.87   1006.00     31.72
 67.97   1196.00     34.58
 68.07   1360.00     36.88
 68.17   1571.67     39.64
 68.27   1881.32     43.37
 68.37   2118.00     46.02
 68.47   2367.63     48.66
 68.57   2401.56     49.01
 68.67   2605.00     51.04
 68.77   2566.00     50.66
 68.87   2311.00     48.07
 68.97   2170.00     46.58
 69.07   1833.00     42.81
 69.17   1601.00     40.01
 69.27   1433.00     37.85
 69.37   1125.41     33.55
 69.47    985.03     31.39
 69.57    935.00     30.58
 69.67    945.00     30.74
 69.77    745.97     27.31
 69.87    772.00     27.78
 69.97    768.30     27.72
 70.07    765.00     27.66
 70.17    719.00     26.81
 70.27    715.00     26.74
 70.37    709.00     26.63
 70.47    690.00     26.27
 70.57    707.00     26.59
 70.67    680.42     26.08
 70.77    716.64     26.77
 70.87    688.00     26.23
 70.97    680.00     26.08
 71.07    682.00     26.12
 71.17    682.00     26.12
 71.27    717.66     26.79
 71.37    772.85     27.80
 71.47    805.08     28.37
 71.57    771.00     27.77
 71.67    854.00     29.22
 71.77    968.93     31.13
 71.87    996.75     31.57
 71.97   1145.90     33.85
 72.07   1310.00     36.19
 72.17   1391.27     37.30
 72.27   1638.35     40.48
 72.37   1811.52     42.56
 72.47   1901.00     43.60
 72.57   1863.00     43.16
 72.67   1911.51     43.72
 72.77   1885.00     43.42
 72.87   1884.84     43.41
 72.97   1680.00     40.99
 73.07   1481.00     38.48
 73.17   1351.00     36.76
 73.27   1270.19     35.64
 73.37   1013.00     31.83
 73.47    902.00     30.03
 73.57    864.00     29.39
 73.67    770.14     27.75
 73.77    765.00     27.66
 73.87    703.00     26.51
 73.97    661.34     25.72
 74.07    707.00     26.59
 74.17    690.26     26.27
 74.27    704.09     26.53
 74.37    642.30     25.34
 74.47    675.50     25.99
 74.57    664.00     25.77
 74.67    691.00     26.29
 74.77    652.00     25.53
 74.87    675.00     25.98
 74.97    695.00     26.36
 75.07    727.00     26.96
 75.17    708.00     26.61
 75.27    655.47     25.60
 75.37    744.00     27.28
 75.47    700.00     26.46
 75.57    654.42     25.58
 75.67    705.00     26.55
 75.77    700.00     26.46
 75.87    698.00     26.42
 75.97    629.47     25.09
 76.07    678.58     26.05
 76.17    664.00     25.77
 76.27    724.00     26.91
 76.37    697.00     26.40
 76.47    730.00     27.02
 76.57    735.00     27.11
 76.67    836.00     28.91
 76.77    830.00     28.81
 76.87    879.00     29.65
 76.97    974.20     31.21
 77.07    941.90     30.69
 77.17   1000.82     31.64
 77.27    994.00     31.53
 77.37   1057.00     32.51
 77.47    895.78     29.93
 77.57    866.00     29.43
 77.67    844.00     29.05
 77.77    786.00     28.04
 77.87    807.00     28.41
 77.97    696.00     26.38
 78.07    676.00     26.00
 78.17    661.44     25.72
 78.27    642.00     25.34
 78.37    638.06     25.26
 78.47    626.00     25.02
 78.57    631.14     25.12
 78.67    603.61     24.57
 78.77    605.72     24.61
 78.87    650.00     25.50
 78.97    579.00     24.06
 79.07    613.00     24.76
 79.17    576.98     24.02
 79.27    611.00     24.72
 79.37    604.00     24.58
 79.47    602.00     24.54
 79.57    555.00     23.56
 79.67    666.04     25.81
 79.77    598.21     24.46
 79.87    587.00     24.23
 79.97    595.52     24.40
 80.07    594.00     24.37
 80.17    676.77     26.01
 80.27    648.06     25.46
 80.37    639.00     25.28
 80.47    654.56     25.58
 80.57    676.00     26.00
 80.67    749.24     27.37
 80.77    752.76     27.44
 80.87    781.22     27.95
 80.97    904.00     30.07
 81.07    955.00     30.90
 81.17   1049.00     32.39
 81.27   1052.60     32.44
 81.37   1210.00     34.79
 81.47   1337.00     36.57
 81.57   1300.00     36.06
 81.67   1438.00     37.92
 81.77   1427.00     37.78
 81.87   1281.97     35.80
 81.97   1379.00     37.13
 82.07   1409.00     37.54
 82.17   1167.60     34.17
 82.27   1200.00     34.64
 82.37   1153.00     33.96
 82.47   1058.00     32.53
 82.57   1039.16     32.24
 82.67    893.12     29.89
 82.77    871.26     29.52
 82.87    820.00     28.64
 82.97    789.00     28.09
 83.07    814.95     28.55
 83.17    696.00     26.38
 83.27    696.80     26.40
 83.37    649.00     25.48
 83.47    644.46     25.39
 83.57    608.00     24.66
 83.67    666.51     25.82
 83.77    674.53     25.97
 83.87    653.00     25.55
 83.97    575.00     23.98
 84.07    599.00     24.47
 84.17    585.00     24.19
 84.27    641.78     25.33
 84.37    680.00     26.08
 84.47    668.00     25.85
 84.57    654.00     25.57
 84.67    661.00     25.71
 84.77    608.00     24.66
 84.87    675.00     25.98
 84.97    682.94     26.13
 85.07    613.00     24.76
 85.17    677.00     26.02
 85.27    625.00     25.00
 85.37    629.00     25.08
 85.47    606.04     24.62
 85.57    611.98     24.74
 85.67    609.00     24.68
 85.77    637.00     25.24
 85.87    643.00     25.36
 85.97    627.00     25.04
 86.07    599.00     24.47
 86.17    654.00     25.57
 86.27    628.00     25.06
 86.37    626.00     25.02
 86.47    637.00     25.24
 86.57    621.73     24.93
 86.67    622.00     24.94
 86.77    673.00     25.94
 86.87    681.00     26.10
 86.97    654.77     25.59
 87.07    660.82     25.71
 87.17    651.00     25.51
 87.27    630.59     25.11
 87.37    697.27     26.41
 87.47    707.00     26.59
 87.57    724.14     26.91
 87.67    676.79     26.02
 87.77    737.70     27.16
 87.87    676.26     26.01
 87.97    752.00     27.42
 88.07    724.00     26.91
 88.17    668.47     25.85
 88.27    696.00     26.38
 88.37    705.75     26.57
 88.47    749.00     27.37
 88.57    725.00     26.93
 88.67    725.00     26.93
 88.77    730.61     27.03
 88.87    701.00     26.48
 88.97    692.00     26.31
 89.07    644.00     25.38
 89.17    672.00     25.92
 89.27    677.00     26.02
 89.37    606.18     24.62
 89.47    611.00     24.72
 89.57    634.00     25.18
 89.67    645.00     25.40
 89.77    687.60     26.22
 89.87    635.00     25.20
 89.97    679.07     26.06
 90.07    746.00     27.31
 90.17    670.70     25.90
 90.27    738.00     27.17
 90.37    670.00     25.88
 90.47    642.37     25.34
 90.57    650.06     25.50
 90.67    687.21     26.21
 90.77    640.16     25.30
 90.87    647.72     25.45
 90.97    616.00     24.82
 91.07    616.60     24.83
 91.17    680.00     26.08
 91.27    602.00     24.54
 91.37    618.00     24.86
 91.47    596.00     24.41
 91.57    601.00     24.52
 91.67    583.00     24.15
 91.77    580.00     24.08
 91.87    566.00     23.79
 91.97    570.00     23.87
 92.07    588.00     24.25
 92.17    568.97     23.85
 92.27    626.00     25.02
 92.37    570.67     23.89
 92.47    598.68     24.47
 92.57    592.00     24.33
 92.67    597.00     24.43
 92.77    579.00     24.06
 92.87    631.95     25.14
 92.97    684.03     26.15
 93.07    630.54     25.11
 93.17    650.00     25.50
 93.27    673.00     25.94
 93.37    676.03     26.00
 93.47    744.00     27.28
 93.57    697.68     26.41
 93.67    730.74     27.03
 93.77    785.00     28.02
 93.87    823.76     28.70
 93.97    813.00     28.51
 94.07    797.00     28.23
 94.17    827.64     28.77
 94.27    897.00     29.95
 94.37    787.00     28.05
 94.47    845.00     29.07
 94.57    940.00     30.66
 94.67    883.64     29.73
 94.77    947.45     30.78
 94.87    905.00     30.08
 94.97   1000.91     31.64
 95.07   1018.45     31.91
 95.17   1042.97     32.30
 95.27   1020.30     31.94
 95.37   1064.00     32.62
 95.47   1101.00     33.18
 95.57    993.10     31.51
 95.67   1056.65     32.51
 95.77   1014.00     31.84
 95.87   1051.76     32.43
 95.97   1043.38     32.30
 96.07    968.00     31.11
 96.17    915.40     30.26
 96.27    919.00     30.32
 96.37    870.00     29.50
 96.47    899.00     29.98
 96.57    845.79     29.08
 96.67    778.01     27.89
 96.77    832.00     28.84
 96.87    839.00     28.97
 96.97    861.00     29.34
 97.07    839.86     28.98
 97.17    857.25     29.28
 97.27    872.25     29.53
 97.37    917.33     30.29
 97.47   1041.00     32.26
 97.57   1119.29     33.46
 97.67   1183.00     34.39
 97.77   1247.00     35.31
 97.87   1354.69     36.81
 97.97   1324.00     36.39
 98.07   1357.00     36.84
 98.17   1547.95     39.34
 98.27   1491.00     38.61
 98.37   1565.00     39.56
 98.47   1604.00     40.05
 98.57   1615.00     40.19
 98.67   1582.20     39.78
 98.77   1483.00     38.51
 98.87   1398.61     37.40
 98.97   1415.48     37.62
 99.07   1326.00     36.41
 99.17   1338.78     36.59
 99.27   1230.00     35.07
 99.37   1156.49     34.01
 99.47   1077.00     32.82
 99.57   1070.00     32.71
 99.67   1015.00     31.86
 99.77    946.49     30.77
 99.87    974.00     31.21
 99.97   1058.00     32.53
100.07   1076.00     32.80
100.17   1020.36     31.94
100.27   1093.00     33.06
100.37   1123.88     33.52
100.47   1182.00     34.38
100.57   1300.00     36.06
100.67   1319.30     36.32
100.77   1468.00     38.31
100.87   1655.00     40.68
100.97   1748.00     41.81
101.07   1707.33     41.32
101.17   1789.70     42.30
101.27   1929.00     43.92
101.37   1948.00     44.14
101.47   1947.66     44.13
101.57   2052.00     45.30
101.67   2121.00     46.05
101.77   2166.00     46.54
101.87   2152.00     46.39
101.97   2117.00     46.01
102.07   2063.00     45.42
102.17   1965.91     44.34
102.27   1954.00     44.20
102.37   1802.99     42.46
102.47   1792.58     42.34
102.57   1738.18     41.69
102.67   1638.00     40.47
102.77   1591.00     39.89
102.87   1535.34     39.18
102.97   1456.00     38.16
103.07   1332.00     36.50
103.17   1359.59     36.87
103.27   1382.90     37.19
103.37   1273.00     35.68
103.47   1270.00     35.64
103.57   1203.00     34.68
103.67   1285.00     35.85
103.77   1231.14     35.09
103.87   1208.12     34.76
103.97   1103.00     33.21
104.07   1086.00     32.95
104.17    996.00     31.56
104.27   1008.55     31.76
104.37    935.00     30.58
104.47    911.46     30.19
104.57    876.00     29.60
104.67    839.00     28.97
104.77    796.00     28.21
104.87    805.00     28.37
104.97    778.00     27.89
105.07    754.00     27.46
105.17    687.07     26.21
105.27    671.00     25.90
105.37    659.00     25.67
105.47    668.00     25.85
105.57    670.00     25.88
105.67    620.00     24.90
105.77    638.00     25.26
105.87    612.00     24.74
105.97    617.00     24.84
106.07    633.41     25.17
106.17    553.74     23.53
106.27    619.00     24.88
106.37    582.00     24.12
106.47    649.24     25.48
106.57    582.43     24.13
106.67    567.57     23.82
106.77    636.00     25.22
106.87    644.04     25.38
106.97    658.38     25.66
107.07    686.82     26.21
107.17    605.12     24.60
107.27    653.00     25.55
107.37    669.00     25.87
107.47    733.00     27.07
107.57    695.00     26.36
107.67    708.00     26.61
107.77    798.00     28.25
107.87    699.83     26.45
107.97    742.00     27.24
108.07    769.48     27.74
108.17    745.56     27.30
108.27    804.80     28.37
108.37    828.26     28.78
108.47    758.27     27.54
108.57    763.00     27.62
108.67    768.00     27.71
108.77    735.56     27.12
108.87    754.08     27.46
108.97    812.66     28.51
109.07    768.00     27.71
109.17    717.00     26.78
109.27    708.00     26.61
109.37    745.00     27.29
109.47    735.00     27.11
109.57    762.70     27.62
109.67    805.27     28.38
109.77    779.00     27.91
109.87    778.00     27.89
109.97    817.92     28.60
110.07    800.52     28.29
110.17    780.00     27.93
110.27    758.00     27.53
110.37    734.00     27.09
110.47    779.00     27.91
110.57    733.00     27.07
110.67    722.00     26.87
110.77    685.00     26.17
110.87    759.69     27.56
110.97    677.00     26.02
111.07    645.13     25.40
111.17    646.05     25.42
111.27    670.00     25.88
111.37    678.00     26.04
111.47    676.00     26.00
111.57    590.90     24.31
111.67    653.00     25.55
111.77    620.00     24.90
111.87    663.00     25.75
111.97    624.00     24.98
112.07    602.84     24.55
112.17    583.00     24.15
112.27    588.00     24.25
112.37    623.82     24.98
112.47    614.00     24.78
112.57    591.00     24.31
112.67    604.00     24.58
112.77    612.00     24.74
112.87    633.00     25.16
112.97    583.81     24.16
113.07    637.00     25.24
113.17    641.68     25.33
113.27    641.00     25.32
113.37    624.00     24.98
113.47    592.66     24.34
113.57    622.00     24.94
113.67    615.62     24.81
113.77    675.00     25.98
113.87    629.00     25.08
113.97    679.29     26.06
114.07    601.27     24.52
114.17    660.00     25.69
114.27    693.32     26.33
114.37    694.00     26.34
114.47    637.00     25.24
114.57    679.00     26.06
114.67    674.00     25.96
114.77    700.00     26.46
114.87    814.46     28.54
114.97    851.95     29.19
115.07    856.00     29.26
115.17    884.00     29.73
115.27    918.39     30.31
115.37    989.00     31.45
115.47   1058.00     32.53
115.57   1221.00     34.94
115.67   1328.98     36.46
115.77   1429.00     37.80
115.87   1634.00     40.42
115.97   1831.00     42.79
116.07   2155.00     46.42
116.17   2331.00     48.28
116.27   2617.00     51.16
116.37   2960.00     54.41
116.47   3239.00     56.91
116.57   3417.00     58.46
116.67   3882.00     62.31
116.77   4206.72     64.86
116.87   4664.00     68.29
116.97   4940.00     70.29
117.07   5329.00     73.00
117.17   6010.41     77.53
117.27   6327.00     79.54
117.37   6615.00     81.33
117.47   6830.00     82.64
117.57   7132.00     84.45
117.67   7362.00     85.80
117.77   7556.00     86.93
117.87   7501.00     86.61
117.97   7517.00     86.70
118.07   7415.00     86.11
118.17   7321.00     85.56
118.27   7069.00     84.08
118.37   6800.00     82.46
118.47   6341.00     79.63
118.57   5962.00     77.21
118.67   5701.00     75.50
118.77   5390.00     73.42
118.87   4955.00     70.39
118.97   4839.00     69.56
119.07   4404.93     66.37
119.17   4060.00     63.72
119.27   3578.18     59.82
119.37   3299.00     57.44
119.47   3037.00     55.11
119.57   2579.42     50.79
119.67   2446.61     49.46
119.77   2217.00     47.09
119.87   2022.00     44.97
119.97   1903.00     43.62
120.07   1701.00     41.24
120.17   1533.00     39.15
120.27   1340.57     36.61
120.37   1287.00     35.87
120.47   1252.00     35.38
120.57   1174.00     34.26
120.67   1057.00     32.51
120.77   1000.10     31.62
120.87    941.00     30.68
120.97    889.67     29.83
121.07    930.00     30.50
121.17    868.00     29.46
121.27    837.00     28.93
121.37    808.00     28.43
121.47    766.00     27.68
121.57    742.00     27.24
121.67    750.00     27.39
121.77    727.00     26.96
121.87    707.00     26.59
121.97    738.47     27.17
122.07    722.26     26.87
122.17    666.00     25.81
122.27    684.00     26.15
122.37    701.00     26.48
122.47    733.46     27.08
122.57    706.69     26.58
122.67    692.44     26.31
122.77    633.00     25.16
122.87    667.00     25.83
122.97    733.00     27.07
123.07    701.18     26.48
123.17    710.00     26.65
123.27    724.00     26.91
123.37    726.00     26.94
123.47    688.44     26.24
123.57    731.00     27.04
123.67    778.95     27.91
123.77    749.10     27.37
123.87    710.77     26.66
123.97    764.00     27.64
124.07    782.00     27.96
124.17    770.00     27.75
124.27    786.71     28.05
124.37    781.66     27.96
124.47    794.00     28.18
124.57    759.36     27.56
124.67    788.00     28.07
124.77    761.00     27.59
124.87    752.00     27.42
124.97    822.00     28.67
