XYDATA



INTER 1.0 1.0 0 0
TEMP 612.498
  9.97    736.00     27.13
 10.07    626.44     25.03
 10.17    698.00     26.42
 10.27    707.00     26.59
 10.37    639.62     25.29
 10.47    646.00     25.42
 10.57    732.00     27.06
 10.67    644.82     25.39
 10.77    688.00     26.23
 10.87    647.00     25.44
 10.97    668.00     25.85
 11.07    665.61     25.80
 11.17    659.84     25.69
 11.27    702.00     26.50
 11.37    639.28     25.28
 11.47    699.00     26.44
 11.57    714.53     26.73
 11.67    686.00     26.19
 11.77    680.00     26.08
 11.87    775.00     27.84
 11.97    770.00     27.75
 12.07    816.00     28.57
 12.17    888.00     29.80
 12.27    883.00     29.72
 12.37    785.00     28.02
 12.47    791.00     28.12
 12.57    694.00     26.34
 12.67    736.41     27.14
 12.77    659.00     25.67
 12.87    661.00     25.71
 12.97    648.00     25.46
 13.07    658.00     25.65
 13.17    617.16     24.84
 13.27    656.00     25.61
 13.37    677.81     26.03
 13.47    653.45     25.56
 13.57    613.79     24.77
 13.67    625.00     25.00
 13.77    673.90     25.96
 13.87    640.00     25.30
 13.97    607.59     24.65
 14.07    705.00     26.55
 14.17    685.42     26.18
 14.27    662.00     25.73
 14.37    632.00     25.14
 14.47    620.00     24.90
 14.57    653.00     25.55
 14.67    657.81     25.65
 14.77    631.00     25.12
 14.87    638.17     25.26
 14.97    666.00     25.81
 15.07    622.87     24.96
 15.17    646.00     25.42
 15.27    692.90     26.32
 15.37    650.00     25.50
 15.47    635.00     25.20
 15.57    658.31     25.66
 15.67    662.00     25.73
 15.77    641.00     25.32
 15.87    619.28     24.89
 15.97    674.77     25.98
 16.07    690.10     26.27
 16.17    598.51     24.46
 16.27    587.00     24.23
 16.37    667.11     25.83
 16.47    641.00     25.32
 16.57    640.00     25.30
 16.67    630.00     25.10
 16.77    601.00     24.52
 16.87    622.00     24.94
 16.97    623.00     24.96
 17.07    610.77     24.71
 17.17    630.00     25.10
 17.27    625.00     25.00
 17.37    576.00     24.00
 17.47    599.44     24.48
 17.57    621.00     24.92
 17.67    604.67     24.59
 17.77    656.01     25.61
 17.87    663.28     25.75
 17.97    608.00     24.66
 18.07    603.33     24.56
 18.17    620.47     24.91
 18.27    605.67     24.61
 18.37    599.00     24.47
 18.47    630.00     25.10
 18.57    612.00     24.74
 18.67    604.90     24.59
 18.77    620.00     24.90
 18.87    623.85     24.98
 18.97    630.00     25.10
 19.07    637.40     25.25
 19.17    585.00     24.19
 19.27    641.91     25.34
 19.37    587.00     24.23
 19.47    641.46     25.33
 19.57    617.00     24.84
 19.67    612.00     24.74
 19.77    593.49     24.36
 19.87    601.00     24.52
 19.97    592.49     24.34
 20.07    624.00     24.98
 20.17    587.00     24.23
 20.27    615.00     24.80
 20.37    614.00     24.78
 20.47    572.38     23.92
 20.57    667.00     25.83
 20.67    605.00     24.60
 20.77    617.00     24.84
 20.87    604.78     24.59
 20.97    571.00     23.90
 21.07    557.00     23.60
 21.17    634.00     25.18
 21.27    599.00     24.47
 21.37    620.00     24.90
 21.47    598.00     24.45
 21.57    620.00     24.90
 21.67    627.00     25.04
 21.77    600.18     24.50
 21.87    651.01     25.51
 21.97    618.00     24.86
 22.07    587.00     24.23
 22.17    629.04     25.08
 22.27    575.00     23.98
 22.37    596.00     24.41
 22.47    635.00     25.20
 22.57    643.03     25.36
 22.67    628.00     25.06
 22.77    621.00     24.92
 22.87    584.00     24.17
 22.97    566.00     23.79
 23.07    665.00     25.79
 23.17    637.38     25.25
 23.27    580.71     24.10
 23.37    592.00     24.33
 23.47    600.00     24.49
 23.57    658.18     25.65
 23.67    587.98     24.25
 23.77    608.00     24.66
 23.87    612.52     24.75
 23.97    598.00     24.45
 24.07    612.94     24.76
 24.17    658.00     25.65
 24.27    625.00     25.00
 24.37    662.00     25.73
 24.47    630.27     25.11
 24.57    673.61     25.95
 24.67    682.10     26.12
 24.77    642.91     25.36
 24.87    635.89     25.22
 24.97    648.17     25.46
 25.07    717.00     26.78
 25.17    661.00     25.71
 25.27    668.00     25.85
 25.37    625.69     25.01
 25.47    630.00     25.10
 25.57    637.00     25.24
 25.67    591.00     24.31
 25.77    593.21     24.36
 25.87    667.12     25.83
 25.97    586.00     24.21
 26.07    628.00     25.06
 26.17    655.85     25.61
 26.27    573.33     23.94
 26.37    631.02     25.12
 26.47    619.00     24.88
 26.57    644.00     25.38
 26.67    579.00     24.06
 26.77    647.50     25.45
 26.87    649.00     25.48
 26.97    671.70     25.92
 27.07    682.00     26.12
 27.17    624.57     24.99
 27.27    663.00     25.75
 27.37    645.46     25.41
 27.47    752.00     27.42
 27.57    765.00     27.66
 27.67    813.92     28.53
 27.77    832.00     28.84
 27.87    949.00     30.81
 27.97   1236.00     35.16
 28.07   2020.98     44.96
 28.17   2872.00     53.59
 28.27   4391.15     66.27
 28.37   5708.83     75.56
 28.47   5936.00     77.05
 28.57   5036.00     70.96
 28.67   3760.00     61.32
 28.77   2839.00     53.28
 28.87   2552.72     50.52
 28.97   2966.00     54.46
 29.07   3380.00     58.14
 29.17   3383.85     58.17
 29.27   2834.00     53.24
 29.37   2187.00     46.77
 29.47   1546.00     39.32
 29.57   1211.60     34.81
 29.67    916.00     30.27
 29.77    855.00     29.24
 29.87    841.00     29.00
 29.97    743.00     27.26
 30.07    744.00     27.28
 30.17    716.72     26.77
 30.27    717.00     26.78
 30.37    653.00     25.55
 30.47    754.00     27.46
 30.57    626.18     25.02
 30.67    707.00     26.59
 30.77    687.00     26.21
 30.87    626.69     25.03
 30.97    707.79     26.60
 31.07    744.00     27.28
 31.17    789.12     28.09
 31.27    719.80     26.83
 31.37    733.00     27.07
 31.47    608.17     24.66
 31.57    603.91     24.57
 31.67    628.86     25.08
 31.77    629.00     25.08
 31.87    635.00     25.20
 31.97    644.00     25.38
 32.07    619.00     24.88
 32.17    612.00     24.74
 32.27    629.00     25.08
 32.37    583.51     24.16
 32.47    596.72     24.43
 32.57    655.00     25.59
 32.67    611.04     24.72
 32.77    603.00     24.56
 32.87    619.00     24.88
 32.97    577.00     24.02
 33.07    582.00     24.12
 33.17    637.00     25.24
 33.27    620.85     24.92
 33.37    662.00     25.73
 33.47    637.00     25.24
 33.57    709.00     26.63
 33.67    607.00     24.64
 33.77    724.00     26.91
 33.87    792.18     28.15
 33.97    867.00     29.44
 34.07   1013.00     31.83
 34.17   1055.00     32.48
 34.27   1140.61     33.77
 34.37   1142.00     33.79
 34.47   1059.08     32.54
 34.57    895.00     29.92
 34.67    808.68     28.44
 34.77    747.00     27.33
 34.87    643.00     25.36
 34.97    630.69     25.11
 35.07    620.00     24.90
 35.17    607.84     24.65
 35.27    639.58     25.29
 35.37    587.71     24.24
 35.47    586.00     24.21
 35.57    640.00     25.30
 35.67    592.46     24.34
 35.77    594.00     24.37
 35.87    557.06     23.60
 35.97    584.00     24.17
 36.07    598.04     24.45
 36.17    560.00     23.66
 36.27    635.00     25.20
 36.37    583.07     24.15
 36.47    601.00     24.52
 36.57    579.00     24.06
 36.67    549.00     23.43
 36.77    578.00     24.04
 36.87    595.00     24.39
 36.97    557.00     23.60
 37.07    539.00     23.22
 37.17    557.55     23.61
 37.27    532.55     23.08
 37.37    625.00     25.00
 37.47    611.00     24.72
 37.57    610.96     24.72
 37.67    526.00     22.93
 37.77    618.25     24.86
 37.87    659.62     25.68
 37.97    683.27     26.14
 38.07    698.88     26.44
 38.17    739.43     27.19
 38.27    746.22     27.32
 38.37    714.00     26.72
 38.47    634.00     25.18
 38.57    675.00     25.98
 38.67    653.00     25.55
 38.77    563.85     23.75
 38.87    622.41     24.95
 38.97    577.00     24.02
 39.07    597.00     24.43
 39.17    555.00     23.56
 39.27    534.00     23.11
 39.37    621.29     24.93
 39.47    582.61     24.14
 39.57    601.11     24.52
 39.67    563.00     23.73
 39.77    576.00     24.00
 39.87    604.00     24.58
 39.97    581.00     24.10
 40.07    589.00     24.27
 40.17    589.00     24.27
 40.27    588.00     24.25
 40.37    505.00     22.47
 40.47    550.00     23.45
 40.57    564.66     23.76
 40.67    555.70     23.57
 40.77    564.00     23.75
 40.87    586.00     24.21
 40.97    570.00     23.87
 41.07    553.03     23.52
 41.17    537.00     23.17
 41.27    565.72     23.78
 41.37    548.00     23.41
 41.47    572.17     23.92
 41.57    576.00     24.00
 41.67    600.78     24.51
 41.77    609.00     24.68
 41.87    561.00     23.69
 41.97    532.00     23.07
 42.07    581.00     24.10
 42.17    584.74     24.18
 42.27    548.00     23.41
 42.37    597.00     24.43
 42.47    556.07     23.58
 42.57    620.51     24.91
 42.67    620.00     24.90
 42.77    611.96     24.74
 42.87    665.00     25.79
 42.97    713.66     26.71
 43.07    698.00     26.42
 43.17    683.00     26.13
 43.27    627.42     25.05
 43.37    617.00     24.84
 43.47    628.00     25.06
 43.57    603.56     24.57
 43.67    624.00     24.98
 43.77    620.00     24.90
 43.87    555.00     23.56
 43.97    537.23     23.18
 44.07    581.00     24.10
 44.17    580.00     24.08
 44.27    613.60     24.77
 44.37    570.00     23.87
 44.47    604.00     24.58
 44.57    535.80     23.15
 44.67    558.26     23.63
 44.77    577.00     24.02
 44.87    611.59     24.73
 44.97    558.00     23.62
 45.07    559.74     23.66
 45.17    571.00     23.90
 45.27    565.96     23.79
 45.37    523.06     22.87
 45.47    582.00     24.12
 45.57    527.00     22.96
 45.67    555.62     23.57
 45.77    566.62     23.80
 45.87    585.00     24.19
 45.97    585.97     24.21
 46.07    539.00     23.22
 46.17    560.58     23.68
 46.27    594.75     24.39
 46.37    618.05     24.86
 46.47    566.00     23.79
 46.57    591.00     24.31
 46.67    615.65     24.81
 46.77    572.00     23.92
 46.87    526.98     22.96
 46.97    561.00     23.69
 47.07    571.00     23.90
 47.17    532.59     23.08
 47.27    553.00     23.52
 47.37    583.00     24.15
 47.47    619.00     24.88
 47.57    589.80     24.29
 47.67    549.32     23.44
 47.77    588.89     24.27
 47.87    637.00     25.24
 47.97    647.00     25.44
 48.07    620.46     24.91
 48.17    715.00     26.74
 48.27    666.00     25.81
 48.37    651.00     25.51
 48.47    622.00     24.94
 48.57    621.00     24.92
 48.67    594.00     24.37
 48.77    588.67     24.26
 48.87    632.00     25.14
 48.97    638.00     25.26
 49.07    555.00     23.56
 49.17    606.00     24.62
 49.27    620.00     24.90
 49.37    608.66     24.67
 49.47    642.00     25.34
 49.57    635.00     25.20
 49.67    733.88     27.09
 49.77    708.00     26.61
 49.87    829.00     28.79
 49.97   1029.00     32.08
 50.07   1402.32     37.45
 50.17   1690.00     41.11
 50.27   2257.58     47.51
 50.37   2606.81     51.06
 50.47   2707.00     52.03
 50.57   2796.00     52.88
 50.67   2503.00     50.03
 50.77   2240.00     47.33
 50.87   1850.61     43.02
 50.97   1394.00     37.34
 51.07   1115.04     33.39
 51.17    943.00     30.71
 51.27    829.98     28.81
 51.37    763.00     27.62
 51.47    728.00     26.98
 51.57    702.36     26.50
 51.67    715.00     26.74
 51.77    672.00     25.92
 51.87    643.59     25.37
 51.97    636.00     25.22
 52.07    688.00     26.23
 52.17    607.48     24.65
 52.27    654.00     25.57
 52.37    638.00     25.26
 52.47    706.00     26.57
 52.57    656.00     25.61
 52.67    653.00     25.55
 52.77    634.00     25.18
 52.87    612.00     24.74
 52.97    651.37     25.52
 53.07    679.16     26.06
 53.17    721.00     26.85
 53.27    757.43     27.52
 53.37    742.00     27.24
 53.47    886.43     29.77
 53.57   1066.00     32.65
 53.67   1084.00     32.92
 53.77   1144.00     33.82
 53.87   1248.00     35.33
 53.97   1282.00     35.81
 54.07   1287.72     35.88
 54.17   1155.14     33.99
 54.27   1046.00     32.34
 54.37    847.00     29.10
 54.47    844.00     29.05
 54.57    758.00     27.53
 54.67    713.00     26.70
 54.77    721.85     26.87
 54.87    673.00     25.94
 54.97    606.72     24.63
 55.07    652.00     25.53
 55.17    628.71     25.07
 55.27    630.00     25.10
 55.37    640.00     25.30
 55.47    664.97     25.79
 55.57    637.99     25.26
 55.67    669.66     25.88
 55.77    712.00     26.68
 55.87    630.00     25.10
 55.97    614.03     24.78
 56.07    690.00     26.27
 56.17    729.17     27.00
 56.27    688.88     26.25
 56.37    735.00     27.11
 56.47    852.20     29.19
 56.57   1012.00     31.81
 56.67   1109.00     33.30
 56.77   1390.00     37.28
 56.87   1727.00     41.56
 56.97   2019.00     44.93
 57.07   2384.00     48.83
 57.17   2667.00     51.64
 57.27   2771.46     52.64
 57.37   2643.00     51.41
 57.47   2421.00     49.20
 57.57   2075.00     45.55
 57.67   1692.00     41.13
 57.77   1434.00     37.87
 57.87   1173.00     34.25
 57.97    997.00     31.58
 58.07    888.00     29.80
 58.17    824.27     28.71
 58.27    762.00     27.60
 58.37    767.96     27.71
 58.47    789.83     28.10
 58.57    780.00     27.93
 58.67    825.00     28.72
 58.77    910.32     30.17
 58.87   1010.00     31.78
 58.97   1067.00     32.66
 59.07   1145.00     33.84
 59.17   1238.00     35.19
 59.27   1263.12     35.54
 59.37   1323.59     36.38
 59.47   1341.00     36.62
 59.57   1320.00     36.33
 59.67   1210.57     34.79
 59.77   1138.33     33.74
 59.87   1129.43     33.61
 59.97   1197.00     34.60
 60.07   1239.00     35.20
 60.17   1271.19     35.65
 60.27   1368.00     36.99
 60.37   1377.09     37.11
 60.47   1523.00     39.03
 60.57   1611.00     40.14
 60.67   1637.00     40.46
 60.77   1560.00     39.50
 60.87   1374.95     37.08
 60.97   1268.00     35.61
 61.07   1151.00     33.93
 61.17   1038.01     32.22
 61.27    960.71     31.00
 61.37    812.00     28.50
 61.47    776.00     27.86
 61.57    740.00     27.20
 61.67    778.00     27.89
 61.77    834.00     28.88
 61.87    840.52     28.99
 61.97    922.00     30.36
 62.07   1023.00     31.98
 62.17   1159.00     34.04
 62.27   1347.00     36.70
 62.37   1539.30     39.23
 62.47   1571.00     39.64
 62.57   1678.76     40.97
 62.67   1658.85     40.73
 62.77   1555.00     39.43
 62.87   1457.48     38.18
 62.97   1195.00     34.57
 63.07   1101.00     33.18
 63.17    999.63     31.62
 63.27    842.00     29.02
 63.37    811.00     28.48
 63.47    754.00     27.46
 63.57    725.00     26.93
 63.67    674.00     25.96
 63.77    682.00     26.12
 63.87    699.00     26.44
 63.97    662.00     25.73
 64.07    675.00     25.98
 64.17    677.00     26.02
 64.27    747.00     27.33
 64.37    792.00     28.14
 64.47    803.76     28.35
 64.57    913.00     30.22
 64.67    989.00     31.45
 64.77   1135.88     33.70
 64.87   1304.00     36.11
 64.97   1390.00     37.28
 65.07   1298.06     36.03
 65.17   1435.34     37.89
 65.27   1383.00     37.19
 65.37   1361.52     36.90
 65.47   1288.00     35.89
 65.57   1120.37     33.47
 65.67   1008.00     31.75
 65.77    921.12     30.35
 65.87    867.00     29.44
 65.97    812.00     28.50
 66.07    754.24     27.46
 66.17    718.00     26.80
 66.27    676.00     26.00
 66.37    697.00     26.40
 66.47    699.78     26.45
 66.57    659.78     25.69
 66.67    712.91     26.70
 66.77    640.58     25.31
 66.87    679.99     26.08
 66.97    666.00     25.81
 67.07    623.00     24.96
 67.17    648.76     25.47
 67.27    674.00     25.96
 67.37    694.00     26.34
 67.47    732.20     27.06
 67.57    777.00     27.87
 67.67    930.29     30.50
 67.77    992.00     31.50
 67.87   1086.00     32.95
 67.97   1337.00     36.57
 68.07   1503.00     38.77
 68.17   1777.00     42.15
 68.27   1981.00     44.51
 68.37   2253.00     47.47
 68.47   2483.00     49.83
 68.57   2575.00     50.74
 68.67   2437.00     49.37
 68.77   2301.86     47.98
 68.87   2086.00     45.67
 68.97   1868.00     43.22
 69.07   1554.73     39.43
 69.17   1403.00     37.46
 69.27   1255.00     35.43
 69.37   1086.41     32.96
 69.47    925.00     30.41
 69.57    809.00     28.44
 69.67    744.62     27.29
 69.77    833.00     28.86
 69.87    750.00     27.39
 69.97    636.33     25.23
 70.07    622.75     24.95
 70.17    698.00     26.42
 70.27    704.46     26.54
 70.37    691.00     26.29
 70.47    676.00     26.00
 70.57    686.00     26.19
 70.67    675.00     25.98
 70.77    659.00     25.67
 70.87    688.78     26.24
 70.97    649.00     25.48
 71.07    659.00     25.67
 71.17    667.00     25.83
 71.27    683.00     26.13
 71.37    739.00     27.18
 71.47    781.59     27.96
 71.57    821.30     28.66
 71.67    834.00     28.88
 71.77    974.00     31.21
 71.87   1145.00     33.84
 71.97   1211.00     34.80
 72.07   1344.00     36.66
 72.17   1531.00     39.13
 72.27   1701.14     41.24
 72.37   1784.60     42.24
 72.47   1930.00     43.93
 72.57   1992.00     44.63
 72.67   1896.17     43.54
 72.77   1782.77     42.22
 72.87   1766.25     42.03
 72.97   1499.20     38.72
 73.07   1322.00     36.36
 73.17   1225.00     35.00
 73.27    988.00     31.43
 73.37    995.69     31.55
 73.47    807.42     28.42
 73.57    746.00     27.31
 73.67    690.00     26.27
 73.77    717.00     26.78
 73.87    673.00     25.94
 73.97    695.00     26.36
 74.07    675.00     25.98
 74.17    687.00     26.21
 74.27    614.29     24.78
 74.37    637.00     25.24
 74.47    640.00     25.30
 74.57    604.67     24.59
 74.67    674.00     25.96
 74.77    663.00     25.75
 74.87    662.00     25.73
 74.97    654.00     25.57
 75.07    655.00     25.59
 75.17    619.72     24.89
 75.27    696.00     26.38
 75.37    715.00     26.74
 75.47    710.00     26.65
 75.57    659.52     25.68
 75.67    676.00     26.00
 75.77    677.65     26.03
 75.87    647.00     25.44
 75.97    663.00     25.75
 76.07    621.00     24.92
 76.17    649.49     25.49
 76.27    634.40     25.19
 76.37    714.28     26.73
 76.47    738.00     27.17
 76.57    759.00     27.55
 76.67    852.36     29.20
 76.77    822.00     28.67
 76.87    894.00     29.90
 76.97    915.00     30.25
 77.07    930.00     30.50
 77.17    945.00     30.74
 77.27    881.00     29.68
 77.37    829.00     28.79
 77.47    820.00     28.64
 77.57    836.23     28.92
 77.67    762.00     27.60
 77.77    748.00     27.35
 77.87    684.00     26.15
 77.97    679.00     26.06
 78.07    622.15     24.94
 78.17    649.62     25.49
 78.27    650.00     25.50
 78.37    673.00     25.94
 78.47    650.44     25.50
 78.57    640.00     25.30
 78.67    638.00     25.26
 78.77    572.49     23.93
 78.87    555.46     23.57
 78.97    564.00     23.75
 79.07    584.00     24.17
 79.17    574.00     23.96
 79.27    601.00     24.52
 79.37    641.34     25.32
 79.47    569.96     23.87
 79.57    598.43     24.46
 79.67    589.00     24.27
 79.77    558.34     23.63
 79.87    590.00     24.29
 79.97    666.00     25.81
 80.07    644.00     25.38
 80.17    566.00     23.79
 80.27    618.10     24.86
 80.37    651.00     25.51
 80.47    642.00     25.34
 80.57    672.43     25.93
 80.67    687.00     26.21
 80.77    752.71     27.44
 80.87    832.00     28.84
 80.97    855.00     29.24
 81.07    854.00     29.22
 81.17    930.00     30.50
 81.27   1059.00     32.54
 81.37   1107.00     33.27
 81.47   1147.34     33.87
 81.57   1098.08     33.14
 81.67   1142.33     33.80
 81.77   1144.89     33.84
 81.87   1137.79     33.73
 81.97   1199.79     34.64
 82.07   1171.00     34.22
 82.17   1077.00     32.82
 82.27   1021.84     31.97
 82.37    983.00     31.35
 82.47    880.23     29.67
 82.57    879.38     29.65
 82.67    838.00     28.95
 82.77    826.85     28.75
 82.87    761.00     27.59
 82.97    743.00     27.26
 83.07    760.43     27.58
 83.17    728.49     26.99
 83.27    648.00     25.46
 83.37    655.00     25.59
 83.47    637.00     25.24
 83.57    637.95     25.26
 83.67    677.10     26.02
 83.77    613.00     24.76
 83.87    598.00     24.45
 83.97    602.00     24.54
 84.07    615.00     24.80
 84.17    635.00     25.20
 84.27    620.00     24.90
 84.37    638.00     25.26
 84.47    615.12     24.80
 84.57    653.00     25.55
 84.67    562.00     23.71
 84.77    649.00     25.48
 84.87    606.00     24.62
 84.97    669.98     25.88
 85.07    601.00     24.52
 85.17    596.00     24.41
 85.27    602.00     24.54
 85.37    578.00     24.04
 85.47    584.00     24.17
 85.57    595.17     24.40
 85.67    631.50     25.13
 85.77    588.00     24.25
 85.87    627.00     25.04
 85.97    579.55     24.07
 86.07    613.00     24.76
 86.17    591.00     24.31
 86.27    620.00     24.90
 86.37    627.91     25.06
 86.47    591.00     24.31
 86.57    588.91     24.27
 86.67    616.00     24.82
 86.77    655.00     25.59
 86.87    640.00     25.30
 86.97    645.94     25.42
 87.07    608.00     24.66
 87.17    653.00     25.55
 87.27    676.11     26.00
 87.37    689.00     26.25
 87.47    677.00     26.02
 87.57    687.00     26.21
 87.67    679.38     26.06
 87.77    659.56     25.68
 87.87    722.23     26.87
 87.97    709.00     26.63
 88.07    683.44     26.14
 88.17    715.00     26.74
 88.27    720.00     26.83
 88.37    709.08     26.63
 88.47    725.00     26.93
 88.57    629.39     25.09
 88.67    665.00     25.79
 88.77    641.00     25.32
 88.87    614.00     24.78
 88.97    642.00     25.34
 89.07    614.00     24.78
 89.17    586.00     24.21
 89.27    583.00     24.15
 89.37    667.40     25.83
 89.47    607.00     24.64
 89.57    649.63     25.49
 89.67    635.00     25.20
 89.77    643.48     25.37
 89.87    664.68     25.78
 89.97    652.00     25.53
 90.07    686.93     26.21
 90.17    644.00     25.38
 90.27    612.80     24.75
 90.37    677.00     26.02
 90.47    618.00     24.86
 90.57    555.00     23.56
 90.67    604.00     24.58
 90.77    647.00     25.44
 90.87    582.81     24.14
 90.97    621.00     24.92
 91.07    594.14     24.37
 91.17    577.49     24.03
 91.27    582.00     24.12
 91.37    601.93     24.53
 91.47    573.00     23.94
 91.57    573.00     23.94
 91.67    599.00     24.47
 91.77    573.00     23.94
 91.87    590.88     24.31
 91.97    585.00     24.19
 92.07    539.72     23.23
 92.17    566.00     23.79
 92.27    594.82     24.39
 92.37    593.98     24.37
 92.47    619.00     24.88
 92.57    587.36     24.24
 92.67    602.00     24.54
 92.77    582.00     24.12
 92.87    641.88     25.34
 92.97    681.53     26.11
 93.07    651.00     25.51
 93.17    638.00     25.26
 93.27    645.77     25.41
 93.37    721.80     26.87
 93.47    712.00     26.68
 93.57    739.00     27.18
 93.67    702.75     26.51
 93.77    793.00     28.16
 93.87    851.31     29.18
 93.97    820.00     28.64
 94.07    774.43     27.83
 94.17    816.00     28.57
 94.27    848.89     29.14
 94.37    866.00     29.43
 94.47    895.00     29.92
 94.57    897.76     29.96
 94.67    935.00     30.58
 94.77    911.00     30.18
 94.87    907.00     30.12
 94.97    984.00     31.37
 95.07    960.16     30.99
 95.17    924.71     30.41
 95.27   1038.97     32.23
 95.37   1054.06     32.47
 95.47   1056.77     32.51
 95.57   1002.00     31.65
 95.67    940.00     30.66
 95.77    882.00     29.70
 95.87    948.00     30.79
 95.97    974.00     31.21
 96.07    865.76     29.42
 96.17    845.94     29.09
 96.27    912.00     30.20
 96.37    870.00     29.50
 96.47    801.00     28.30
 96.57    751.00     27.40
 96.67    818.00     28.60
 96.77    830.00     28.81
 96.87    817.00     28.58
 96.97    763.59     27.63
 97.07    916.00     30.27
 97.17    934.00     30.56
 97.27   1040.00     32.25
 97.37   1050.00     32.40
 97.47   1027.00     32.05
 97.57   1092.12     33.05
 97.67   1230.89     35.08
 97.77   1303.00     36.10
 97.87   1367.00     36.97
 97.97   1451.39     38.10
 98.07   1567.00     39.59
 98.17   1459.65     38.21
 98.27   1611.00     40.14
 98.37   1483.00     38.51
 98.47   1498.18     38.71
 98.57   1536.00     39.19
 98.67   1464.00     38.26
 98.77   1423.00     37.72
 98.87   1299.22     36.04
 98.97   1282.00     35.81
 99.07   1259.00     35.48
 99.17   1145.19     33.84
 99.27   1073.00     32.76
 99.37   1031.21     32.11
 99.47   1034.00     32.16
 99.57    969.29     31.13
 99.67    925.00     30.41
 99.77    948.00     30.79
 99.87   1013.00     31.83
 99.97   1000.00     31.62
100.07   1036.33     32.19
100.17   1075.00     32.79
100.27   1214.00     34.84
100.37   1277.00     35.74
100.47   1350.00     36.74
100.57   1389.00     37.27
100.67   1491.00     38.61
100.77   1617.00     40.21
100.87   1707.00     41.32
100.97   1784.00     42.24
101.07   1829.00     42.77
101.17   2027.00     45.02
101.27   1911.20     43.72
101.37   1952.93     44.19
101.47   2093.00     45.75
101.57   2129.00     46.14
101.67   2122.00     46.07
101.77   2087.00     45.68
101.87   2056.00     45.34
101.97   1981.00     44.51
102.07   1950.00     44.16
102.17   1772.00     42.10
102.27   1869.15     43.23
102.37   1539.00     39.23
102.47   1724.15     41.52
102.57   1516.10     38.94
102.67   1512.88     38.90
102.77   1391.00     37.30
102.87   1420.94     37.70
102.97   1332.53     36.50
103.07   1332.53     36.50
103.17   1244.00     35.27
103.27   1287.02     35.88
103.37   1179.00     34.34
103.47   1278.43     35.76
103.57   1227.09     35.03
103.67   1143.00     33.81
103.77   1124.00     33.53
103.87   1138.98     33.75
103.97   1006.45     31.72
104.07   1015.00     31.86
104.17    929.43     30.49
104.27    944.00     30.72
104.37    905.00     30.08
104.47    839.00     28.97
104.57    844.69     29.06
104.67    806.00     28.39
104.77    731.06     27.04
104.87    758.00     27.53
104.97    709.00     26.63
105.07    654.00     25.57
105.17    601.12     24.52
105.27    618.75     24.87
105.37    661.00     25.71
105.47    649.00     25.48
105.57    572.71     23.93
105.67    607.00     24.64
105.77    608.00     24.66
105.87    566.98     23.81
105.97    618.00     24.86
106.07    575.32     23.99
106.17    598.00     24.45
106.27    617.00     24.84
106.37    601.45     24.52
106.47    607.00     24.64
106.57    639.00     25.28
106.67    664.00     25.77
106.77    569.23     23.86
106.87    639.00     25.28
106.97    634.00     25.18
107.07    627.00     25.04
107.17    638.80     25.27
107.27    655.99     25.61
107.37    671.00     25.90
107.47    710.71     26.66
107.57    700.00     26.46
107.67    723.05     26.89
107.77    705.25     26.56
107.87    752.00     27.42
107.97    743.00     27.26
108.07    702.00     26.50
108.17    810.56     28.47
108.27    736.00     27.13
108.37    745.00     27.29
108.47    750.00     27.39
108.57    706.97     26.59
108.67    781.00     27.95
108.77    741.03     27.22
108.87    765.94     27.68
108.97    692.00     26.31
109.07    744.77     27.29
109.17    757.00     27.51
109.27    758.31     27.54
109.37    749.00     27.37
109.47    711.21     26.67
109.57    708.00     26.61
109.67    749.14     27.37
109.77    743.00     27.26
109.87    730.00     27.02
109.97    731.00     27.04
110.07    703.17     26.52
110.17    692.62     26.32
110.27    731.00     27.04
110.37    781.85     27.96
110.47    722.00     26.87
110.57    734.00     27.09
110.67    698.10     26.42
110.77    671.00     25.90
110.87    664.00     25.77
110.97    652.00     25.53
111.07    641.00     25.32
111.17    641.00     25.32
111.27    625.00     25.00
111.37    584.57     24.18
111.47    555.00     23.56
111.57    638.44     25.27
111.67    625.00     25.00
111.77    607.00     24.64
111.87    624.89     25.00
111.97    561.00     23.69
112.07    574.00     23.96
112.17    610.00     24.70
112.27    622.00     24.94
112.37    571.41     23.90
112.47    571.25     23.90
112.57    611.00     24.72
112.67    576.43     24.01
112.77    595.65     24.41
112.87    603.00     24.56
112.97    621.00     24.92
113.07    545.11     23.35
113.17    601.00     24.52
113.27    554.39     23.55
113.37    608.36     24.66
113.47    620.97     24.92
113.57    654.15     25.58
113.67    624.00     24.98
113.77    609.00     24.68
113.87    581.07     24.11
113.97    624.50     24.99
114.07    618.00     24.86
114.17    659.00     25.67
114.27    628.00     25.06
114.37    634.00     25.18
114.47    678.00     26.04
114.57    716.00     26.76
114.67    706.80     26.59
114.77    776.66     27.87
114.87    819.00     28.62
114.97    872.71     29.54
115.07    905.00     30.08
115.17    939.00     30.64
115.27   1017.00     31.89
115.37   1091.74     33.04
115.47   1264.00     35.55
115.57   1402.00     37.44
115.67   1572.00     39.65
115.77   1772.96     42.11
115.87   1910.00     43.70
115.97   2281.00     47.76
116.07   2542.00     50.42
116.17   2732.49     52.27
116.27   3057.13     55.29
116.37   3473.00     58.93
116.47   3641.00     60.34
116.57   4110.00     64.11
116.67   4647.33     68.17
116.77   4807.91     69.34
116.87   5288.66     72.72
116.97   5765.02     75.93
117.07   5935.94     77.05
117.17   6311.00     79.44
117.27   6631.00     81.43
117.37   6957.00     83.41
117.47   7223.27     84.99
117.57   7309.62     85.50
117.67   7328.67     85.61
117.77   7400.00     86.02
117.87   7373.00     85.87
117.97   7260.12     85.21
118.07   6978.00     83.53
118.17   6677.08     81.71
118.27   6454.00     80.34
118.37   5969.56     77.26
118.47   5548.00     74.48
118.57   5239.19     72.38
118.67   5083.00     71.30
118.77   4699.00     68.55
118.87   4325.00     65.76
118.97   3882.44     62.31
119.07   3637.00     60.31
119.17   3256.00     57.06
119.27   2870.17     53.57
119.37   2624.00     51.22
119.47   2422.77     49.22
119.57   2227.00     47.19
119.67   1991.83     44.63
119.77   1765.00     42.01
119.87   1541.51     39.26
119.97   1539.00     39.23
120.07   1358.12     36.85
120.17   1291.42     35.94
120.27   1188.00     34.47
120.37   1153.00     33.96
120.47   1002.50     31.66
120.57    963.42     31.04
120.67    871.91     29.53
120.77    886.00     29.77
120.87    822.00     28.67
120.97    842.13     29.02
121.07    812.00     28.50
121.17    720.00     26.83
121.27    700.00     26.46
121.37    721.00     26.85
121.47    639.00     25.28
121.57    686.00     26.19
121.67    699.00     26.44
121.77    658.00     25.65
121.87    625.00     25.00
121.97    646.00     25.42
122.07    679.53     26.07
122.17    631.44     25.13
122.27    690.78     26.28
122.37    667.00     25.83
122.47    659.00     25.67
122.57    609.00     24.68
122.67    694.98     26.36
122.77    663.25     25.75
122.87    678.00     26.04
122.97    713.32     26.71
123.07    648.23     25.46
123.17    701.00     26.48
123.27    736.00     27.13
123.37    767.00     27.69
123.47    727.00     26.96
123.57    723.00     26.89
123.67    713.90     26.72
123.77    728.00     26.98
123.87    720.60     26.84
123.97    726.00     26.94
124.07    692.00     26.31
124.17    790.36     28.11
124.27    776.00     27.86
124.37    765.00     27.66
124.47    783.73     28.00
124.57    790.00     28.11
124.67    742.30     27.25
124.77    734.00     27.09
124.87    739.00     27.18
124.97    744.00     27.28
