XYDATA



INTER 1.0 1.0 0 0
TEMP 481.813
  9.97    774.00     27.82
 10.07    728.62     26.99
 10.17    716.69     26.77
 10.27    715.99     26.76
 10.37    727.00     26.96
 10.47    733.00     27.07
 10.57    726.05     26.95
 10.67    702.00     26.50
 10.77    727.00     26.96
 10.87    760.77     27.58
 10.97    726.18     26.95
 11.07    783.00     27.98
 11.17    732.00     27.06
 11.27    759.75     27.56
 11.37    726.00     26.94
 11.47    715.14     26.74
 11.57    761.00     27.59
 11.67    748.00     27.35
 11.77    679.77     26.07
 11.87    822.00     28.67
 11.97    809.00     28.44
 12.07    825.00     28.72
 12.17    914.00     30.23
 12.27    832.62     28.86
 12.37    836.16     28.92
 12.47    812.00     28.50
 12.57    750.36     27.39
 12.67    786.76     28.05
 12.77    685.00     26.17
 12.87    720.00     26.83
 12.97    714.00     26.72
 13.07    686.00     26.19
 13.17    676.00     26.00
 13.27    747.85     27.35
 13.37    710.30     26.65
 13.47    627.00     25.04
 13.57    689.00     26.25
 13.67    645.00     25.40
 13.77    712.85     26.70
 13.87    677.68     26.03
 13.97    715.00     26.74
 14.07    742.00     27.24
 14.17    686.00     26.19
 14.27    625.00     25.00
 14.37    668.00     25.85
 14.47    654.04     25.57
 14.57    651.00     25.51
 14.67    720.00     26.83
 14.77    727.55     26.97
 14.87    667.07     25.83
 14.97    731.00     27.04
 15.07    605.00     24.60
 15.17    676.00     26.00
 15.27    684.00     26.15
 15.37    656.06     25.61
 15.47    653.14     25.56
 15.57    708.87     26.62
 15.67    622.00     24.94
 15.77    677.00     26.02
 15.87    682.00     26.12
 15.97    691.00     26.29
 16.07    656.00     25.61
 16.17    631.00     25.12
 16.27    639.57     25.29
 16.37    671.00     25.90
 16.47    710.68     26.66
 16.57    687.00     26.21
 16.67    622.24     24.94
 16.77    702.67     26.51
 16.87    622.23     24.94
 16.97    716.00     26.76
 17.07    682.78     26.13
 17.17    649.00     25.48
 17.27    651.00     25.51
 17.37    639.00     25.28
 17.47    676.86     26.02
 17.57    630.00     25.10
 17.67    655.00     25.59
 17.77    601.00     24.52
 17.87    659.26     25.68
 17.97    613.00     24.76
 18.07    625.00     25.00
 18.17    661.85     25.73
 18.27    657.00     25.63
 18.37    678.00     26.04
 18.47    635.00     25.20
 18.57    615.70     24.81
 18.67    691.75     26.30
 18.77    613.56     24.77
 18.87    630.00     25.10
 18.97    658.00     25.65
 19.07    633.95     25.18
 19.17    617.88     24.86
 19.27    623.00     24.96
 19.37    636.00     25.22
 19.47    599.81     24.49
 19.57    617.00     24.84
 19.67    641.00     25.32
 19.77    641.25     25.32
 19.87    618.00     24.86
 19.97    628.00     25.06
 20.07    662.00     25.73
 20.17    612.61     24.75
 20.27    673.69     25.96
 20.37    680.62     26.09
 20.47    609.00     24.68
 20.57    686.54     26.20
 20.67    617.00     24.84
 20.77    562.00     23.71
 20.87    627.77     25.06
 20.97    669.46     25.87
 21.07    599.00     24.47
 21.17    651.00     25.51
 21.27    663.14     25.75
 21.37    605.00     24.60
 21.47    629.00     25.08
 21.57    607.00     24.64
 21.67    666.00     25.81
 21.77    621.00     24.92
 21.87    599.00     24.47
 21.97    641.00     25.32
 22.07    614.00     24.78
 22.17    611.00     24.72
 22.27    587.42     24.24
 22.37    637.00     25.24
 22.47    655.16     25.60
 22.57    667.00     25.83
 22.67    662.00     25.73
 22.77    645.00     25.40
 22.87    635.00     25.20
 22.97    668.00     25.85
 23.07    640.00     25.30
 23.17    618.00     24.86
 23.27    666.95     25.83
 23.37    638.00     25.26
 23.47    597.91     24.45
 23.57    632.00     25.14
 23.67    638.00     25.26
 23.77    587.12     24.23
 23.87    681.57     26.11
 23.97    669.30     25.87
 24.07    638.00     25.26
 24.17    641.00     25.32
 24.27    672.00     25.92
 24.37    661.00     25.71
 24.47    648.00     25.46
 24.57    703.00     26.51
 24.67    665.29     25.79
 24.77    703.00     26.51
 24.87    698.00     26.42
 24.97    719.00     26.81
 25.07    673.06     25.94
 25.17    688.00     26.23
 25.27    731.00     27.04
 25.37    642.00     25.34
 25.47    686.27     26.20
 25.57    641.00     25.32
 25.67    626.05     25.02
 25.77    689.35     26.26
 25.87    641.00     25.32
 25.97    695.19     26.37
 26.07    669.00     25.87
 26.17    664.00     25.77
 26.27    657.14     25.63
 26.37    686.00     26.19
 26.47    666.50     25.82
 26.57    692.00     26.31
 26.67    706.60     26.58
 26.77    666.00     25.81
 26.87    685.00     26.17
 26.97    670.00     25.88
 27.07    707.00     26.59
 27.17    690.00     26.27
 27.27    781.00     27.95
 27.37    730.00     27.02
 27.47    748.75     27.36
 27.57    803.00     28.34
 27.67    846.00     29.09
 27.77    933.91     30.56
 27.87   1053.00     32.45
 27.97   1332.00     36.50
 28.07   1970.00     44.38
 28.17   3350.29     57.88
 28.27   5370.00     73.28
 28.37   7577.00     87.05
 28.47   8822.00     93.93
 28.57   8214.68     90.63
 28.67   6473.00     80.45
 28.77   4364.35     66.06
 28.87   3713.00     60.93
 28.97   3875.00     62.25
 29.07   4602.00     67.84
 29.17   4943.00     70.31
 29.27   4531.00     67.31
 29.37   3622.89     60.19
 29.47   2427.00     49.26
 29.57   1717.51     41.44
 29.67   1313.26     36.24
 29.77    961.74     31.01
 29.87    934.00     30.56
 29.97    824.45     28.71
 30.07    834.00     28.88
 30.17    804.00     28.35
 30.27    753.12     27.44
 30.37    702.00     26.50
 30.47    683.58     26.15
 30.57    730.00     27.02
 30.67    681.32     26.10
 30.77    717.00     26.78
 30.87    720.00     26.83
 30.97    776.00     27.86
 31.07    775.97     27.86
 31.17    788.00     28.07
 31.27    835.00     28.90
 31.37    766.56     27.69
 31.47    740.00     27.20
 31.57    687.25     26.22
 31.67    692.00     26.31
 31.77    711.00     26.66
 31.87    671.00     25.90
 31.97    663.00     25.75
 32.07    628.21     25.06
 32.17    651.00     25.51
 32.27    600.53     24.51
 32.37    627.89     25.06
 32.47    578.41     24.05
 32.57    629.00     25.08
 32.67    641.65     25.33
 32.77    615.99     24.82
 32.87    655.00     25.59
 32.97    615.00     24.80
 33.07    644.00     25.38
 33.17    625.00     25.00
 33.27    685.00     26.17
 33.37    642.96     25.36
 33.47    656.57     25.62
 33.57    680.00     26.08
 33.67    703.00     26.51
 33.77    722.92     26.89
 33.87    769.00     27.73
 33.97    901.00     30.02
 34.07    924.92     30.41
 34.17   1142.00     33.79
 34.27   1292.00     35.94
 34.37   1223.08     34.97
 34.47   1225.00     35.00
 34.57   1091.10     33.03
 34.67    873.00     29.55
 34.77    808.00     28.43
 34.87    768.00     27.71
 34.97    650.97     25.51
 35.07    653.44     25.56
 35.17    658.00     25.65
 35.27    675.00     25.98
 35.37    622.08     24.94
 35.47    671.00     25.90
 35.57    614.00     24.78
 35.67    619.34     24.89
 35.77    607.00     24.64
 35.87    578.00     24.04
 35.97    604.00     24.58
 36.07    607.00     24.64
 36.17    616.00     24.82
 36.27    565.49     23.78
 36.37    628.46     25.07
 36.47    652.00     25.53
 36.57    647.00     25.44
 36.67    562.48     23.72
 36.77    638.00     25.26
 36.87    604.52     24.59
 36.97    583.00     24.15
 37.07    573.00     23.94
 37.17    605.42     24.61
 37.27    618.00     24.86
 37.37    618.88     24.88
 37.47    613.04     24.76
 37.57    597.00     24.43
 37.67    640.00     25.30
 37.77    625.50     25.01
 37.87    619.00     24.88
 37.97    638.10     25.26
 38.07    706.00     26.57
 38.17    741.00     27.22
 38.27    761.83     27.60
 38.37    803.18     28.34
 38.47    729.52     27.01
 38.57    708.66     26.62
 38.67    695.00     26.36
 38.77    648.00     25.46
 38.87    660.32     25.70
 38.97    658.52     25.66
 39.07    604.00     24.58
 39.17    592.00     24.33
 39.27    587.00     24.23
 39.37    582.00     24.12
 39.47    642.50     25.35
 39.57    599.00     24.47
 39.67    570.78     23.89
 39.77    635.00     25.20
 39.87    601.10     24.52
 39.97    566.85     23.81
 40.07    613.00     24.76
 40.17    619.00     24.88
 40.27    593.00     24.35
 40.37    607.00     24.64
 40.47    599.00     24.47
 40.57    634.00     25.18
 40.67    621.00     24.92
 40.77    599.00     24.47
 40.87    569.00     23.85
 40.97    570.00     23.87
 41.07    582.00     24.12
 41.17    606.00     24.62
 41.27    638.53     25.27
 41.37    570.00     23.87
 41.47    613.00     24.76
 41.57    634.75     25.19
 41.67    558.04     23.62
 41.77    646.93     25.43
 41.87    584.72     24.18
 41.97    602.00     24.54
 42.07    599.00     24.47
 42.17    561.00     23.69
 42.27    556.00     23.58
 42.37    619.00     24.88
 42.47    605.00     24.60
 42.57    622.00     24.94
 42.67    643.00     25.36
 42.77    703.60     26.53
 42.87    658.92     25.67
 42.97    679.00     26.06
 43.07    732.00     27.06
 43.17    699.40     26.45
 43.27    656.93     25.63
 43.37    679.00     26.06
 43.47    660.00     25.69
 43.57    592.19     24.33
 43.67    656.21     25.62
 43.77    581.00     24.10
 43.87    639.52     25.29
 43.97    633.00     25.16
 44.07    568.05     23.83
 44.17    603.45     24.57
 44.27    556.00     23.58
 44.37    628.51     25.07
 44.47    629.00     25.08
 44.57    603.00     24.56
 44.67    584.00     24.17
 44.77    612.91     24.76
 44.87    599.00     24.47
 44.97    560.73     23.68
 45.07    607.00     24.64
 45.17    618.00     24.86
 45.27    597.00     24.43
 45.37    635.00     25.20
 45.47    598.05     24.46
 45.57    606.00     24.62
 45.67    601.00     24.52
 45.77    626.00     25.02
 45.87    605.00     24.60
 45.97    613.00     24.76
 46.07    644.17     25.38
 46.17    604.00     24.58
 46.27    570.63     23.89
 46.37    629.00     25.08
 46.47    644.97     25.40
 46.57    618.00     24.86
 46.67    624.00     24.98
 46.77    618.00     24.86
 46.87    580.00     24.08
 46.97    653.64     25.57
 47.07    641.51     25.33
 47.17    598.00     24.45
 47.27    568.86     23.85
 47.37    627.30     25.05
 47.47    621.00     24.92
 47.57    673.00     25.94
 47.67    629.89     25.10
 47.77    639.00     25.28
 47.87    618.00     24.86
 47.97    684.00     26.15
 48.07    671.00     25.90
 48.17    650.00     25.50
 48.27    681.68     26.11
 48.37    694.00     26.34
 48.47    687.00     26.21
 48.57    677.00     26.02
 48.67    633.56     25.17
 48.77    654.00     25.57
 48.87    685.00     26.17
 48.97    661.00     25.71
 49.07    651.00     25.51
 49.17    677.75     26.03
 49.27    650.00     25.50
 49.37    676.00     26.00
 49.47    700.00     26.46
 49.57    629.00     25.08
 49.67    687.00     26.21
 49.77    769.20     27.73
 49.87    784.56     28.01
 49.97    935.00     30.58
 50.07   1250.39     35.36
 50.17   1505.00     38.79
 50.27   2002.00     44.74
 50.37   2453.00     49.53
 50.47   2944.00     54.26
 50.57   3208.00     56.64
 50.67   3182.00     56.41
 50.77   2913.00     53.97
 50.87   2359.76     48.58
 50.97   1906.36     43.66
 51.07   1453.00     38.12
 51.17   1234.47     35.14
 51.27    993.00     31.51
 51.37    965.00     31.06
 51.47    804.00     28.35
 51.57    802.00     28.32
 51.67    774.00     27.82
 51.77    767.00     27.69
 51.87    700.00     26.46
 51.97    740.00     27.20
 52.07    687.19     26.21
 52.17    659.76     25.69
 52.27    692.55     26.32
 52.37    689.03     26.25
 52.47    690.00     26.27
 52.57    721.15     26.85
 52.67    678.86     26.05
 52.77    751.00     27.40
 52.87    642.19     25.34
 52.97    673.86     25.96
 53.07    745.00     27.29
 53.17    677.86     26.04
 53.27    758.14     27.53
 53.37    792.00     28.14
 53.47    848.00     29.12
 53.57    959.00     30.97
 53.67   1051.00     32.42
 53.77   1140.00     33.76
 53.87   1263.37     35.54
 53.97   1237.71     35.18
 54.07   1291.00     35.93
 54.17   1287.00     35.87
 54.27   1195.00     34.57
 54.37   1055.42     32.49
 54.47    909.63     30.16
 54.57    825.17     28.73
 54.67    757.96     27.53
 54.77    811.22     28.48
 54.87    718.00     26.80
 54.97    700.00     26.46
 55.07    710.16     26.65
 55.17    642.98     25.36
 55.27    666.00     25.81
 55.37    640.46     25.31
 55.47    694.60     26.36
 55.57    632.00     25.14
 55.67    718.17     26.80
 55.77    684.31     26.16
 55.87    697.00     26.40
 55.97    704.09     26.53
 56.07    760.22     27.57
 56.17    758.00     27.53
 56.27    724.49     26.92
 56.37    805.89     28.39
 56.47    825.00     28.72
 56.57    894.00     29.90
 56.67    991.00     31.48
 56.77   1200.00     34.64
 56.87   1387.00     37.24
 56.97   1772.00     42.10
 57.07   2077.00     45.57
 57.17   2357.94     48.56
 57.27   2616.00     51.15
 57.37   2727.00     52.22
 57.47   2761.00     52.55
 57.57   2508.00     50.08
 57.67   2132.00     46.17
 57.77   1709.72     41.35
 57.87   1534.92     39.18
 57.97   1218.00     34.90
 58.07   1077.00     32.82
 58.17    971.00     31.16
 58.27    858.00     29.29
 58.37    778.05     27.89
 58.47    765.00     27.66
 58.57    872.00     29.53
 58.67    788.00     28.07
 58.77    880.00     29.66
 58.87    925.00     30.41
 58.97   1007.82     31.75
 59.07   1181.00     34.37
 59.17   1229.72     35.07
 59.27   1265.00     35.57
 59.37   1290.00     35.92
 59.47   1306.03     36.14
 59.57   1339.00     36.59
 59.67   1320.00     36.33
 59.77   1289.00     35.90
 59.87   1247.43     35.32
 59.97   1261.00     35.51
 60.07   1314.00     36.25
 60.17   1271.00     35.65
 60.27   1316.28     36.28
 60.37   1385.00     37.22
 60.47   1493.00     38.64
 60.57   1550.00     39.37
 60.67   1692.96     41.15
 60.77   1625.00     40.31
 60.87   1586.00     39.82
 60.97   1491.47     38.62
 61.07   1289.00     35.90
 61.17   1234.00     35.13
 61.27   1062.00     32.59
 61.37    939.00     30.64
 61.47    860.00     29.33
 61.57    832.00     28.84
 61.67    828.00     28.77
 61.77    837.00     28.93
 61.87    919.00     30.32
 61.97    882.98     29.71
 62.07   1004.00     31.69
 62.17   1161.00     34.07
 62.27   1260.00     35.50
 62.37   1415.00     37.62
 62.47   1685.00     41.05
 62.57   1687.00     41.07
 62.67   1849.00     43.00
 62.77   1759.00     41.94
 62.87   1670.88     40.88
 62.97   1625.00     40.31
 63.07   1397.61     37.38
 63.17   1206.63     34.74
 63.27   1175.70     34.29
 63.37   1006.00     31.72
 63.47    913.70     30.23
 63.57    876.00     29.60
 63.67    789.00     28.09
 63.77    792.00     28.14
 63.87    763.00     27.62
 63.97    738.00     27.17
 64.07    719.00     26.81
 64.17    789.72     28.10
 64.27    779.47     27.92
 64.37    858.00     29.29
 64.47    854.66     29.23
 64.57    921.00     30.35
 64.67   1006.00     31.72
 64.77   1142.00     33.79
 64.87   1268.62     35.62
 64.97   1391.76     37.31
 65.07   1510.00     38.86
 65.17   1583.79     39.80
 65.27   1641.00     40.51
 65.37   1671.71     40.89
 65.47   1561.00     39.51
 65.57   1519.00     38.97
 65.67   1312.24     36.22
 65.77   1207.00     34.74
 65.87   1066.00     32.65
 65.97    969.43     31.14
 66.07    852.00     29.19
 66.17    865.18     29.41
 66.27    777.00     27.87
 66.37    787.54     28.06
 66.47    715.00     26.74
 66.57    731.00     27.04
 66.67    725.42     26.93
 66.77    693.00     26.32
 66.87    690.78     26.28
 66.97    670.55     25.90
 67.07    688.77     26.24
 67.17    715.00     26.74
 67.27    769.48     27.74
 67.37    745.64     27.31
 67.47    773.00     27.80
 67.57    830.00     28.81
 67.67    819.00     28.62
 67.77    934.00     30.56
 67.87   1011.59     31.81
 67.97   1116.00     33.41
 68.07   1341.00     36.62
 68.17   1551.00     39.38
 68.27   1682.00     41.01
 68.37   1982.00     44.52
 68.47   2218.00     47.10
 68.57   2493.58     49.94
 68.67   2476.68     49.77
 68.77   2467.16     49.67
 68.87   2370.03     48.68
 68.97   2339.08     48.36
 69.07   1981.23     44.51
 69.17   1803.01     42.46
 69.27   1553.35     39.41
 69.37   1309.00     36.18
 69.47   1205.00     34.71
 69.57   1071.00     32.73
 69.67    997.00     31.58
 69.77    933.00     30.55
 69.87    846.00     29.09
 69.97    801.00     28.30
 70.07    765.90     27.67
 70.17    776.00     27.86
 70.27    734.00     27.09
 70.37    743.11     27.26
 70.47    765.00     27.66
 70.57    698.97     26.44
 70.67    687.00     26.21
 70.77    688.15     26.23
 70.87    714.00     26.72
 70.97    659.79     25.69
 71.07    679.00     26.06
 71.17    755.48     27.49
 71.27    709.00     26.63
 71.37    719.95     26.83
 71.47    792.00     28.14
 71.57    798.00     28.25
 71.67    838.82     28.96
 71.77    931.91     30.53
 71.87    968.00     31.11
 71.97   1100.00     33.17
 72.07   1328.00     36.44
 72.17   1278.00     35.75
 72.27   1569.00     39.61
 72.37   1671.00     40.88
 72.47   1793.68     42.35
 72.57   2017.00     44.91
 72.67   2037.00     45.13
 72.77   2020.00     44.94
 72.87   1918.00     43.79
 72.97   1767.00     42.04
 73.07   1717.00     41.44
 73.17   1528.00     39.09
 73.27   1269.00     35.62
 73.37   1147.00     33.87
 73.47   1036.00     32.19
 73.57    976.39     31.25
 73.67    867.63     29.46
 73.77    856.73     29.27
 73.87    778.00     27.89
 73.97    784.88     28.02
 74.07    723.00     26.89
 74.17    720.00     26.83
 74.27    713.13     26.70
 74.37    673.14     25.94
 74.47    629.28     25.09
 74.57    665.00     25.79
 74.67    654.00     25.57
 74.77    631.00     25.12
 74.87    719.64     26.83
 74.97    674.00     25.96
 75.07    739.00     27.18
 75.17    704.00     26.53
 75.27    709.39     26.63
 75.37    723.00     26.89
 75.47    642.62     25.35
 75.57    639.57     25.29
 75.67    745.00     27.29
 75.77    696.00     26.38
 75.87    729.00     27.00
 75.97    716.00     26.76
 76.07    712.64     26.70
 76.17    675.00     25.98
 76.27    690.00     26.27
 76.37    747.00     27.33
 76.47    784.42     28.01
 76.57    803.00     28.34
 76.67    819.00     28.62
 76.77    905.74     30.10
 76.87    878.00     29.63
 76.97    961.00     31.00
 77.07   1001.30     31.64
 77.17   1011.00     31.80
 77.27   1008.00     31.75
 77.37    999.09     31.61
 77.47   1031.09     32.11
 77.57   1040.00     32.25
 77.67    994.82     31.54
 77.77    878.00     29.63
 77.87    802.08     28.32
 77.97    783.57     27.99
 78.07    781.00     27.95
 78.17    719.00     26.81
 78.27    708.79     26.62
 78.37    640.99     25.32
 78.47    696.17     26.39
 78.57    628.10     25.06
 78.67    651.00     25.51
 78.77    668.00     25.85
 78.87    659.53     25.68
 78.97    667.00     25.83
 79.07    616.00     24.82
 79.17    666.00     25.81
 79.27    594.45     24.38
 79.37    669.00     25.87
 79.47    643.00     25.36
 79.57    627.02     25.04
 79.67    599.00     24.47
 79.77    606.87     24.63
 79.87    592.00     24.33
 79.97    578.00     24.04
 80.07    632.96     25.16
 80.17    651.00     25.51
 80.27    672.44     25.93
 80.37    638.00     25.26
 80.47    637.00     25.24
 80.57    734.00     27.09
 80.67    722.57     26.88
 80.77    768.00     27.71
 80.87    856.00     29.26
 80.97    875.00     29.58
 81.07    969.00     31.13
 81.17   1021.00     31.95
 81.27   1072.80     32.75
 81.37   1246.85     35.31
 81.47   1233.00     35.11
 81.57   1397.00     37.38
 81.67   1480.00     38.47
 81.77   1580.00     39.75
 81.87   1506.00     38.81
 81.97   1535.00     39.18
 82.07   1524.00     39.04
 82.17   1353.00     36.78
 82.27   1282.00     35.81
 82.37   1186.61     34.45
 82.47   1161.94     34.09
 82.57   1092.00     33.05
 82.67   1029.29     32.08
 82.77   1002.00     31.65
 82.87    933.00     30.55
 82.97    909.14     30.15
 83.07    815.00     28.55
 83.17    743.78     27.27
 83.27    726.00     26.94
 83.37    678.00     26.04
 83.47    738.73     27.18
 83.57    636.00     25.22
 83.67    675.00     25.98
 83.77    711.01     26.66
 83.87    671.00     25.90
 83.97    648.00     25.46
 84.07    668.00     25.85
 84.17    670.01     25.88
 84.27    639.00     25.28
 84.37    644.00     25.38
 84.47    686.00     26.19
 84.57    680.00     26.08
 84.67    647.00     25.44
 84.77    663.00     25.75
 84.87    697.00     26.40
 84.97    687.34     26.22
 85.07    641.00     25.32
 85.17    655.00     25.59
 85.27    638.00     25.26
 85.37    688.02     26.23
 85.47    634.00     25.18
 85.57    656.00     25.61
 85.67    580.00     24.08
 85.77    671.82     25.92
 85.87    655.00     25.59
 85.97    679.00     26.06
 86.07    660.00     25.69
 86.17    616.52     24.83
 86.27    660.43     25.70
 86.37    606.00     24.62
 86.47    600.53     24.51
 86.57    601.00     24.52
 86.67    636.00     25.22
 86.77    635.00     25.20
 86.87    703.01     26.51
 86.97    673.70     25.96
 87.07    683.00     26.13
 87.17    707.00     26.59
 87.27    701.05     26.48
 87.37    684.00     26.15
 87.47    642.61     25.35
 87.57    723.00     26.89
 87.67    653.19     25.56
 87.77    728.00     26.98
 87.87    697.11     26.40
 87.97    725.91     26.94
 88.07    752.00     27.42
 88.17    722.15     26.87
 88.27    739.04     27.19
 88.37    685.30     26.18
 88.47    757.00     27.51
 88.57    706.76     26.59
 88.67    743.00     27.26
 88.77    695.00     26.36
 88.87    718.00     26.80
 88.97    665.00     25.79
 89.07    658.00     25.65
 89.17    688.00     26.23
 89.27    708.95     26.63
 89.37    627.00     25.04
 89.47    660.00     25.69
 89.57    670.00     25.88
 89.67    656.00     25.61
 89.77    628.00     25.06
 89.87    694.09     26.35
 89.97    736.00     27.13
 90.07    660.23     25.69
 90.17    663.87     25.77
 90.27    718.00     26.80
 90.37    705.00     26.55
 90.47    631.78     25.14
 90.57    656.00     25.61
 90.67    656.00     25.61
 90.77    653.00     25.55
 90.87    651.13     25.52
 90.97    621.00     24.92
 91.07    677.00     26.02
 91.17    614.00     24.78
 91.27    617.00     24.84
 91.37    588.00     24.25
 91.47    571.00     23.90
 91.57    575.00     23.98
 91.67    559.85     23.66
 91.77    611.00     24.72
 91.87    646.57     25.43
 91.97    619.67     24.89
 92.07    561.00     23.69
 92.17    623.00     24.96
 92.27    585.00     24.19
 92.37    632.71     25.15
 92.47    569.16     23.86
 92.57    571.00     23.90
 92.67    579.00     24.06
 92.77    645.00     25.40
 92.87    632.99     25.16
 92.97    677.41     26.03
 93.07    637.23     25.24
 93.17    624.00     24.98
 93.27    691.00     26.29
 93.37    683.00     26.13
 93.47    708.52     26.62
 93.57    694.00     26.34
 93.67    772.00     27.78
 93.77    768.28     27.72
 93.87    765.00     27.66
 93.97    766.60     27.69
 94.07    820.00     28.64
 94.17    801.13     28.30
 94.27    850.00     29.15
 94.37    918.00     30.30
 94.47    874.31     29.57
 94.57    916.56     30.27
 94.67    901.00     30.02
 94.77    942.00     30.69
 94.87    974.00     31.21
 94.97    936.00     30.59
 95.07   1028.00     32.06
 95.17   1019.86     31.94
 95.27   1025.00     32.02
 95.37   1020.00     31.94
 95.47   1080.00     32.86
 95.57   1033.54     32.15
 95.67   1049.00     32.39
 95.77   1063.00     32.60
 95.87   1051.00     32.42
 95.97    961.07     31.00
 96.07    939.84     30.66
 96.17    995.00     31.54
 96.27    932.00     30.53
 96.37    948.00     30.79
 96.47    911.00     30.18
 96.57    865.00     29.41
 96.67    840.00     28.98
 96.77    806.75     28.40
 96.87    860.00     29.33
 96.97    842.00     29.02
 97.07    856.00     29.26
 97.17    839.90     28.98
 97.27    886.00     29.77
 97.37    957.14     30.94
 97.47   1035.95     32.19
 97.57    991.09     31.48
 97.67   1139.00     33.75
 97.77   1184.00     34.41
 97.87   1240.23     35.22
 97.97   1257.55     35.46
 98.07   1329.17     36.46
 98.17   1549.00     39.36
 98.27   1602.00     40.02
 98.37   1509.46     38.85
 98.47   1669.99     40.87
 98.57   1630.00     40.37
 98.67   1598.00     39.97
 98.77   1562.00     39.52
 98.87   1536.60     39.20
 98.97   1475.00     38.41
 99.07   1334.00     36.52
 99.17   1285.87     35.86
 99.27   1302.00     36.08
 99.37   1183.61     34.40
 99.47   1150.48     33.92
 99.57   1068.60     32.69
 99.67   1098.00     33.14
 99.77   1017.39     31.90
 99.87   1044.14     32.31
 99.97    986.94     31.42
100.07   1064.00     32.62
100.17    996.00     31.56
100.27   1113.42     33.37
100.37   1167.00     34.16
100.47   1181.00     34.37
100.57   1236.00     35.16
100.67   1368.00     36.99
100.77   1435.00     37.88
100.87   1496.00     38.68
100.97   1682.00     41.01
101.07   1652.40     40.65
101.17   1830.00     42.78
101.27   1927.23     43.90
101.37   1975.14     44.44
101.47   1991.00     44.62
101.57   2108.00     45.91
101.67   2168.00     46.56
101.77   2203.00     46.94
101.87   2203.00     46.94
101.97   2173.00     46.62
102.07   2029.59     45.05
102.17   2013.00     44.87
102.27   2042.00     45.19
102.37   1989.74     44.61
102.47   1835.38     42.84
102.57   1800.00     42.43
102.67   1708.00     41.33
102.77   1686.00     41.06
102.87   1605.00     40.06
102.97   1470.00     38.34
103.07   1473.86     38.39
103.17   1467.41     38.31
103.27   1393.00     37.32
103.37   1382.00     37.18
103.47   1287.00     35.87
103.57   1293.00     35.96
103.67   1298.00     36.03
103.77   1241.00     35.23
103.87   1189.00     34.48
103.97   1154.00     33.97
104.07   1156.00     34.00
104.17   1105.00     33.24
104.27   1055.00     32.48
104.37   1077.00     32.82
104.47    944.87     30.74
104.57    960.85     31.00
104.67    927.56     30.46
104.77    866.50     29.44
104.87    843.00     29.03
104.97    834.00     28.88
105.07    708.89     26.63
105.17    776.66     27.87
105.27    768.00     27.71
105.37    741.00     27.22
105.47    680.00     26.08
105.57    678.59     26.05
105.67    650.00     25.50
105.77    614.96     24.80
105.87    649.00     25.48
105.97    632.61     25.15
106.07    630.02     25.10
106.17    586.67     24.22
106.27    642.00     25.34
106.37    656.00     25.61
106.47    604.00     24.58
106.57    653.00     25.55
106.67    627.00     25.04
106.77    598.65     24.47
106.87    660.00     25.69
106.97    591.99     24.33
107.07    636.02     25.22
107.17    650.00     25.50
107.27    654.24     25.58
107.37    703.00     26.51
107.47    759.00     27.55
107.57    728.00     26.98
107.67    740.00     27.20
107.77    696.00     26.38
107.87    723.00     26.89
107.97    724.00     26.91
108.07    738.00     27.17
108.17    766.00     27.68
108.27    760.00     27.57
108.37    760.51     27.58
108.47    747.72     27.34
108.57    805.00     28.37
108.67    777.00     27.87
108.77    736.00     27.13
108.87    802.60     28.33
108.97    755.00     27.48
109.07    798.00     28.25
109.17    756.11     27.50
109.27    729.00     27.00
109.37    775.89     27.85
109.47    751.00     27.40
109.57    757.87     27.53
109.67    767.00     27.69
109.77    760.00     27.57
109.87    776.00     27.86
109.97    747.40     27.34
110.07    767.00     27.69
110.17    816.12     28.57
110.27    803.28     28.34
110.37    792.00     28.14
110.47    765.99     27.68
110.57    793.00     28.16
110.67    733.00     27.07
110.77    760.04     27.57
110.87    689.00     26.25
110.97    706.00     26.57
111.07    723.00     26.89
111.17    724.00     26.91
111.27    706.00     26.57
111.37    693.00     26.32
111.47    701.00     26.48
111.57    660.00     25.69
111.67    667.00     25.83
111.77    638.00     25.26
111.87    686.36     26.20
111.97    684.36     26.16
112.07    633.00     25.16
112.17    664.12     25.77
112.27    668.00     25.85
112.37    605.29     24.60
112.47    646.00     25.42
112.57    577.82     24.04
112.67    635.00     25.20
112.77    613.00     24.76
112.87    619.86     24.90
112.97    598.83     24.47
113.07    588.00     24.25
113.17    629.20     25.08
113.27    584.00     24.17
113.37    639.87     25.30
113.47    650.79     25.51
113.57    648.00     25.46
113.67    601.38     24.52
113.77    651.00     25.51
113.87    690.85     26.28
113.97    612.29     24.74
114.07    663.00     25.75
114.17    700.00     26.46
114.27    648.00     25.46
114.37    670.00     25.88
114.47    661.23     25.71
114.57    687.68     26.22
114.67    713.23     26.71
114.77    723.00     26.89
114.87    799.63     28.28
114.97    835.67     28.91
115.07    789.65     28.10
115.17    864.00     29.39
115.27    906.19     30.10
115.37   1012.98     31.83
115.47   1040.00     32.25
115.57   1128.00     33.59
115.67   1286.10     35.86
115.77   1394.00     37.34
115.87   1508.50     38.84
115.97   1655.17     40.68
116.07   1794.00     42.36
116.17   2178.80     46.68
116.27   2345.00     48.43
116.37   2665.99     51.63
116.47   2833.52     53.23
116.57   3449.00     58.73
116.67   3542.00     59.51
116.77   3919.00     62.60
116.87   4260.00     65.27
116.97   4661.00     68.27
117.07   5045.00     71.03
117.17   5472.00     73.97
117.27   5804.23     76.19
117.37   6207.00     78.78
117.47   6612.00     81.31
117.57   7087.00     84.18
117.67   7107.62     84.31
117.77   7251.41     85.16
117.87   7629.09     87.34
117.97   7620.93     87.30
118.07   7428.71     86.19
118.17   7633.00     87.37
118.27   7537.00     86.82
118.37   7139.00     84.49
118.47   6892.00     83.02
118.57   6737.00     82.08
118.67   6490.69     80.56
118.77   5879.33     76.68
118.87   5646.00     75.14
118.97   5209.00     72.17
119.07   4863.30     69.74
119.17   4527.00     67.28
119.27   4057.10     63.70
119.37   3820.00     61.81
119.47   3515.00     59.29
119.57   3126.77     55.92
119.67   2836.00     53.25
119.77   2575.61     50.75
119.87   2329.00     48.26
119.97   2058.81     45.37
120.07   1837.98     42.87
120.17   1711.00     41.36
120.27   1662.00     40.77
120.37   1436.00     37.89
120.47   1327.00     36.43
120.57   1229.00     35.06
120.67   1234.00     35.13
120.77   1111.00     33.33
120.87   1049.00     32.39
120.97    978.00     31.27
121.07    880.13     29.67
121.17    959.00     30.97
121.27    904.00     30.07
121.37    854.00     29.22
121.47    844.50     29.06
121.57    788.00     28.07
121.67    761.33     27.59
121.77    781.00     27.95
121.87    732.00     27.06
121.97    721.33     26.86
122.07    733.19     27.08
122.17    700.00     26.46
122.27    711.00     26.66
122.37    708.00     26.61
122.47    746.51     27.32
122.57    688.00     26.23
122.67    652.00     25.53
122.77    742.39     27.25
122.87    693.00     26.32
122.97    727.48     26.97
123.07    733.00     27.07
123.17    684.00     26.15
123.27    723.00     26.89
123.37    702.00     26.50
123.47    710.16     26.65
123.57    734.00     27.09
123.67    791.00     28.12
123.77    771.00     27.77
123.87    813.94     28.53
123.97    802.00     28.32
124.07    812.00     28.50
124.17    758.08     27.53
124.27    798.58     28.26
124.37    801.00     28.30
124.47    782.00     27.96
124.57    847.00     29.10
124.67    740.95     27.22
124.77    859.00     29.31
124.87    736.87     27.15
124.97    824.59     28.72
