XYDATA



INTER 1.0 1.0 0 0
TEMP 558.451
  9.97    711.00     26.66
 10.07    700.00     26.46
 10.17    667.86     25.84
 10.27    783.00     27.98
 10.37    720.00     26.83
 10.47    711.00     26.66
 10.57    680.00     26.08
 10.67    733.00     27.07
 10.77    688.00     26.23
 10.87    708.23     26.61
 10.97    697.00     26.40
 11.07    697.00     26.40
 11.17    721.02     26.85
 11.27    668.86     25.86
 11.37    724.00     26.91
 11.47    705.44     26.56
 11.57    746.00     27.31
 11.67    793.00     28.16
 11.77    752.00     27.42
 11.87    801.00     28.30
 11.97    713.52     26.71
 12.07    733.80     27.09
 12.17    818.00     28.60
 12.27    810.00     28.46
 12.37    836.00     28.91
 12.47    810.00     28.46
 12.57    778.00     27.89
 12.67    711.00     26.66
 12.77    671.00     25.90
 12.87    724.62     26.92
 12.97    667.20     25.83
 13.07    635.00     25.20
 13.17    642.45     25.35
 13.27    685.00     26.17
 13.37    634.00     25.18
 13.47    628.00     25.06
 13.57    630.00     25.10
 13.67    694.00     26.34
 13.77    650.00     25.50
 13.87    663.00     25.75
 13.97    691.54     26.30
 14.07    645.00     25.40
 14.17    704.21     26.54
 14.27    716.71     26.77
 14.37    694.00     26.34
 14.47    708.87     26.62
 14.57    627.06     25.04
 14.67    613.72     24.77
 14.77    660.00     25.69
 14.87    615.00     24.80
 14.97    701.66     26.49
 15.07    673.33     25.95
 15.17    626.72     25.03
 15.27    632.00     25.14
 15.37    625.89     25.02
 15.47    668.00     25.85
 15.57    665.86     25.80
 15.67    642.00     25.34
 15.77    661.02     25.71
 15.87    697.00     26.40
 15.97    669.00     25.87
 16.07    669.00     25.87
 16.17    660.00     25.69
 16.27    634.00     25.18
 16.37    616.77     24.83
 16.47    637.00     25.24
 16.57    641.00     25.32
 16.67    611.20     24.72
 16.77    641.00     25.32
 16.87    617.35     24.85
 16.97    628.00     25.06
 17.07    603.00     24.56
 17.17    666.00     25.81
 17.27    643.00     25.36
 17.37    622.00     24.94
 17.47    677.86     26.04
 17.57    646.00     25.42
 17.67    647.00     25.44
 17.77    604.02     24.58
 17.87    625.00     25.00
 17.97    658.89     25.67
 18.07    618.38     24.87
 18.17    618.03     24.86
 18.27    574.00     23.96
 18.37    646.00     25.42
 18.47    662.93     25.75
 18.57    642.00     25.34
 18.67    655.00     25.59
 18.77    622.00     24.94
 18.87    601.89     24.53
 18.97    599.91     24.49
 19.07    665.56     25.80
 19.17    612.00     24.74
 19.27    591.33     24.32
 19.37    642.87     25.35
 19.47    670.00     25.88
 19.57    615.27     24.80
 19.67    607.13     24.64
 19.77    586.00     24.21
 19.87    590.61     24.30
 19.97    647.00     25.44
 20.07    609.00     24.68
 20.17    669.38     25.87
 20.27    574.00     23.96
 20.37    582.00     24.12
 20.47    672.97     25.94
 20.57    610.97     24.72
 20.67    641.00     25.32
 20.77    598.00     24.45
 20.87    582.00     24.12
 20.97    656.98     25.63
 21.07    600.00     24.49
 21.17    641.44     25.33
 21.27    645.71     25.41
 21.37    578.00     24.04
 21.47    669.81     25.88
 21.57    583.44     24.15
 21.67    598.00     24.45
 21.77    610.00     24.70
 21.87    644.00     25.38
 21.97    596.99     24.43
 22.07    661.52     25.72
 22.17    631.50     25.13
 22.27    636.00     25.22
 22.37    604.00     24.58
 22.47    623.00     24.96
 22.57    566.00     23.79
 22.67    610.00     24.70
 22.77    615.00     24.80
 22.87    567.00     23.81
 22.97    593.74     24.37
 23.07    619.00     24.88
 23.17    616.00     24.82
 23.27    604.00     24.58
 23.37    567.00     23.81
 23.47    640.00     25.30
 23.57    629.00     25.08
 23.67    577.00     24.02
 23.77    617.80     24.86
 23.87    629.00     25.08
 23.97    609.00     24.68
 24.07    598.00     24.45
 24.17    626.00     25.02
 24.27    602.34     24.54
 24.37    588.00     24.25
 24.47    648.00     25.46
 24.57    672.63     25.94
 24.67    663.33     25.76
 24.77    674.00     25.96
 24.87    718.00     26.80
 24.97    723.00     26.89
 25.07    651.99     25.53
 25.17    686.00     26.19
 25.27    658.00     25.65
 25.37    698.00     26.42
 25.47    613.00     24.76
 25.57    670.00     25.88
 25.67    651.00     25.51
 25.77    617.00     24.84
 25.87    628.17     25.06
 25.97    657.59     25.64
 26.07    586.00     24.21
 26.17    586.75     24.22
 26.27    625.00     25.00
 26.37    624.00     24.98
 26.47    634.00     25.18
 26.57    634.00     25.18
 26.67    683.73     26.15
 26.77    608.00     24.66
 26.87    688.00     26.23
 26.97    674.00     25.96
 27.07    659.08     25.67
 27.17    653.00     25.55
 27.27    696.00     26.38
 27.37    707.61     26.60
 27.47    741.00     27.22
 27.57    745.46     27.30
 27.67    829.80     28.81
 27.77    840.00     28.98
 27.87   1052.51     32.44
 27.97   1349.00     36.73
 28.07   2123.90     46.09
 28.17   3211.78     56.67
 28.27   5003.85     70.74
 28.37   6700.00     81.85
 28.47   7309.00     85.49
 28.57   6477.00     80.48
 28.67   4882.00     69.87
 28.77   3566.00     59.72
 28.87   3129.00     55.94
 28.97   3505.00     59.20
 29.07   3777.77     61.46
 29.17   4118.00     64.17
 29.27   3709.39     60.90
 29.37   2703.00     51.99
 29.47   1924.00     43.86
 29.57   1315.00     36.26
 29.67   1075.02     32.79
 29.77    946.00     30.76
 29.87    787.42     28.06
 29.97    746.79     27.33
 30.07    780.80     27.94
 30.17    788.00     28.07
 30.27    728.00     26.98
 30.37    688.00     26.23
 30.47    618.53     24.87
 30.57    692.00     26.31
 30.67    613.46     24.77
 30.77    747.00     27.33
 30.87    681.00     26.10
 30.97    754.00     27.46
 31.07    792.00     28.14
 31.17    733.00     27.07
 31.27    743.00     27.26
 31.37    761.75     27.60
 31.47    661.18     25.71
 31.57    638.06     25.26
 31.67    685.89     26.19
 31.77    630.38     25.11
 31.87    621.00     24.92
 31.97    627.00     25.04
 32.07    628.00     25.06
 32.17    653.70     25.57
 32.27    668.00     25.85
 32.37    618.00     24.86
 32.47    628.12     25.06
 32.57    633.00     25.16
 32.67    605.95     24.62
 32.77    613.00     24.76
 32.87    599.00     24.47
 32.97    617.00     24.84
 33.07    599.00     24.47
 33.17    644.00     25.38
 33.27    642.00     25.34
 33.37    656.21     25.62
 33.47    634.00     25.18
 33.57    660.00     25.69
 33.67    662.00     25.73
 33.77    673.00     25.94
 33.87    721.00     26.85
 33.97    826.00     28.74
 34.07    959.00     30.97
 34.17   1143.61     33.82
 34.27   1237.00     35.17
 34.37   1217.00     34.89
 34.47   1129.16     33.60
 34.57   1003.00     31.67
 34.67    876.00     29.60
 34.77    727.00     26.96
 34.87    657.07     25.63
 34.97    707.00     26.59
 35.07    677.00     26.02
 35.17    667.00     25.83
 35.27    658.00     25.65
 35.37    620.00     24.90
 35.47    595.00     24.39
 35.57    647.40     25.44
 35.67    630.00     25.10
 35.77    608.00     24.66
 35.87    616.00     24.82
 35.97    592.70     24.35
 36.07    568.85     23.85
 36.17    555.95     23.58
 36.27    568.58     23.84
 36.37    575.00     23.98
 36.47    601.00     24.52
 36.57    593.73     24.37
 36.67    611.96     24.74
 36.77    560.71     23.68
 36.87    607.60     24.65
 36.97    581.00     24.10
 37.07    602.29     24.54
 37.17    566.00     23.79
 37.27    574.00     23.96
 37.37    630.94     25.12
 37.47    633.00     25.16
 37.57    612.00     24.74
 37.67    597.00     24.43
 37.77    613.24     24.76
 37.87    652.00     25.53
 37.97    658.00     25.65
 38.07    698.00     26.42
 38.17    789.00     28.09
 38.27    751.82     27.42
 38.37    742.00     27.24
 38.47    725.00     26.93
 38.57    667.00     25.83
 38.67    640.00     25.30
 38.77    606.00     24.62
 38.87    582.00     24.12
 38.97    563.00     23.73
 39.07    610.34     24.70
 39.17    574.00     23.96
 39.27    607.00     24.64
 39.37    583.53     24.16
 39.47    592.00     24.33
 39.57    553.52     23.53
 39.67    622.68     24.95
 39.77    561.93     23.71
 39.87    571.00     23.90
 39.97    622.00     24.94
 40.07    556.00     23.58
 40.17    560.78     23.68
 40.27    580.00     24.08
 40.37    593.00     24.35
 40.47    623.38     24.97
 40.57    589.00     24.27
 40.67    560.95     23.68
 40.77    567.00     23.81
 40.87    571.00     23.90
 40.97    586.00     24.21
 41.07    557.00     23.60
 41.17    621.54     24.93
 41.27    576.00     24.00
 41.37    545.00     23.35
 41.47    597.00     24.43
 41.57    551.00     23.47
 41.67    543.56     23.31
 41.77    569.00     23.85
 41.87    591.00     24.31
 41.97    558.00     23.62
 42.07    596.00     24.41
 42.17    601.12     24.52
 42.27    582.00     24.12
 42.37    551.14     23.48
 42.47    580.00     24.08
 42.57    592.00     24.33
 42.67    635.00     25.20
 42.77    620.37     24.91
 42.87    656.00     25.61
 42.97    699.00     26.44
 43.07    751.08     27.41
 43.17    732.38     27.06
 43.27    690.95     26.29
 43.37    647.00     25.44
 43.47    574.00     23.96
 43.57    618.00     24.86
 43.67    592.31     24.34
 43.77    575.36     23.99
 43.87    590.00     24.29
 43.97    610.00     24.70
 44.07    556.05     23.58
 44.17    560.00     23.66
 44.27    579.00     24.06
 44.37    607.00     24.64
 44.47    570.04     23.88
 44.57    549.33     23.44
 44.67    594.00     24.37
 44.77    613.07     24.76
 44.87    611.00     24.72
 44.97    589.00     24.27
 45.07    560.48     23.67
 45.17    610.00     24.70
 45.27    575.63     23.99
 45.37    583.00     24.15
 45.47    552.68     23.51
 45.57    569.99     23.87
 45.67    597.00     24.43
 45.77    609.00     24.68
 45.87    580.00     24.08
 45.97    573.06     23.94
 46.07    553.00     23.52
 46.17    558.00     23.62
 46.27    608.00     24.66
 46.37    621.00     24.92
 46.47    639.00     25.28
 46.57    592.00     24.33
 46.67    600.00     24.49
 46.77    544.97     23.34
 46.87    617.00     24.84
 46.97    628.19     25.06
 47.07    654.00     25.57
 47.17    557.00     23.60
 47.27    607.84     24.65
 47.37    620.13     24.90
 47.47    647.00     25.44
 47.57    572.00     23.92
 47.67    583.00     24.15
 47.77    618.00     24.86
 47.87    632.00     25.14
 47.97    665.00     25.79
 48.07    631.32     25.13
 48.17    660.00     25.69
 48.27    707.08     26.59
 48.37    687.00     26.21
 48.47    631.05     25.12
 48.57    685.00     26.17
 48.67    653.68     25.57
 48.77    588.00     24.25
 48.87    656.26     25.62
 48.97    588.00     24.25
 49.07    576.00     24.00
 49.17    595.14     24.40
 49.27    590.35     24.30
 49.37    638.35     25.27
 49.47    647.00     25.44
 49.57    651.00     25.51
 49.67    649.12     25.48
 49.77    789.00     28.09
 49.87    857.00     29.27
 49.97    963.00     31.03
 50.07   1227.00     35.03
 50.17   1642.00     40.52
 50.27   2098.00     45.80
 50.37   2473.00     49.73
 50.47   2873.00     53.60
 50.57   2972.00     54.52
 50.67   2879.64     53.66
 50.77   2596.00     50.95
 50.87   2032.35     45.08
 50.97   1613.44     40.17
 51.07   1307.70     36.16
 51.17   1070.10     32.71
 51.27    900.00     30.00
 51.37    830.70     28.82
 51.47    742.00     27.24
 51.57    783.00     27.98
 51.67    726.63     26.96
 51.77    716.00     26.76
 51.87    731.98     27.06
 51.97    655.00     25.59
 52.07    671.00     25.90
 52.17    638.26     25.26
 52.27    671.00     25.90
 52.37    682.50     26.12
 52.47    617.01     24.84
 52.57    638.49     25.27
 52.67    679.00     26.06
 52.77    678.00     26.04
 52.87    648.00     25.46
 52.97    623.20     24.96
 53.07    680.01     26.08
 53.17    714.17     26.72
 53.27    718.80     26.81
 53.37    786.00     28.04
 53.47    938.00     30.63
 53.57    957.00     30.94
 53.67   1083.00     32.91
 53.77   1189.87     34.49
 53.87   1316.08     36.28
 53.97   1273.00     35.68
 54.07   1219.93     34.93
 54.17   1121.00     33.48
 54.27   1035.00     32.17
 54.37   1029.60     32.09
 54.47    821.11     28.66
 54.57    810.00     28.46
 54.67    768.00     27.71
 54.77    751.42     27.41
 54.87    686.00     26.19
 54.97    639.50     25.29
 55.07    674.00     25.96
 55.17    686.00     26.19
 55.27    648.80     25.47
 55.37    665.95     25.81
 55.47    656.95     25.63
 55.57    610.00     24.70
 55.67    676.43     26.01
 55.77    668.00     25.85
 55.87    714.75     26.73
 55.97    659.00     25.67
 56.07    649.00     25.48
 56.17    750.67     27.40
 56.27    703.00     26.51
 56.37    762.00     27.60
 56.47    819.32     28.62
 56.57    901.00     30.02
 56.67   1108.20     33.29
 56.77   1286.27     35.86
 56.87   1575.00     39.69
 56.97   1921.81     43.84
 57.07   2177.01     46.66
 57.17   2548.00     50.48
 57.27   2711.00     52.07
 57.37   2708.00     52.04
 57.47   2563.00     50.63
 57.57   2234.00     47.27
 57.67   1842.00     42.92
 57.77   1548.00     39.34
 57.87   1236.03     35.16
 57.97   1146.25     33.86
 58.07   1007.83     31.75
 58.17    814.00     28.53
 58.27    835.00     28.90
 58.37    729.86     27.02
 58.47    790.94     28.12
 58.57    866.24     29.43
 58.67    903.74     30.06
 58.77    876.00     29.60
 58.87   1039.45     32.24
 58.97   1015.00     31.86
 59.07   1128.33     33.59
 59.17   1175.43     34.28
 59.27   1193.00     34.54
 59.37   1220.00     34.93
 59.47   1330.00     36.47
 59.57   1327.00     36.43
 59.67   1289.00     35.90
 59.77   1294.81     35.98
 59.87   1237.00     35.17
 59.97   1247.48     35.32
 60.07   1259.00     35.48
 60.17   1254.00     35.41
 60.27   1334.00     36.52
 60.37   1437.67     37.92
 60.47   1560.00     39.50
 60.57   1640.00     40.50
 60.67   1635.00     40.44
 60.77   1518.00     38.96
 60.87   1487.00     38.56
 60.97   1359.72     36.87
 61.07   1230.00     35.07
 61.17   1035.00     32.17
 61.27    993.00     31.51
 61.37    932.09     30.53
 61.47    832.00     28.84
 61.57    754.72     27.47
 61.67    807.94     28.42
 61.77    822.36     28.68
 61.87    838.00     28.95
 61.97    943.28     30.71
 62.07   1064.67     32.63
 62.17   1131.00     33.63
 62.27   1301.00     36.07
 62.37   1445.00     38.01
 62.47   1604.92     40.06
 62.57   1636.83     40.46
 62.67   1644.10     40.55
 62.77   1627.00     40.34
 62.87   1518.00     38.96
 62.97   1395.00     37.35
 63.07   1144.00     33.82
 63.17   1120.00     33.47
 63.27    941.00     30.68
 63.37    876.00     29.60
 63.47    755.41     27.48
 63.57    794.00     28.18
 63.67    668.11     25.85
 63.77    675.80     26.00
 63.87    674.00     25.96
 63.97    752.00     27.42
 64.07    674.87     25.98
 64.17    680.00     26.08
 64.27    746.81     27.33
 64.37    790.00     28.11
 64.47    822.75     28.68
 64.57    904.00     30.07
 64.67   1022.00     31.97
 64.77   1188.00     34.47
 64.87   1217.32     34.89
 64.97   1324.77     36.40
 65.07   1407.47     37.52
 65.17   1525.75     39.06
 65.27   1505.00     38.79
 65.37   1490.00     38.60
 65.47   1367.00     36.97
 65.57   1276.00     35.72
 65.67   1153.00     33.96
 65.77   1060.00     32.56
 65.87    972.00     31.18
 65.97    854.00     29.22
 66.07    816.00     28.57
 66.17    772.00     27.78
 66.27    676.00     26.00
 66.37    726.00     26.94
 66.47    678.00     26.04
 66.57    700.00     26.46
 66.67    674.00     25.96
 66.77    655.00     25.59
 66.87    641.00     25.32
 66.97    639.97     25.30
 67.07    637.00     25.24
 67.17    666.44     25.82
 67.27    746.00     27.31
 67.37    722.00     26.87
 67.47    713.00     26.70
 67.57    803.00     28.34
 67.67    835.00     28.90
 67.77    905.00     30.08
 67.87   1077.58     32.83
 67.97   1285.00     35.85
 68.07   1377.00     37.11
 68.17   1766.89     42.03
 68.27   1996.32     44.68
 68.37   2180.00     46.69
 68.47   2392.00     48.91
 68.57   2524.00     50.24
 68.67   2630.00     51.28
 68.77   2457.00     49.57
 68.87   2269.32     47.64
 68.97   2036.00     45.12
 69.07   1802.85     42.46
 69.17   1593.00     39.91
 69.27   1383.00     37.19
 69.37   1116.50     33.41
 69.47   1028.00     32.06
 69.57    977.00     31.26
 69.67    906.00     30.10
 69.77    882.00     29.70
 69.87    823.00     28.69
 69.97    690.37     26.27
 70.07    780.00     27.93
 70.17    652.67     25.55
 70.27    686.00     26.19
 70.37    675.00     25.98
 70.47    680.00     26.08
 70.57    724.00     26.91
 70.67    691.64     26.30
 70.77    646.00     25.42
 70.87    776.00     27.86
 70.97    684.00     26.15
 71.07    669.96     25.88
 71.17    657.58     25.64
 71.27    653.88     25.57
 71.37    727.00     26.96
 71.47    796.00     28.21
 71.57    742.20     27.24
 71.67    796.29     28.22
 71.77    897.00     29.95
 71.87   1019.00     31.92
 71.97   1169.00     34.19
 72.07   1284.00     35.83
 72.17   1432.00     37.84
 72.27   1593.00     39.91
 72.37   1788.00     42.28
 72.47   1813.00     42.58
 72.57   1939.00     44.03
 72.67   1999.61     44.72
 72.77   1973.00     44.42
 72.87   1694.00     41.16
 72.97   1596.29     39.95
 73.07   1469.00     38.33
 73.17   1286.00     35.86
 73.27   1100.39     33.17
 73.37   1006.07     31.72
 73.47    904.00     30.07
 73.57    810.54     28.47
 73.67    738.00     27.17
 73.77    747.00     27.33
 73.87    742.00     27.24
 73.97    678.17     26.04
 74.07    707.00     26.59
 74.17    665.10     25.79
 74.27    690.63     26.28
 74.37    678.17     26.04
 74.47    654.08     25.58
 74.57    658.00     25.65
 74.67    643.00     25.36
 74.77    701.00     26.48
 74.87    692.00     26.31
 74.97    675.17     25.98
 75.07    695.00     26.36
 75.17    671.00     25.90
 75.27    710.00     26.65
 75.37    720.00     26.83
 75.47    617.31     24.85
 75.57    615.50     24.81
 75.67    707.00     26.59
 75.77    689.00     26.25
 75.87    668.00     25.85
 75.97    653.00     25.55
 76.07    666.49     25.82
 76.17    690.00     26.27
 76.27    674.03     25.96
 76.37    728.02     26.98
 76.47    774.36     27.83
 76.57    752.00     27.42
 76.67    839.02     28.97
 76.77    802.83     28.33
 76.87    898.75     29.98
 76.97    948.00     30.79
 77.07    983.00     31.35
 77.17    990.00     31.46
 77.27   1017.11     31.89
 77.37    925.59     30.42
 77.47    976.07     31.24
 77.57    876.04     29.60
 77.67    861.03     29.34
 77.77    844.00     29.05
 77.87    799.32     28.27
 77.97    733.60     27.08
 78.07    708.00     26.61
 78.17    672.60     25.93
 78.27    664.00     25.77
 78.37    621.76     24.94
 78.47    673.00     25.94
 78.57    667.00     25.83
 78.67    578.56     24.05
 78.77    628.61     25.07
 78.87    647.00     25.44
 78.97    604.00     24.58
 79.07    640.00     25.30
 79.17    653.53     25.56
 79.27    648.00     25.46
 79.37    628.00     25.06
 79.47    607.00     24.64
 79.57    639.12     25.28
 79.67    606.78     24.63
 79.77    580.00     24.08
 79.87    616.00     24.82
 79.97    618.00     24.86
 80.07    588.00     24.25
 80.17    586.22     24.21
 80.27    664.02     25.77
 80.37    697.35     26.41
 80.47    675.00     25.98
 80.57    702.21     26.50
 80.67    697.00     26.40
 80.77    762.00     27.60
 80.87    813.00     28.51
 80.97    810.19     28.46
 81.07    966.00     31.08
 81.17   1013.00     31.83
 81.27   1097.00     33.12
 81.37   1187.00     34.45
 81.47   1277.00     35.74
 81.57   1290.00     35.92
 81.67   1340.00     36.61
 81.77   1351.00     36.76
 81.87   1234.35     35.13
 81.97   1328.00     36.44
 82.07   1269.02     35.62
 82.17   1233.00     35.11
 82.27   1180.00     34.35
 82.37   1071.00     32.73
 82.47    983.38     31.36
 82.57    940.00     30.66
 82.67    894.00     29.90
 82.77    816.66     28.58
 82.87    753.00     27.44
 82.97    762.00     27.60
 83.07    744.01     27.28
 83.17    725.00     26.93
 83.27    700.00     26.46
 83.37    668.73     25.86
 83.47    625.49     25.01
 83.57    626.11     25.02
 83.67    626.00     25.02
 83.77    589.00     24.27
 83.87    637.00     25.24
 83.97    603.43     24.56
 84.07    656.00     25.61
 84.17    632.00     25.14
 84.27    646.00     25.42
 84.37    677.00     26.02
 84.47    667.00     25.83
 84.57    576.00     24.00
 84.67    681.47     26.10
 84.77    621.00     24.92
 84.87    627.00     25.04
 84.97    631.51     25.13
 85.07    593.00     24.35
 85.17    619.00     24.88
 85.27    574.00     23.96
 85.37    623.00     24.96
 85.47    610.00     24.70
 85.57    659.17     25.67
 85.67    573.88     23.96
 85.77    583.00     24.15
 85.87    596.00     24.41
 85.97    604.00     24.58
 86.07    590.07     24.29
 86.17    587.60     24.24
 86.27    581.58     24.12
 86.37    576.00     24.00
 86.47    620.00     24.90
 86.57    681.00     26.10
 86.67    659.00     25.67
 86.77    660.05     25.69
 86.87    646.00     25.42
 86.97    651.00     25.51
 87.07    611.53     24.73
 87.17    671.17     25.91
 87.27    700.95     26.48
 87.37    656.00     25.61
 87.47    655.00     25.59
 87.57    715.00     26.74
 87.67    710.00     26.65
 87.77    691.00     26.29
 87.87    728.00     26.98
 87.97    719.00     26.81
 88.07    697.78     26.42
 88.17    718.00     26.80
 88.27    734.00     27.09
 88.37    726.00     26.94
 88.47    714.46     26.73
 88.57    685.00     26.17
 88.67    658.00     25.65
 88.77    646.42     25.42
 88.87    654.00     25.57
 88.97    686.67     26.20
 89.07    638.00     25.26
 89.17    646.00     25.42
 89.27    639.92     25.30
 89.37    596.02     24.41
 89.47    629.00     25.08
 89.57    657.00     25.63
 89.67    609.00     24.68
 89.77    597.00     24.43
 89.87    634.00     25.18
 89.97    662.00     25.73
 90.07    673.04     25.94
 90.17    699.00     26.44
 90.27    688.00     26.23
 90.37    672.30     25.93
 90.47    680.01     26.08
 90.57    659.00     25.67
 90.67    644.68     25.39
 90.77    603.95     24.58
 90.87    599.40     24.48
 90.97    631.41     25.13
 91.07    605.77     24.61
 91.17    606.00     24.62
 91.27    605.00     24.60
 91.37    569.00     23.85
 91.47    582.11     24.13
 91.57    560.00     23.66
 91.67    570.00     23.87
 91.77    586.00     24.21
 91.87    563.00     23.73
 91.97    610.79     24.71
 92.07    600.00     24.49
 92.17    560.00     23.66
 92.27    589.00     24.27
 92.37    615.00     24.80
 92.47    581.38     24.11
 92.57    608.00     24.66
 92.67    647.30     25.44
 92.77    638.00     25.26
 92.87    593.00     24.35
 92.97    624.00     24.98
 93.07    629.00     25.08
 93.17    615.00     24.80
 93.27    661.00     25.71
 93.37    708.00     26.61
 93.47    684.16     26.16
 93.57    740.31     27.21
 93.67    734.00     27.09
 93.77    747.00     27.33
 93.87    826.21     28.74
 93.97    831.73     28.84
 94.07    836.00     28.91
 94.17    847.00     29.10
 94.27    908.67     30.14
 94.37    820.40     28.64
 94.47    878.28     29.64
 94.57    869.00     29.48
 94.67    884.19     29.74
 94.77    921.00     30.35
 94.87    963.00     31.03
 94.97    945.05     30.74
 95.07    940.90     30.67
 95.17    972.00     31.18
 95.27    997.00     31.58
 95.37    954.53     30.90
 95.47    999.78     31.62
 95.57    989.46     31.46
 95.67   1031.00     32.11
 95.77    979.00     31.29
 95.87    976.85     31.25
 95.97    945.00     30.74
 96.07    935.00     30.58
 96.17    936.65     30.60
 96.27    826.82     28.75
 96.37    845.00     29.07
 96.47    896.00     29.93
 96.57    835.00     28.90
 96.67    786.18     28.04
 96.77    811.00     28.48
 96.87    832.00     28.84
 96.97    790.73     28.12
 97.07    833.00     28.86
 97.17    911.41     30.19
 97.27    981.00     31.32
 97.37    997.24     31.58
 97.47   1056.00     32.50
 97.57   1120.00     33.47
 97.67   1156.00     34.00
 97.77   1239.00     35.20
 97.87   1382.00     37.18
 97.97   1331.00     36.48
 98.07   1493.00     38.64
 98.17   1488.00     38.57
 98.27   1487.20     38.56
 98.37   1577.00     39.71
 98.47   1624.00     40.30
 98.57   1553.00     39.41
 98.67   1514.00     38.91
 98.77   1478.01     38.44
 98.87   1389.00     37.27
 98.97   1395.00     37.35
 99.07   1259.00     35.48
 99.17   1221.00     34.94
 99.27   1238.17     35.19
 99.37   1092.00     33.05
 99.47   1006.00     31.72
 99.57   1011.00     31.80
 99.67   1028.65     32.07
 99.77    979.00     31.29
 99.87    993.00     31.51
 99.97   1044.55     32.32
100.07   1077.58     32.83
100.17   1078.00     32.83
100.27   1149.74     33.91
100.37   1251.00     35.37
100.47   1204.22     34.70
100.57   1380.39     37.15
100.67   1405.68     37.49
100.77   1481.00     38.48
100.87   1632.14     40.40
100.97   1650.20     40.62
101.07   1832.00     42.80
101.17   1984.00     44.54
101.27   1868.00     43.22
101.37   2025.00     45.00
101.47   1952.63     44.19
101.57   2114.00     45.98
101.67   2078.00     45.59
101.77   2193.00     46.83
101.87   2055.00     45.33
101.97   1983.57     44.54
102.07   1984.00     44.54
102.17   1989.00     44.60
102.27   1937.76     44.02
102.37   1792.00     42.33
102.47   1817.10     42.63
102.57   1645.24     40.56
102.67   1601.00     40.01
102.77   1523.00     39.03
102.87   1425.00     37.75
102.97   1458.86     38.20
103.07   1428.00     37.79
103.17   1347.00     36.70
103.27   1300.00     36.06
103.37   1238.00     35.19
103.47   1313.00     36.24
103.57   1277.82     35.75
103.67   1174.00     34.26
103.77   1156.58     34.01
103.87   1128.00     33.59
103.97   1124.52     33.53
104.07   1051.00     32.42
104.17    978.42     31.28
104.27   1004.30     31.69
104.37    921.24     30.35
104.47    883.00     29.72
104.57    888.00     29.80
104.67    764.00     27.64
104.77    834.00     28.88
104.87    747.00     27.33
104.97    694.00     26.34
105.07    688.41     26.24
105.17    684.00     26.15
105.27    626.38     25.03
105.37    694.00     26.34
105.47    697.00     26.40
105.57    630.00     25.10
105.67    644.00     25.38
105.77    613.82     24.78
105.87    581.00     24.10
105.97    663.00     25.75
106.07    580.00     24.08
106.17    549.07     23.43
106.27    555.29     23.56
106.37    602.00     24.54
106.47    595.00     24.39
106.57    605.00     24.60
106.67    636.00     25.22
106.77    597.60     24.45
106.87    651.82     25.53
106.97    659.84     25.69
107.07    702.00     26.50
107.17    686.00     26.19
107.27    678.06     26.04
107.37    699.00     26.44
107.47    759.00     27.55
107.57    685.00     26.17
107.67    726.00     26.94
107.77    749.15     27.37
107.87    757.00     27.51
107.97    781.60     27.96
108.07    777.05     27.88
108.17    704.00     26.53
108.27    747.00     27.33
108.37    729.00     27.00
108.47    809.29     28.45
108.57    795.80     28.21
108.67    734.00     27.09
108.77    792.93     28.16
108.87    775.00     27.84
108.97    743.00     27.26
109.07    770.49     27.76
109.17    805.24     28.38
109.27    744.00     27.28
109.37    684.00     26.15
109.47    748.00     27.35
109.57    782.00     27.96
109.67    796.00     28.21
109.77    758.29     27.54
109.87    725.00     26.93
109.97    772.96     27.80
110.07    803.00     28.34
110.17    806.00     28.39
110.27    714.00     26.72
110.37    725.00     26.93
110.47    706.79     26.59
110.57    699.13     26.44
110.67    721.00     26.85
110.77    732.00     27.06
110.87    665.00     25.79
110.97    682.00     26.12
111.07    717.00     26.78
111.17    664.00     25.77
111.27    690.00     26.27
111.37    643.00     25.36
111.47    658.61     25.66
111.57    644.12     25.38
111.67    626.00     25.02
111.77    614.00     24.78
111.87    623.62     24.97
111.97    599.00     24.47
112.07    617.09     24.84
112.17    558.50     23.63
112.27    560.69     23.68
112.37    619.00     24.88
112.47    641.00     25.32
112.57    573.00     23.94
112.67    555.39     23.57
112.77    574.00     23.96
112.87    638.00     25.26
112.97    598.00     24.45
113.07    596.87     24.43
113.17    638.00     25.26
113.27    589.64     24.28
113.37    662.36     25.74
113.47    626.00     25.02
113.57    534.00     23.11
113.67    611.00     24.72
113.77    581.00     24.10
113.87    601.62     24.53
113.97    688.74     26.24
114.07    612.00     24.74
114.17    620.00     24.90
114.27    649.08     25.48
114.37    644.33     25.38
114.47    664.31     25.77
114.57    675.00     25.98
114.67    744.00     27.28
114.77    716.00     26.76
114.87    790.89     28.12
114.97    758.00     27.53
115.07    819.87     28.63
115.17    897.91     29.97
115.27   1006.21     31.72
115.37   1010.00     31.78
115.47   1159.86     34.06
115.57   1229.43     35.06
115.67   1335.00     36.54
115.77   1527.00     39.08
115.87   1668.27     40.84
115.97   1943.00     44.08
116.07   2128.16     46.13
116.17   2434.00     49.34
116.27   2751.57     52.46
116.37   3089.00     55.58
116.47   3442.00     58.67
116.57   3758.22     61.30
116.67   4077.00     63.85
116.77   4578.71     67.67
116.87   4797.00     69.26
116.97   5164.00     71.86
117.07   5496.00     74.14
117.17   6021.35     77.60
117.27   6255.00     79.09
117.37   6619.22     81.36
117.47   6946.40     83.35
117.57   7218.00     84.96
117.67   7476.00     86.46
117.77   7412.00     86.09
117.87   7605.00     87.21
117.97   7392.00     85.98
118.07   7400.97     86.03
118.17   6994.27     83.63
118.27   6802.97     82.48
118.37   6691.00     81.80
118.47   6349.65     79.68
118.57   5935.00     77.04
118.67   5565.27     74.60
118.77   5247.00     72.44
118.87   4730.13     68.78
118.97   4645.00     68.15
119.07   4179.00     64.65
119.17   3712.12     60.93
119.27   3283.88     57.31
119.37   3102.00     55.70
119.47   2861.00     53.49
119.57   2503.26     50.03
119.67   2258.33     47.52
119.77   2120.55     46.05
119.87   1929.00     43.92
119.97   1712.00     41.38
120.07   1605.00     40.06
120.17   1386.00     37.23
120.27   1401.00     37.43
120.37   1219.52     34.92
120.47   1186.00     34.44
120.57   1093.00     33.06
120.67   1002.41     31.66
120.77    896.66     29.94
120.87    912.00     30.20
120.97    878.81     29.64
121.07    847.00     29.10
121.17    755.00     27.48
121.27    785.00     28.02
121.37    809.24     28.45
121.47    721.00     26.85
121.57    760.00     27.57
121.67    692.00     26.31
121.77    683.05     26.14
121.87    704.00     26.53
121.97    670.00     25.88
122.07    674.00     25.96
122.17    656.00     25.61
122.27    737.86     27.16
122.37    665.00     25.79
122.47    679.00     26.06
122.57    666.08     25.81
122.67    696.00     26.38
122.77    649.63     25.49
122.87    724.00     26.91
122.97    688.00     26.23
123.07    667.33     25.83
123.17    711.45     26.67
123.27    700.60     26.47
123.37    699.00     26.44
123.47    725.00     26.93
123.57    735.00     27.11
123.67    730.06     27.02
123.77    753.00     27.44
123.87    739.46     27.19
123.97    775.87     27.85
124.07    783.56     27.99
124.17    751.00     27.40
124.27    784.00     28.00
124.37    774.00     27.82
124.47    808.70     28.44
124.57    739.00     27.18
124.67    764.00     27.64
124.77    704.98     26.55
124.87    750.00     27.39
124.97    795.00     28.20
