XYDATA



INTER 1.0 1.0 0 0
TEMP 1074.0
  9.97    621.00     24.92
 10.07    596.00     24.41
 10.17    567.00     23.81
 10.27    631.00     25.12
 10.37    542.71     23.30
 10.47    543.00     23.30
 10.57    601.00     24.52
 10.67    621.00     24.92
 10.77    593.00     24.35
 10.87    638.00     25.26
 10.97    553.00     23.52
 11.07    600.00     24.49
 11.17    564.00     23.75
 11.27    555.44     23.57
 11.37    533.63     23.10
 11.47    585.78     24.20
 11.57    529.33     23.01
 11.67    619.76     24.90
 11.77    657.00     25.63
 11.87    577.15     24.02
 11.97    641.36     25.33
 12.07    606.00     24.62
 12.17    735.39     27.12
 12.27    684.00     26.15
 12.37    697.00     26.40
 12.47    617.00     24.84
 12.57    579.82     24.08
 12.67    601.00     24.52
 12.77    578.00     24.04
 12.87    607.72     24.65
 12.97    600.78     24.51
 13.07    569.00     23.85
 13.17    595.00     24.39
 13.27    536.00     23.15
 13.37    561.00     23.69
 13.47    598.38     24.46
 13.57    541.00     23.26
 13.67    586.84     24.22
 13.77    528.61     22.99
 13.87    557.00     23.60
 13.97    552.00     23.49
 14.07    525.00     22.91
 14.17    517.00     22.74
 14.27    558.00     23.62
 14.37    603.82     24.57
 14.47    595.00     24.39
 14.57    566.00     23.79
 14.67    537.00     23.17
 14.77    537.78     23.19
 14.87    584.98     24.19
 14.97    544.00     23.32
 15.07    516.00     22.72
 15.17    570.00     23.87
 15.27    591.97     24.33
 15.37    541.00     23.26
 15.47    568.00     23.83
 15.57    581.00     24.10
 15.67    583.00     24.15
 15.77    563.00     23.73
 15.87    566.53     23.80
 15.97    596.64     24.43
 16.07    571.33     23.90
 16.17    567.00     23.81
 16.27    574.00     23.96
 16.37    585.00     24.19
 16.47    539.00     23.22
 16.57    562.00     23.71
 16.67    579.17     24.07
 16.77    542.00     23.28
 16.87    584.00     24.17
 16.97    572.00     23.92
 17.07    509.00     22.56
 17.17    605.45     24.61
 17.27    554.00     23.54
 17.37    591.16     24.31
 17.47    541.00     23.26
 17.57    515.00     22.69
 17.67    517.00     22.74
 17.77    566.00     23.79
 17.87    526.00     22.93
 17.97    585.00     24.19
 18.07    535.64     23.14
 18.17    576.74     24.02
 18.27    557.00     23.60
 18.37    585.00     24.19
 18.47    554.41     23.55
 18.57    569.00     23.85
 18.67    576.00     24.00
 18.77    545.00     23.35
 18.87    550.00     23.45
 18.97    571.00     23.90
 19.07    590.00     24.29
 19.17    540.00     23.24
 19.27    544.00     23.32
 19.37    535.00     23.13
 19.47    557.00     23.60
 19.57    520.00     22.80
 19.67    529.00     23.00
 19.77    557.00     23.60
 19.87    513.10     22.65
 19.97    565.00     23.77
 20.07    554.00     23.54
 20.17    584.34     24.17
 20.27    548.00     23.41
 20.37    567.67     23.83
 20.47    530.00     23.02
 20.57    542.61     23.29
 20.67    542.31     23.29
 20.77    536.93     23.17
 20.87    544.00     23.32
 20.97    595.04     24.39
 21.07    555.00     23.56
 21.17    520.00     22.80
 21.27    565.00     23.77
 21.37    521.27     22.83
 21.47    536.00     23.15
 21.57    571.93     23.92
 21.67    518.81     22.78
 21.77    566.00     23.79
 21.87    557.00     23.60
 21.97    573.00     23.94
 22.07    567.45     23.82
 22.17    521.00     22.83
 22.27    537.00     23.17
 22.37    569.00     23.85
 22.47    508.67     22.55
 22.57    554.77     23.55
 22.67    527.00     22.96
 22.77    560.00     23.66
 22.87    535.00     23.13
 22.97    543.00     23.30
 23.07    545.21     23.35
 23.17    573.69     23.95
 23.27    532.00     23.07
 23.37    558.00     23.62
 23.47    531.00     23.04
 23.57    563.00     23.73
 23.67    586.00     24.21
 23.77    504.00     22.45
 23.87    563.50     23.74
 23.97    558.41     23.63
 24.07    559.00     23.64
 24.17    586.11     24.21
 24.27    588.66     24.26
 24.37    568.49     23.84
 24.47    589.00     24.27
 24.57    599.00     24.47
 24.67    638.00     25.26
 24.77    675.77     26.00
 24.87    662.14     25.73
 24.97    647.54     25.45
 25.07    638.00     25.26
 25.17    579.00     24.06
 25.27    508.00     22.54
 25.37    545.00     23.35
 25.47    559.43     23.65
 25.57    543.00     23.30
 25.67    535.01     23.13
 25.77    508.00     22.54
 25.87    539.98     23.24
 25.97    547.00     23.39
 26.07    553.54     23.53
 26.17    533.56     23.10
 26.27    510.02     22.58
 26.37    571.96     23.92
 26.47    523.00     22.87
 26.57    518.00     22.76
 26.67    525.00     22.91
 26.77    544.00     23.32
 26.87    543.00     23.30
 26.97    580.00     24.08
 27.07    523.00     22.87
 27.17    575.00     23.98
 27.27    549.36     23.44
 27.37    543.00     23.30
 27.47    539.00     23.22
 27.57    554.00     23.54
 27.67    619.00     24.88
 27.77    577.00     24.02
 27.87    583.42     24.15
 27.97    695.00     26.36
 28.07    765.00     27.66
 28.17    916.00     30.27
 28.27    976.00     31.24
 28.37    855.33     29.25
 28.47    783.00     27.98
 28.57    685.44     26.18
 28.67    730.00     27.02
 28.77    691.02     26.29
 28.87    832.00     28.84
 28.97    802.76     28.33
 29.07    761.58     27.60
 29.17    699.57     26.45
 29.27    617.00     24.84
 29.37    605.39     24.60
 29.47    588.23     24.25
 29.57    568.00     23.83
 29.67    579.00     24.06
 29.77    603.00     24.56
 29.87    609.00     24.68
 29.97    522.00     22.85
 30.07    574.00     23.96
 30.17    595.00     24.39
 30.27    581.00     24.10
 30.37    589.00     24.27
 30.47    516.23     22.72
 30.57    588.00     24.25
 30.67    597.47     24.44
 30.77    611.00     24.72
 30.87    648.00     25.46
 30.97    615.00     24.80
 31.07    621.03     24.92
 31.17    580.16     24.09
 31.27    563.00     23.73
 31.37    502.71     22.42
 31.47    533.00     23.09
 31.57    542.67     23.30
 31.67    564.85     23.77
 31.77    566.89     23.81
 31.87    547.06     23.39
 31.97    488.00     22.09
 32.07    520.00     22.80
 32.17    542.16     23.28
 32.27    544.00     23.32
 32.37    549.63     23.44
 32.47    553.37     23.52
 32.57    516.41     22.72
 32.67    575.00     23.98
 32.77    503.03     22.43
 32.87    554.00     23.54
 32.97    512.00     22.63
 33.07    519.00     22.78
 33.17    560.00     23.66
 33.27    558.21     23.63
 33.37    573.96     23.96
 33.47    536.49     23.16
 33.57    566.28     23.80
 33.67    629.00     25.08
 33.77    727.00     26.96
 33.87    872.00     29.53
 33.97    981.00     31.32
 34.07   1087.00     32.97
 34.17   1032.00     32.12
 34.27    937.37     30.62
 34.37    734.00     27.09
 34.47    641.00     25.32
 34.57    556.09     23.58
 34.67    528.00     22.98
 34.77    536.00     23.15
 34.87    534.00     23.11
 34.97    503.87     22.45
 35.07    519.00     22.78
 35.17    465.00     21.56
 35.27    482.00     21.95
 35.37    496.98     22.29
 35.47    496.00     22.27
 35.57    501.00     22.38
 35.67    539.21     23.22
 35.77    533.00     23.09
 35.87    504.00     22.45
 35.97    549.00     23.43
 36.07    509.00     22.56
 36.17    531.00     23.04
 36.27    490.00     22.14
 36.37    502.00     22.41
 36.47    544.67     23.34
 36.57    536.00     23.15
 36.67    500.49     22.37
 36.77    535.90     23.15
 36.87    548.22     23.41
 36.97    500.00     22.36
 37.07    504.58     22.46
 37.17    543.05     23.30
 37.27    569.00     23.85
 37.37    540.43     23.25
 37.47    498.07     22.32
 37.57    511.78     22.62
 37.67    547.21     23.39
 37.77    530.00     23.02
 37.87    516.00     22.72
 37.97    528.66     22.99
 38.07    502.00     22.41
 38.17    533.00     23.09
 38.27    523.00     22.87
 38.37    515.00     22.69
 38.47    475.79     21.81
 38.57    530.00     23.02
 38.67    496.00     22.27
 38.77    549.66     23.44
 38.87    531.00     23.04
 38.97    479.33     21.89
 39.07    518.57     22.77
 39.17    516.00     22.72
 39.27    515.00     22.69
 39.37    491.56     22.17
 39.47    522.00     22.85
 39.57    465.00     21.56
 39.67    547.00     23.39
 39.77    537.00     23.17
 39.87    499.03     22.34
 39.97    503.00     22.43
 40.07    474.00     21.77
 40.17    483.00     21.98
 40.27    502.98     22.43
 40.37    532.44     23.07
 40.47    547.38     23.40
 40.57    494.00     22.23
 40.67    497.00     22.29
 40.77    491.92     22.18
 40.87    469.00     21.66
 40.97    538.66     23.21
 41.07    459.00     21.42
 41.17    518.00     22.76
 41.27    480.85     21.93
 41.37    482.00     21.95
 41.47    502.00     22.41
 41.57    547.87     23.41
 41.67    520.00     22.80
 41.77    499.00     22.34
 41.87    498.00     22.32
 41.97    512.00     22.63
 42.07    447.00     21.14
 42.17    531.00     23.04
 42.27    521.00     22.83
 42.37    582.00     24.12
 42.47    631.12     25.12
 42.57    595.38     24.40
 42.67    617.00     24.84
 42.77    598.04     24.45
 42.87    571.00     23.90
 42.97    558.00     23.62
 43.07    559.00     23.64
 43.17    558.75     23.64
 43.27    555.00     23.56
 43.37    519.00     22.78
 43.47    514.00     22.67
 43.57    478.00     21.86
 43.67    518.00     22.76
 43.77    520.00     22.80
 43.87    470.36     21.69
 43.97    570.00     23.87
 44.07    504.95     22.47
 44.17    499.00     22.34
 44.27    514.00     22.67
 44.37    514.00     22.67
 44.47    541.00     23.26
 44.57    510.00     22.58
 44.67    495.00     22.25
 44.77    513.13     22.65
 44.87    497.00     22.29
 44.97    556.00     23.58
 45.07    541.82     23.28
 45.17    491.37     22.17
 45.27    482.85     21.97
 45.37    541.86     23.28
 45.47    484.00     22.00
 45.57    510.00     22.58
 45.67    518.00     22.76
 45.77    517.00     22.74
 45.87    531.00     23.04
 45.97    528.00     22.98
 46.07    514.73     22.69
 46.17    471.72     21.72
 46.27    531.83     23.06
 46.37    475.00     21.79
 46.47    515.78     22.71
 46.57    483.35     21.99
 46.67    511.00     22.61
 46.77    541.00     23.26
 46.87    487.54     22.08
 46.97    503.00     22.43
 47.07    497.00     22.29
 47.17    501.51     22.39
 47.27    541.00     23.26
 47.37    525.00     22.91
 47.47    535.57     23.14
 47.57    531.00     23.04
 47.67    568.07     23.83
 47.77    591.83     24.33
 47.87    618.00     24.86
 47.97    625.72     25.01
 48.07    565.45     23.78
 48.17    595.43     24.40
 48.27    580.00     24.08
 48.37    530.00     23.02
 48.47    554.14     23.54
 48.57    489.00     22.11
 48.67    562.00     23.71
 48.77    574.98     23.98
 48.87    574.98     23.98
 48.97    582.68     24.14
 49.07    559.46     23.65
 49.17    589.76     24.28
 49.27    632.01     25.14
 49.37    645.00     25.40
 49.47    655.00     25.59
 49.57    758.10     27.53
 49.67    876.38     29.60
 49.77   1174.00     34.26
 49.87   1465.00     38.28
 49.97   1899.78     43.59
 50.07   2173.00     46.62
 50.17   2435.00     49.35
 50.27   2398.08     48.97
 50.37   2245.00     47.38
 50.47   1798.00     42.40
 50.57   1373.00     37.05
 50.67   1089.34     33.01
 50.77    895.00     29.92
 50.87    701.78     26.49
 50.97    631.00     25.12
 51.07    660.46     25.70
 51.17    638.00     25.26
 51.27    611.00     24.72
 51.37    572.00     23.92
 51.47    547.36     23.40
 51.57    530.00     23.02
 51.67    546.00     23.37
 51.77    551.00     23.47
 51.87    552.42     23.50
 51.97    567.46     23.82
 52.07    534.90     23.13
 52.17    541.33     23.27
 52.27    566.79     23.81
 52.37    566.00     23.79
 52.47    545.00     23.35
 52.57    569.00     23.85
 52.67    553.18     23.52
 52.77    586.00     24.21
 52.87    623.75     24.97
 52.97    768.00     27.71
 53.07    892.00     29.87
 53.17    950.00     30.82
 53.27    977.95     31.27
 53.37   1167.00     34.16
 53.47   1237.00     35.17
 53.57   1201.02     34.66
 53.67   1097.00     33.12
 53.77    952.00     30.85
 53.87    877.00     29.61
 53.97    773.00     27.80
 54.07    668.23     25.85
 54.17    620.00     24.90
 54.27    610.00     24.70
 54.37    576.98     24.02
 54.47    590.00     24.29
 54.57    595.00     24.39
 54.67    598.00     24.45
 54.77    574.00     23.96
 54.87    531.00     23.04
 54.97    500.61     22.37
 55.07    577.73     24.04
 55.17    539.00     23.22
 55.27    547.00     23.39
 55.37    552.09     23.50
 55.47    576.00     24.00
 55.57    526.00     22.93
 55.67    552.00     23.49
 55.77    534.88     23.13
 55.87    627.00     25.04
 55.97    614.00     24.78
 56.07    699.00     26.44
 56.17    724.00     26.91
 56.27    891.50     29.86
 56.37   1113.00     33.36
 56.47   1409.00     37.54
 56.57   1723.00     41.51
 56.67   2112.57     45.96
 56.77   2496.00     49.96
 56.87   2633.00     51.31
 56.97   2630.00     51.28
 57.07   2380.58     48.79
 57.17   2091.00     45.73
 57.27   1697.00     41.19
 57.37   1376.00     37.09
 57.47   1059.68     32.55
 57.57    903.00     30.05
 57.67    759.00     27.55
 57.77    729.00     27.00
 57.87    641.08     25.32
 57.97    618.00     24.86
 58.07    627.59     25.05
 58.17    689.00     26.25
 58.27    798.62     28.26
 58.37    798.00     28.25
 58.47    981.00     31.32
 58.57   1027.24     32.05
 58.67   1212.74     34.82
 58.77   1264.00     35.55
 58.87   1442.00     37.97
 58.97   1450.00     38.08
 59.07   1555.00     39.43
 59.17   1487.00     38.56
 59.27   1446.00     38.03
 59.37   1372.00     37.04
 59.47   1194.51     34.56
 59.57   1203.00     34.68
 59.67   1115.66     33.40
 59.77   1189.80     34.49
 59.87   1268.00     35.61
 59.97   1316.00     36.28
 60.07   1449.00     38.07
 60.17   1584.00     39.80
 60.27   1589.06     39.86
 60.37   1454.00     38.13
 60.47   1390.62     37.29
 60.57   1251.28     35.37
 60.67   1061.19     32.58
 60.77    950.72     30.83
 60.87    835.43     28.90
 60.97    714.00     26.72
 61.07    653.00     25.55
 61.17    634.00     25.18
 61.27    670.02     25.88
 61.37    611.00     24.72
 61.47    693.00     26.32
 61.57    715.37     26.75
 61.67    900.00     30.00
 61.77    974.23     31.21
 61.87   1021.00     31.95
 61.97   1242.54     35.25
 62.07   1335.00     36.54
 62.17   1377.00     37.11
 62.27   1395.70     37.36
 62.37   1288.00     35.89
 62.47   1266.57     35.59
 62.57   1025.00     32.02
 62.67    936.00     30.59
 62.77    780.00     27.93
 62.87    673.00     25.94
 62.97    643.00     25.36
 63.07    604.44     24.59
 63.17    555.00     23.56
 63.27    591.00     24.31
 63.37    607.00     24.64
 63.47    568.09     23.83
 63.57    565.00     23.77
 63.67    573.64     23.95
 63.77    601.00     24.52
 63.87    647.00     25.44
 63.97    666.00     25.81
 64.07    681.00     26.10
 64.17    809.51     28.45
 64.27    912.00     30.20
 64.37    899.00     29.98
 64.47    997.00     31.58
 64.57   1048.09     32.37
 64.67   1079.74     32.86
 64.77   1003.18     31.67
 64.87    991.00     31.48
 64.97    948.00     30.79
 65.07    876.00     29.60
 65.17    789.00     28.09
 65.27    735.00     27.11
 65.37    712.38     26.69
 65.47    685.67     26.19
 65.57    647.00     25.44
 65.67    644.18     25.38
 65.77    573.00     23.94
 65.87    600.55     24.51
 65.97    614.19     24.78
 66.07    584.00     24.17
 66.17    577.00     24.02
 66.27    607.00     24.64
 66.37    541.88     23.28
 66.47    513.00     22.65
 66.57    606.08     24.62
 66.67    578.00     24.04
 66.77    545.83     23.36
 66.87    622.00     24.94
 66.97    606.00     24.62
 67.07    648.00     25.46
 67.17    666.38     25.81
 67.27    825.60     28.73
 67.37    850.14     29.16
 67.47   1071.48     32.73
 67.57   1322.00     36.36
 67.67   1552.00     39.40
 67.77   1902.00     43.61
 67.87   2025.35     45.00
 67.97   2340.00     48.37
 68.07   2404.35     49.03
 68.17   2471.00     49.71
 68.27   2257.90     47.52
 68.37   2078.00     45.59
 68.47   1850.00     43.01
 68.57   1577.72     39.72
 68.67   1251.00     35.37
 68.77   1032.31     32.13
 68.87    891.00     29.85
 68.97    797.65     28.24
 69.07    683.00     26.13
 69.17    618.00     24.86
 69.27    589.00     24.27
 69.37    641.00     25.32
 69.47    612.00     24.74
 69.57    574.00     23.96
 69.67    540.00     23.24
 69.77    559.00     23.64
 69.87    597.00     24.43
 69.97    571.00     23.90
 70.07    579.00     24.06
 70.17    561.05     23.69
 70.27    574.50     23.97
 70.37    523.56     22.88
 70.47    546.75     23.38
 70.57    594.00     24.37
 70.67    543.00     23.30
 70.77    558.40     23.63
 70.87    648.13     25.46
 70.97    601.00     24.52
 71.07    631.00     25.12
 71.17    675.00     25.98
 71.27    848.00     29.12
 71.37    963.00     31.03
 71.47   1104.72     33.24
 71.57   1201.00     34.66
 71.67   1479.00     38.46
 71.77   1625.00     40.31
 71.87   1855.00     43.07
 71.97   1801.39     42.44
 72.07   1826.00     42.73
 72.17   1892.00     43.50
 72.27   1748.00     41.81
 72.37   1615.00     40.19
 72.47   1514.76     38.92
 72.57   1322.00     36.36
 72.67   1047.00     32.36
 72.77    982.00     31.34
 72.87    914.00     30.23
 72.97    798.00     28.25
 73.07    763.77     27.64
 73.17    775.98     27.86
 73.27    720.34     26.84
 73.37    635.00     25.20
 73.47    629.59     25.09
 73.57    611.00     24.72
 73.67    619.37     24.89
 73.77    589.00     24.27
 73.87    614.85     24.80
 73.97    585.00     24.19
 74.07    574.62     23.97
 74.17    609.00     24.68
 74.27    608.00     24.66
 74.37    559.98     23.66
 74.47    660.00     25.69
 74.57    642.00     25.34
 74.67    667.00     25.83
 74.77    604.00     24.58
 74.87    585.00     24.19
 74.97    571.73     23.91
 75.07    578.00     24.04
 75.17    611.00     24.72
 75.27    593.00     24.35
 75.37    523.87     22.89
 75.47    582.00     24.12
 75.57    558.36     23.63
 75.67    580.67     24.10
 75.77    596.00     24.41
 75.87    584.93     24.19
 75.97    648.00     25.46
 76.07    627.96     25.06
 76.17    626.00     25.02
 76.27    643.00     25.36
 76.37    696.00     26.38
 76.47    632.00     25.14
 76.57    665.12     25.79
 76.67    663.00     25.75
 76.77    678.61     26.05
 76.87    621.00     24.92
 76.97    648.00     25.46
 77.07    605.00     24.60
 77.17    586.00     24.21
 77.27    605.00     24.60
 77.37    539.61     23.23
 77.47    547.00     23.39
 77.57    553.67     23.53
 77.67    547.00     23.39
 77.77    504.00     22.45
 77.87    562.11     23.71
 77.97    567.31     23.82
 78.07    532.00     23.07
 78.17    488.00     22.09
 78.27    480.00     21.91
 78.37    533.71     23.10
 78.47    496.00     22.27
 78.57    537.00     23.17
 78.67    519.23     22.79
 78.77    492.00     22.18
 78.87    539.53     23.23
 78.97    539.00     23.22
 79.07    554.58     23.55
 79.17    550.00     23.45
 79.27    539.00     23.22
 79.37    509.22     22.57
 79.47    551.96     23.49
 79.57    514.00     22.67
 79.67    568.00     23.83
 79.77    522.00     22.85
 79.87    573.13     23.94
 79.97    558.00     23.62
 80.07    547.00     23.39
 80.17    573.00     23.94
 80.27    604.74     24.59
 80.37    583.37     24.15
 80.47    551.00     23.47
 80.57    577.00     24.02
 80.67    590.60     24.30
 80.77    695.00     26.36
 80.87    681.11     26.10
 80.97    709.00     26.63
 81.07    662.00     25.73
 81.17    717.00     26.78
 81.27    734.00     27.09
 81.37    680.00     26.08
 81.47    778.00     27.89
 81.57    740.00     27.20
 81.67    702.17     26.50
 81.77    680.35     26.08
 81.87    680.70     26.09
 81.97    685.59     26.18
 82.07    696.86     26.40
 82.17    637.00     25.24
 82.27    675.00     25.98
 82.37    637.00     25.24
 82.47    580.62     24.10
 82.57    572.00     23.92
 82.67    597.61     24.45
 82.77    544.00     23.32
 82.87    507.00     22.52
 82.97    523.00     22.87
 83.07    536.00     23.15
 83.17    521.00     22.83
 83.27    561.00     23.69
 83.37    547.00     23.39
 83.47    577.73     24.04
 83.57    552.34     23.50
 83.67    535.00     23.13
 83.77    591.93     24.33
 83.87    549.80     23.45
 83.97    564.00     23.75
 84.07    534.72     23.12
 84.17    568.00     23.83
 84.27    528.15     22.98
 84.37    526.99     22.96
 84.47    565.15     23.77
 84.57    557.00     23.60
 84.67    542.00     23.28
 84.77    536.54     23.16
 84.87    528.39     22.99
 84.97    519.76     22.80
 85.07    532.00     23.07
 85.17    515.00     22.69
 85.27    523.96     22.89
 85.37    543.00     23.30
 85.47    522.00     22.85
 85.57    550.95     23.47
 85.67    525.00     22.91
 85.77    528.18     22.98
 85.87    541.00     23.26
 85.97    531.00     23.04
 86.07    573.46     23.95
 86.17    540.00     23.24
 86.27    526.00     22.93
 86.37    542.00     23.28
 86.47    543.75     23.32
 86.57    563.00     23.73
 86.67    596.00     24.41
 86.77    568.00     23.83
 86.87    558.00     23.62
 86.97    626.81     25.04
 87.07    632.00     25.14
 87.17    621.00     24.92
 87.27    674.60     25.97
 87.37    633.00     25.16
 87.47    667.00     25.83
 87.57    652.24     25.54
 87.67    615.00     24.80
 87.77    649.00     25.48
 87.87    649.00     25.48
 87.97    626.56     25.03
 88.07    604.00     24.58
 88.17    618.00     24.86
 88.27    576.00     24.00
 88.37    611.04     24.72
 88.47    623.00     24.96
 88.57    594.00     24.37
 88.67    592.25     24.34
 88.77    559.00     23.64
 88.87    593.60     24.36
 88.97    582.00     24.12
 89.07    592.00     24.33
 89.17    598.00     24.45
 89.27    607.00     24.64
 89.37    600.00     24.49
 89.47    570.71     23.89
 89.57    562.06     23.71
 89.67    615.00     24.80
 89.77    622.60     24.95
 89.87    556.61     23.59
 89.97    551.26     23.48
 90.07    566.11     23.79
 90.17    562.00     23.71
 90.27    568.00     23.83
 90.37    516.00     22.72
 90.47    506.00     22.49
 90.57    533.00     23.09
 90.67    552.00     23.49
 90.77    523.85     22.89
 90.87    499.00     22.34
 90.97    540.00     23.24
 91.07    529.00     23.00
 91.17    532.00     23.07
 91.27    482.00     21.95
 91.37    547.00     23.39
 91.47    530.00     23.02
 91.57    532.53     23.08
 91.67    543.84     23.32
 91.77    507.00     22.52
 91.87    546.00     23.37
 91.97    563.00     23.73
 92.07    520.00     22.80
 92.17    545.13     23.35
 92.27    577.00     24.02
 92.37    582.00     24.12
 92.47    594.00     24.37
 92.57    632.93     25.16
 92.67    703.00     26.51
 92.77    696.00     26.38
 92.87    754.00     27.46
 92.97    727.67     26.98
 93.07    831.00     28.83
 93.17    727.72     26.98
 93.27    801.00     28.30
 93.37    763.00     27.62
 93.47    851.00     29.17
 93.57    838.04     28.95
 93.67    802.33     28.33
 93.77    844.46     29.06
 93.87    839.00     28.97
 93.97    878.17     29.63
 94.07    860.17     29.33
 94.17    846.00     29.09
 94.27    816.00     28.57
 94.37    895.14     29.92
 94.47    914.00     30.23
 94.57    938.00     30.63
 94.67    945.00     30.74
 94.77    829.30     28.80
 94.87    903.61     30.06
 94.97    924.00     30.40
 95.07    911.94     30.20
 95.17    811.72     28.49
 95.27    854.00     29.22
 95.37    775.00     27.84
 95.47    736.53     27.14
 95.57    799.00     28.27
 95.67    722.00     26.87
 95.77    653.84     25.57
 95.87    698.00     26.42
 95.97    696.00     26.38
 96.07    720.00     26.83
 96.17    684.88     26.17
 96.27    733.00     27.07
 96.37    696.00     26.38
 96.47    827.52     28.77
 96.57    902.96     30.05
 96.67    945.00     30.74
 96.77   1004.00     31.69
 96.87   1124.69     33.54
 96.97   1164.00     34.12
 97.07   1270.27     35.64
 97.17   1215.18     34.86
 97.27   1404.03     37.47
 97.37   1310.00     36.19
 97.47   1416.00     37.63
 97.57   1436.32     37.90
 97.67   1456.56     38.16
 97.77   1365.00     36.95
 97.87   1396.80     37.37
 97.97   1294.50     35.98
 98.07   1258.00     35.47
 98.17   1104.11     33.23
 98.27   1113.48     33.37
 98.37   1000.09     31.62
 98.47    960.40     30.99
 98.57    898.09     29.97
 98.67    848.56     29.13
 98.77    846.00     29.09
 98.87    822.00     28.67
 98.97    764.28     27.65
 99.07    799.00     28.27
 99.17    897.14     29.95
 99.27    869.00     29.48
 99.37    957.30     30.94
 99.47   1051.00     32.42
 99.57   1030.93     32.11
 99.67   1215.00     34.86
 99.77   1313.26     36.24
 99.87   1341.00     36.62
 99.97   1463.00     38.25
100.07   1559.68     39.49
100.17   1754.00     41.88
100.27   1901.00     43.60
100.37   1960.00     44.27
100.47   2024.00     44.99
100.57   2099.03     45.82
100.67   2007.00     44.80
100.77   2074.00     45.54
100.87   2046.57     45.24
100.97   2024.51     44.99
101.07   1908.36     43.68
101.17   1886.00     43.43
101.27   1776.00     42.14
101.37   1635.00     40.44
101.47   1506.00     38.81
101.57   1515.00     38.92
101.67   1418.00     37.66
101.77   1332.00     36.50
101.87   1225.00     35.00
101.97   1199.00     34.63
102.07   1187.00     34.45
102.17   1164.00     34.12
102.27   1129.00     33.60
102.37   1094.00     33.08
102.47   1118.00     33.44
102.57   1105.00     33.24
102.67   1081.00     32.88
102.77   1029.00     32.08
102.87    991.00     31.48
102.97    967.00     31.10
103.07    908.06     30.13
103.17    899.00     29.98
103.27    801.00     28.30
103.37    822.00     28.67
103.47    804.00     28.35
103.57    702.43     26.50
103.67    713.00     26.70
103.77    708.00     26.61
103.87    673.01     25.94
103.97    586.13     24.21
104.07    598.00     24.45
104.17    611.00     24.72
104.27    591.00     24.31
104.37    545.43     23.35
104.47    519.00     22.78
104.57    569.00     23.85
104.67    557.00     23.60
104.77    502.00     22.41
104.87    498.89     22.34
104.97    513.18     22.65
105.07    542.00     23.28
105.17    571.16     23.90
105.27    506.28     22.50
105.37    503.00     22.43
105.47    523.00     22.87
105.57    504.00     22.45
105.67    581.25     24.11
105.77    549.00     23.43
105.87    598.14     24.46
105.97    585.38     24.19
106.07    561.00     23.69
106.17    603.00     24.56
106.27    601.92     24.53
106.37    601.00     24.52
106.47    607.00     24.64
106.57    667.60     25.84
106.67    688.37     26.24
106.77    690.00     26.27
106.87    657.62     25.64
106.97    602.00     24.54
107.07    667.00     25.83
107.17    649.00     25.48
107.27    707.00     26.59
107.37    650.00     25.50
107.47    646.00     25.42
107.57    715.00     26.74
107.67    694.00     26.34
107.77    675.00     25.98
107.87    678.00     26.04
107.97    697.00     26.40
108.07    738.95     27.18
108.17    695.00     26.36
108.27    701.00     26.48
108.37    708.15     26.61
108.47    709.00     26.63
108.57    692.16     26.31
108.67    688.39     26.24
108.77    689.00     26.25
108.87    674.00     25.96
108.97    692.00     26.31
109.07    685.00     26.17
109.17    633.00     25.16
109.27    654.00     25.57
109.37    662.40     25.74
109.47    621.00     24.92
109.57    618.00     24.86
109.67    625.00     25.00
109.77    633.00     25.16
109.87    579.23     24.07
109.97    618.00     24.86
110.07    575.00     23.98
110.17    530.43     23.03
110.27    575.96     24.00
110.37    566.98     23.81
110.47    513.61     22.66
110.57    581.25     24.11
110.67    551.02     23.47
110.77    553.00     23.52
110.87    579.08     24.06
110.97    506.96     22.52
111.07    536.00     23.15
111.17    566.00     23.79
111.27    522.67     22.86
111.37    523.15     22.87
111.47    512.01     22.63
111.57    543.36     23.31
111.67    558.00     23.62
111.77    523.83     22.89
111.87    570.00     23.87
111.97    552.00     23.49
112.07    547.00     23.39
112.17    533.00     23.09
112.27    532.53     23.08
112.37    625.94     25.02
112.47    631.77     25.14
112.57    573.84     23.95
112.67    635.99     25.22
112.77    636.96     25.24
112.87    663.75     25.76
112.97    686.96     26.21
113.07    675.94     26.00
113.17    649.02     25.48
113.27    741.00     27.22
113.37    772.00     27.78
113.47    760.00     27.57
113.57    805.00     28.37
113.67    769.00     27.73
113.77    806.00     28.39
113.87    869.00     29.48
113.97    910.00     30.17
114.07    994.00     31.53
114.17   1048.18     32.38
114.27   1133.78     33.67
114.37   1200.00     34.64
114.47   1212.94     34.83
114.57   1373.00     37.05
114.67   1506.80     38.82
114.77   1693.00     41.15
114.87   1809.30     42.54
114.97   2094.59     45.77
115.07   2429.00     49.28
115.17   2583.00     50.82
115.27   2886.00     53.72
115.37   3145.00     56.08
115.47   3360.00     57.97
115.57   3772.00     61.42
115.67   4180.00     64.65
115.77   4467.00     66.84
115.87   4761.00     69.00
115.97   5426.91     73.67
116.07   5664.00     75.26
116.17   5880.77     76.69
116.27   6386.89     79.92
116.37   6745.00     82.13
116.47   6818.50     82.57
116.57   6680.07     81.73
116.67   6850.00     82.76
116.77   6847.00     82.75
116.87   6791.00     82.41
116.97   6549.00     80.93
117.07   6200.00     78.74
117.17   6092.00     78.05
117.27   5746.00     75.80
117.37   5276.00     72.64
117.47   4963.46     70.45
117.57   4748.13     68.91
117.67   4244.00     65.15
117.77   4080.00     63.87
117.87   3429.20     58.56
117.97   3223.00     56.77
118.07   2772.45     52.65
118.17   2503.00     50.03
118.27   2234.00     47.27
118.37   1983.00     44.53
118.47   1821.04     42.67
118.57   1553.46     39.41
118.67   1391.00     37.30
118.77   1270.00     35.64
118.87   1122.00     33.50
118.97   1034.00     32.16
119.07    946.00     30.76
119.17    893.00     29.88
119.27    799.00     28.27
119.37    771.00     27.77
119.47    759.00     27.55
119.57    710.16     26.65
119.67    679.00     26.06
119.77    678.00     26.04
119.87    644.00     25.38
119.97    658.00     25.65
120.07    570.89     23.89
120.17    651.01     25.51
120.27    579.76     24.08
120.37    600.00     24.49
120.47    556.89     23.60
120.57    619.50     24.89
120.67    614.00     24.78
120.77    562.55     23.72
120.87    589.25     24.27
120.97    600.00     24.49
121.07    604.00     24.58
121.17    555.00     23.56
121.27    554.00     23.54
121.37    557.00     23.60
121.47    627.47     25.05
121.57    562.00     23.71
121.67    546.09     23.37
121.77    567.70     23.83
121.87    573.00     23.94
121.97    608.00     24.66
122.07    627.00     25.04
122.17    621.00     24.92
122.27    619.00     24.88
122.37    660.00     25.69
122.47    608.11     24.66
122.57    630.00     25.10
122.67    590.64     24.30
122.77    641.00     25.32
122.87    728.00     26.98
122.97    595.51     24.40
123.07    601.94     24.53
123.17    638.04     25.26
123.27    652.00     25.53
123.37    601.14     24.52
123.47    665.00     25.79
123.57    621.00     24.92
123.67    600.00     24.49
123.77    602.00     24.54
123.87    643.00     25.36
123.97    636.34     25.23
124.07    602.45     24.54
124.17    604.00     24.58
124.27    625.00     25.00
124.37    640.00     25.30
124.47    585.00     24.19
124.57    601.00     24.52
124.67    545.28     23.35
124.77    605.00     24.60
124.87    576.08     24.00
124.97    610.00     24.70
