XYDATA



INTER 1.0 1.0 0 0
TEMP 835.685
  9.97    628.00     25.06
 10.07    590.83     24.31
 10.17    555.21     23.56
 10.27    562.00     23.71
 10.37    603.00     24.56
 10.47    563.75     23.74
 10.57    594.00     24.37
 10.67    555.00     23.56
 10.77    592.00     24.33
 10.87    577.00     24.02
 10.97    586.00     24.21
 11.07    578.00     24.04
 11.17    552.72     23.51
 11.27    580.20     24.09
 11.37    592.00     24.33
 11.47    578.00     24.04
 11.57    581.00     24.10
 11.67    587.00     24.23
 11.77    582.00     24.12
 11.87    600.00     24.49
 11.97    649.00     25.48
 12.07    649.52     25.49
 12.17    679.00     26.06
 12.27    655.00     25.59
 12.37    636.08     25.22
 12.47    634.00     25.18
 12.57    618.00     24.86
 12.67    590.00     24.29
 12.77    585.00     24.19
 12.87    592.00     24.33
 12.97    559.00     23.64
 13.07    578.00     24.04
 13.17    587.00     24.23
 13.27    561.00     23.69
 13.37    592.00     24.33
 13.47    506.00     22.49
 13.57    582.00     24.12
 13.67    541.00     23.26
 13.77    614.42     24.79
 13.87    586.30     24.21
 13.97    585.00     24.19
 14.07    538.00     23.19
 14.17    560.00     23.66
 14.27    532.00     23.07
 14.37    566.85     23.81
 14.47    533.00     23.09
 14.57    545.00     23.35
 14.67    540.84     23.26
 14.77    570.63     23.89
 14.87    523.00     22.87
 14.97    560.43     23.67
 15.07    547.00     23.39
 15.17    622.00     24.94
 15.27    542.49     23.29
 15.37    526.00     22.93
 15.47    578.91     24.06
 15.57    567.14     23.81
 15.67    583.00     24.15
 15.77    551.00     23.47
 15.87    547.00     23.39
 15.97    575.00     23.98
 16.07    610.94     24.72
 16.17    571.00     23.90
 16.27    526.00     22.93
 16.37    562.00     23.71
 16.47    564.96     23.77
 16.57    535.00     23.13
 16.67    566.00     23.79
 16.77    590.00     24.29
 16.87    569.00     23.85
 16.97    547.00     23.39
 17.07    527.15     22.96
 17.17    567.00     23.81
 17.27    576.00     24.00
 17.37    564.65     23.76
 17.47    537.70     23.19
 17.57    570.00     23.87
 17.67    529.00     23.00
 17.77    549.87     23.45
 17.87    541.00     23.26
 17.97    558.00     23.62
 18.07    576.07     24.00
 18.17    567.00     23.81
 18.27    557.00     23.60
 18.37    593.43     24.36
 18.47    602.41     24.54
 18.57    576.50     24.01
 18.67    533.00     23.09
 18.77    552.00     23.49
 18.87    581.00     24.10
 18.97    558.93     23.64
 19.07    536.22     23.16
 19.17    522.10     22.85
 19.27    560.00     23.66
 19.37    582.08     24.13
 19.47    586.00     24.21
 19.57    520.00     22.80
 19.67    612.50     24.75
 19.77    597.00     24.43
 19.87    530.00     23.02
 19.97    606.00     24.62
 20.07    546.00     23.37
 20.17    547.00     23.39
 20.27    599.37     24.48
 20.37    612.39     24.75
 20.47    595.28     24.40
 20.57    567.90     23.83
 20.67    535.00     23.13
 20.77    567.42     23.82
 20.87    542.00     23.28
 20.97    520.68     22.82
 21.07    538.00     23.19
 21.17    533.00     23.09
 21.27    527.05     22.96
 21.37    596.03     24.41
 21.47    524.81     22.91
 21.57    556.43     23.59
 21.67    571.00     23.90
 21.77    550.00     23.45
 21.87    613.00     24.76
 21.97    582.00     24.12
 22.07    560.00     23.66
 22.17    555.00     23.56
 22.27    605.52     24.61
 22.37    545.00     23.35
 22.47    528.00     22.98
 22.57    554.00     23.54
 22.67    607.00     24.64
 22.77    612.00     24.74
 22.87    564.00     23.75
 22.97    537.00     23.17
 23.07    548.00     23.41
 23.17    563.00     23.73
 23.27    536.00     23.15
 23.37    601.11     24.52
 23.47    522.80     22.86
 23.57    584.00     24.17
 23.67    541.39     23.27
 23.77    556.78     23.60
 23.87    515.00     22.69
 23.97    552.00     23.49
 24.07    525.59     22.93
 24.17    627.00     25.04
 24.27    550.00     23.45
 24.37    620.00     24.90
 24.47    580.00     24.08
 24.57    643.11     25.36
 24.67    607.00     24.64
 24.77    687.00     26.21
 24.87    628.32     25.07
 24.97    685.00     26.17
 25.07    630.00     25.10
 25.17    581.00     24.10
 25.27    586.00     24.21
 25.37    597.00     24.43
 25.47    533.64     23.10
 25.57    555.29     23.56
 25.67    610.72     24.71
 25.77    584.00     24.17
 25.87    573.25     23.94
 25.97    579.00     24.06
 26.07    579.00     24.06
 26.17    531.00     23.04
 26.27    547.59     23.40
 26.37    550.00     23.45
 26.47    562.19     23.71
 26.57    623.00     24.96
 26.67    593.00     24.35
 26.77    545.17     23.35
 26.87    606.17     24.62
 26.97    589.00     24.27
 27.07    591.00     24.31
 27.17    614.28     24.78
 27.27    606.32     24.62
 27.37    561.00     23.69
 27.47    585.47     24.20
 27.57    634.00     25.18
 27.67    599.00     24.47
 27.77    562.63     23.72
 27.87    638.00     25.26
 27.97    671.00     25.90
 28.07    759.00     27.55
 28.17    847.00     29.10
 28.27    952.00     30.85
 28.37    908.39     30.14
 28.47    901.00     30.02
 28.57    776.00     27.86
 28.67    750.00     27.39
 28.77    728.00     26.98
 28.87    799.00     28.27
 28.97    860.00     29.33
 29.07    842.00     29.02
 29.17    777.65     27.89
 29.27    732.00     27.06
 29.37    646.00     25.42
 29.47    599.00     24.47
 29.57    630.00     25.10
 29.67    655.00     25.59
 29.77    630.44     25.11
 29.87    583.00     24.15
 29.97    588.00     24.25
 30.07    579.00     24.06
 30.17    526.60     22.95
 30.27    550.57     23.46
 30.37    598.00     24.45
 30.47    592.11     24.33
 30.57    624.05     24.98
 30.67    596.00     24.41
 30.77    594.43     24.38
 30.87    620.00     24.90
 30.97    640.00     25.30
 31.07    635.00     25.20
 31.17    643.63     25.37
 31.27    606.00     24.62
 31.37    596.00     24.41
 31.47    515.64     22.71
 31.57    590.00     24.29
 31.67    595.55     24.40
 31.77    552.00     23.49
 31.87    576.00     24.00
 31.97    527.11     22.96
 32.07    558.00     23.62
 32.17    535.33     23.14
 32.27    555.00     23.56
 32.37    549.00     23.43
 32.47    529.00     23.00
 32.57    537.00     23.17
 32.67    572.42     23.93
 32.77    541.00     23.26
 32.87    520.83     22.82
 32.97    579.00     24.06
 33.07    560.00     23.66
 33.17    501.77     22.40
 33.27    540.00     23.24
 33.37    594.24     24.38
 33.47    552.00     23.49
 33.57    573.00     23.94
 33.67    614.29     24.78
 33.77    666.00     25.81
 33.87    756.00     27.50
 33.97    870.17     29.50
 34.07    949.00     30.81
 34.17    998.64     31.60
 34.27    955.00     30.90
 34.37    900.00     30.00
 34.47    782.99     27.98
 34.57    689.52     26.26
 34.67    580.16     24.09
 34.77    556.31     23.59
 34.87    596.00     24.41
 34.97    550.00     23.45
 35.07    504.87     22.47
 35.17    546.94     23.39
 35.27    499.00     22.34
 35.37    543.00     23.30
 35.47    511.85     22.62
 35.57    510.00     22.58
 35.67    544.55     23.34
 35.77    563.74     23.74
 35.87    484.00     22.00
 35.97    566.07     23.79
 36.07    544.00     23.32
 36.17    535.00     23.13
 36.27    531.00     23.04
 36.37    548.24     23.41
 36.47    468.24     21.64
 36.57    501.00     22.38
 36.67    517.00     22.74
 36.77    514.00     22.67
 36.87    453.00     21.28
 36.97    486.00     22.05
 37.07    481.84     21.95
 37.17    514.62     22.69
 37.27    506.00     22.49
 37.37    509.00     22.56
 37.47    557.34     23.61
 37.57    527.00     22.96
 37.67    553.00     23.52
 37.77    553.00     23.52
 37.87    562.00     23.71
 37.97    557.00     23.60
 38.07    520.00     22.80
 38.17    548.83     23.43
 38.27    552.00     23.49
 38.37    534.00     23.11
 38.47    473.00     21.75
 38.57    518.00     22.76
 38.67    478.39     21.87
 38.77    521.83     22.84
 38.87    475.71     21.81
 38.97    483.92     22.00
 39.07    486.93     22.07
 39.17    541.11     23.26
 39.27    468.42     21.64
 39.37    461.91     21.49
 39.47    453.00     21.28
 39.57    517.18     22.74
 39.67    504.00     22.45
 39.77    493.00     22.20
 39.87    473.30     21.76
 39.97    497.00     22.29
 40.07    533.00     23.09
 40.17    437.00     20.90
 40.27    496.00     22.27
 40.37    519.00     22.78
 40.47    505.00     22.47
 40.57    481.00     21.93
 40.67    496.00     22.27
 40.77    491.00     22.16
 40.87    489.38     22.12
 40.97    508.00     22.54
 41.07    530.23     23.03
 41.17    542.00     23.28
 41.27    488.00     22.09
 41.37    471.00     21.70
 41.47    511.00     22.61
 41.57    478.00     21.86
 41.67    476.76     21.83
 41.77    477.00     21.84
 41.87    545.00     23.35
 41.97    482.00     21.95
 42.07    507.00     22.52
 42.17    505.00     22.47
 42.27    544.82     23.34
 42.37    522.00     22.85
 42.47    522.76     22.86
 42.57    615.91     24.82
 42.67    593.85     24.37
 42.77    582.00     24.12
 42.87    616.59     24.83
 42.97    553.00     23.52
 43.07    604.00     24.58
 43.17    488.00     22.09
 43.27    514.00     22.67
 43.37    523.00     22.87
 43.47    528.00     22.98
 43.57    458.77     21.42
 43.67    489.00     22.11
 43.77    468.42     21.64
 43.87    457.57     21.39
 43.97    476.00     21.82
 44.07    516.00     22.72
 44.17    525.00     22.91
 44.27    451.49     21.25
 44.37    532.27     23.07
 44.47    505.00     22.47
 44.57    536.00     23.15
 44.67    445.00     21.10
 44.77    503.00     22.43
 44.87    494.00     22.23
 44.97    476.75     21.83
 45.07    487.12     22.07
 45.17    467.00     21.61
 45.27    454.11     21.31
 45.37    496.00     22.27
 45.47    484.00     22.00
 45.57    502.89     22.43
 45.67    515.03     22.69
 45.77    534.00     23.11
 45.87    506.24     22.50
 45.97    475.83     21.81
 46.07    485.00     22.02
 46.17    487.00     22.07
 46.27    489.55     22.13
 46.37    470.44     21.69
 46.47    479.00     21.89
 46.57    501.00     22.38
 46.67    500.00     22.36
 46.77    487.00     22.07
 46.87    465.00     21.56
 46.97    510.00     22.58
 47.07    558.00     23.62
 47.17    534.50     23.12
 47.27    507.52     22.53
 47.37    534.00     23.11
 47.47    508.00     22.54
 47.57    552.00     23.49
 47.67    533.00     23.09
 47.77    536.00     23.15
 47.87    584.00     24.17
 47.97    593.57     24.36
 48.07    631.66     25.13
 48.17    553.20     23.52
 48.27    586.00     24.21
 48.37    533.00     23.09
 48.47    551.00     23.47
 48.57    526.00     22.93
 48.67    487.00     22.07
 48.77    579.43     24.07
 48.87    499.55     22.35
 48.97    476.00     21.82
 49.07    517.00     22.74
 49.17    519.02     22.78
 49.27    563.00     23.73
 49.37    587.00     24.23
 49.47    540.13     23.24
 49.57    650.79     25.51
 49.67    724.00     26.91
 49.77    749.85     27.38
 49.87   1012.00     31.81
 49.97   1260.00     35.50
 50.07   1591.00     39.89
 50.17   2000.11     44.72
 50.27   2242.87     47.36
 50.37   2266.18     47.60
 50.47   2208.14     46.99
 50.57   1940.00     44.05
 50.67   1521.00     39.00
 50.77   1177.00     34.31
 50.87    979.07     31.29
 50.97    742.00     27.24
 51.07    660.61     25.70
 51.17    648.00     25.46
 51.27    590.35     24.30
 51.37    642.00     25.34
 51.47    584.00     24.17
 51.57    576.54     24.01
 51.67    552.00     23.49
 51.77    594.87     24.39
 51.87    558.00     23.62
 51.97    580.00     24.08
 52.07    593.00     24.35
 52.17    544.00     23.32
 52.27    564.61     23.76
 52.37    516.28     22.72
 52.47    588.00     24.25
 52.57    572.00     23.92
 52.67    521.91     22.85
 52.77    561.00     23.69
 52.87    570.00     23.87
 52.97    611.00     24.72
 53.07    685.25     26.18
 53.17    691.00     26.29
 53.27    861.00     29.34
 53.37    959.52     30.98
 53.47   1076.00     32.80
 53.57   1172.00     34.23
 53.67   1205.55     34.72
 53.77   1125.74     33.55
 53.87   1146.00     33.85
 53.97    996.00     31.56
 54.07    873.00     29.55
 54.17    822.07     28.67
 54.27    747.61     27.34
 54.37    668.00     25.85
 54.47    602.00     24.54
 54.57    613.92     24.78
 54.67    610.00     24.70
 54.77    600.34     24.50
 54.87    557.00     23.60
 54.97    553.00     23.52
 55.07    588.15     24.25
 55.17    586.33     24.21
 55.27    601.00     24.52
 55.37    566.00     23.79
 55.47    577.38     24.03
 55.57    523.76     22.89
 55.67    633.00     25.16
 55.77    599.20     24.48
 55.87    623.23     24.96
 55.97    628.00     25.06
 56.07    642.00     25.34
 56.17    713.00     26.70
 56.27    729.74     27.01
 56.37    930.05     30.50
 56.47   1022.00     31.97
 56.57   1298.64     36.04
 56.67   1529.00     39.10
 56.77   1857.00     43.09
 56.87   2170.91     46.59
 56.97   2454.00     49.54
 57.07   2463.00     49.63
 57.17   2394.00     48.93
 57.27   2197.00     46.87
 57.37   1836.00     42.85
 57.47   1531.65     39.14
 57.57   1261.00     35.51
 57.67   1094.00     33.08
 57.77    968.13     31.11
 57.87    854.25     29.23
 57.97    756.00     27.50
 58.07    782.00     27.96
 58.17    730.00     27.02
 58.27    716.00     26.76
 58.37    729.02     27.00
 58.47    757.00     27.51
 58.57    804.49     28.36
 58.67    891.00     29.85
 58.77   1038.45     32.23
 58.87   1120.32     33.47
 58.97   1074.00     32.77
 59.07   1209.00     34.77
 59.17   1297.00     36.01
 59.27   1302.00     36.08
 59.37   1196.04     34.58
 59.47   1253.40     35.40
 59.57   1238.73     35.20
 59.67   1161.19     34.08
 59.77   1136.53     33.71
 59.87   1187.00     34.45
 59.97   1276.37     35.73
 60.07   1227.40     35.03
 60.17   1350.00     36.74
 60.27   1514.00     38.91
 60.37   1598.00     39.97
 60.47   1521.36     39.00
 60.57   1435.00     37.88
 60.67   1384.00     37.20
 60.77   1202.48     34.68
 60.87   1057.00     32.51
 60.97    882.40     29.71
 61.07    813.59     28.52
 61.17    740.00     27.20
 61.27    737.00     27.15
 61.37    694.94     26.36
 61.47    738.71     27.18
 61.57    728.00     26.98
 61.67    711.00     26.66
 61.77    812.00     28.50
 61.87    901.00     30.02
 61.97    950.00     30.82
 62.07   1078.38     32.84
 62.17   1251.00     35.37
 62.27   1242.00     35.24
 62.37   1341.00     36.62
 62.47   1312.00     36.22
 62.57   1289.97     35.92
 62.67   1110.39     33.32
 62.77    982.63     31.35
 62.87    863.00     29.38
 62.97    801.00     28.30
 63.07    730.00     27.02
 63.17    635.00     25.20
 63.27    659.00     25.67
 63.37    621.00     24.92
 63.47    566.58     23.80
 63.57    542.57     23.29
 63.67    616.00     24.82
 63.77    595.32     24.40
 63.87    602.00     24.54
 63.97    617.00     24.84
 64.07    649.44     25.48
 64.17    698.27     26.42
 64.27    751.00     27.40
 64.37    785.00     28.02
 64.47    883.00     29.72
 64.57    865.00     29.41
 64.67    931.00     30.51
 64.77   1001.00     31.64
 64.87   1061.00     32.57
 64.97   1027.00     32.05
 65.07    945.00     30.74
 65.17    913.91     30.23
 65.27    888.27     29.80
 65.37    796.00     28.21
 65.47    752.64     27.43
 65.57    762.82     27.62
 65.67    702.00     26.50
 65.77    668.82     25.86
 65.87    614.00     24.78
 65.97    566.00     23.79
 66.07    570.62     23.89
 66.17    569.00     23.85
 66.27    566.93     23.81
 66.37    578.00     24.04
 66.47    611.27     24.72
 66.57    522.00     22.85
 66.67    528.13     22.98
 66.77    566.80     23.81
 66.87    571.00     23.90
 66.97    583.00     24.15
 67.07    614.00     24.78
 67.17    618.00     24.86
 67.27    664.00     25.77
 67.37    798.26     28.25
 67.47    833.00     28.86
 67.57    911.00     30.18
 67.67   1193.65     34.55
 67.77   1376.25     37.10
 67.87   1453.00     38.12
 67.97   1825.07     42.72
 68.07   2043.85     45.21
 68.17   2258.00     47.52
 68.27   2275.00     47.70
 68.37   2340.00     48.37
 68.47   2310.12     48.06
 68.57   2015.00     44.89
 68.67   1841.00     42.91
 68.77   1628.00     40.35
 68.87   1283.53     35.83
 68.97   1183.00     34.39
 69.07    994.00     31.53
 69.17    906.87     30.11
 69.27    808.00     28.43
 69.37    751.00     27.40
 69.47    675.00     25.98
 69.57    630.94     25.12
 69.67    602.18     24.54
 69.77    599.00     24.47
 69.87    615.00     24.80
 69.97    579.00     24.06
 70.07    536.36     23.16
 70.17    573.00     23.94
 70.27    544.35     23.33
 70.37    606.00     24.62
 70.47    616.00     24.82
 70.57    596.98     24.43
 70.67    607.00     24.64
 70.77    597.24     24.44
 70.87    573.00     23.94
 70.97    633.95     25.18
 71.07    602.00     24.54
 71.17    699.04     26.44
 71.27    687.51     26.22
 71.37    755.00     27.48
 71.47    815.00     28.55
 71.57    910.00     30.17
 71.67   1101.00     33.18
 71.77   1246.73     35.31
 71.87   1442.00     37.97
 71.97   1642.00     40.52
 72.07   1729.00     41.58
 72.17   1767.00     42.04
 72.27   1810.00     42.54
 72.37   1890.00     43.47
 72.47   1754.84     41.89
 72.57   1563.67     39.54
 72.67   1440.71     37.96
 72.77   1344.00     36.66
 72.87   1126.25     33.56
 72.97   1016.00     31.87
 73.07    970.46     31.15
 73.17    839.00     28.97
 73.27    755.35     27.48
 73.37    739.00     27.18
 73.47    664.45     25.78
 73.57    610.00     24.70
 73.67    633.00     25.16
 73.77    619.35     24.89
 73.87    625.45     25.01
 73.97    558.00     23.62
 74.07    547.00     23.39
 74.17    620.69     24.91
 74.27    630.00     25.10
 74.37    581.00     24.10
 74.47    640.00     25.30
 74.57    574.00     23.96
 74.67    647.00     25.44
 74.77    606.00     24.62
 74.87    662.00     25.73
 74.97    649.00     25.48
 75.07    619.04     24.88
 75.17    692.00     26.31
 75.27    601.00     24.52
 75.37    611.00     24.72
 75.47    559.84     23.66
 75.57    540.22     23.24
 75.67    577.00     24.02
 75.77    582.00     24.12
 75.87    582.87     24.14
 75.97    630.95     25.12
 76.07    592.00     24.33
 76.17    633.00     25.16
 76.27    657.62     25.64
 76.37    615.00     24.80
 76.47    638.97     25.28
 76.57    706.22     26.57
 76.67    685.00     26.17
 76.77    666.00     25.81
 76.87    737.96     27.17
 76.97    683.00     26.13
 77.07    667.00     25.83
 77.17    701.41     26.48
 77.27    637.00     25.24
 77.37    614.12     24.78
 77.47    597.96     24.45
 77.57    587.00     24.23
 77.67    528.88     23.00
 77.77    549.08     23.43
 77.87    552.00     23.49
 77.97    562.00     23.71
 78.07    546.19     23.37
 78.17    487.00     22.07
 78.27    536.00     23.15
 78.37    523.00     22.87
 78.47    557.49     23.61
 78.57    551.00     23.47
 78.67    520.80     22.82
 78.77    548.00     23.41
 78.87    540.67     23.25
 78.97    498.34     22.32
 79.07    566.00     23.79
 79.17    514.00     22.67
 79.27    531.60     23.06
 79.37    557.08     23.60
 79.47    490.00     22.14
 79.57    484.00     22.00
 79.67    509.00     22.56
 79.77    512.00     22.63
 79.87    500.00     22.36
 79.97    548.80     23.43
 80.07    532.00     23.07
 80.17    540.72     23.25
 80.27    536.00     23.15
 80.37    542.00     23.28
 80.47    522.56     22.86
 80.57    578.13     24.04
 80.67    580.00     24.08
 80.77    603.73     24.57
 80.87    562.00     23.71
 80.97    622.45     24.95
 81.07    636.00     25.22
 81.17    703.00     26.51
 81.27    730.08     27.02
 81.37    762.00     27.60
 81.47    679.00     26.06
 81.57    695.00     26.36
 81.67    698.00     26.42
 81.77    707.00     26.59
 81.87    706.00     26.57
 81.97    725.00     26.93
 82.07    725.00     26.93
 82.17    715.00     26.74
 82.27    678.00     26.04
 82.37    631.76     25.13
 82.47    594.25     24.38
 82.57    641.00     25.32
 82.67    590.13     24.29
 82.77    589.97     24.29
 82.87    627.93     25.06
 82.97    600.00     24.49
 83.07    530.89     23.04
 83.17    585.00     24.19
 83.27    543.00     23.30
 83.37    537.00     23.17
 83.47    539.50     23.23
 83.57    533.00     23.09
 83.67    571.85     23.91
 83.77    533.22     23.09
 83.87    523.00     22.87
 83.97    514.00     22.67
 84.07    518.00     22.76
 84.17    544.00     23.32
 84.27    561.00     23.69
 84.37    559.00     23.64
 84.47    539.00     23.22
 84.57    553.36     23.52
 84.67    582.98     24.14
 84.77    500.00     22.36
 84.87    507.92     22.54
 84.97    543.00     23.30
 85.07    475.00     21.79
 85.17    538.00     23.19
 85.27    474.00     21.77
 85.37    561.00     23.69
 85.47    501.86     22.40
 85.57    507.00     22.52
 85.67    484.00     22.00
 85.77    491.00     22.16
 85.87    512.47     22.64
 85.97    482.00     21.95
 86.07    500.06     22.36
 86.17    527.00     22.96
 86.27    543.00     23.30
 86.37    538.87     23.21
 86.47    472.17     21.73
 86.57    472.37     21.73
 86.67    502.48     22.42
 86.77    512.00     22.63
 86.87    515.24     22.70
 86.97    493.49     22.21
 87.07    533.82     23.10
 87.17    569.00     23.85
 87.27    555.83     23.58
 87.37    632.00     25.14
 87.47    582.14     24.13
 87.57    614.00     24.78
 87.67    661.00     25.71
 87.77    666.00     25.81
 87.87    658.47     25.66
 87.97    614.00     24.78
 88.07    565.00     23.77
 88.17    641.56     25.33
 88.27    567.51     23.82
 88.37    572.00     23.92
 88.47    533.00     23.09
 88.57    549.00     23.43
 88.67    561.00     23.69
 88.77    564.89     23.77
 88.87    539.29     23.22
 88.97    562.00     23.71
 89.07    541.00     23.26
 89.17    603.00     24.56
 89.27    567.21     23.82
 89.37    577.00     24.02
 89.47    581.52     24.11
 89.57    574.00     23.96
 89.67    558.30     23.63
 89.77    588.00     24.25
 89.87    593.86     24.37
 89.97    596.00     24.41
 90.07    546.00     23.37
 90.17    605.61     24.61
 90.27    536.56     23.16
 90.37    525.55     22.92
 90.47    508.00     22.54
 90.57    578.84     24.06
 90.67    474.00     21.77
 90.77    525.67     22.93
 90.87    539.00     23.22
 90.97    506.00     22.49
 91.07    457.00     21.38
 91.17    465.00     21.56
 91.27    523.00     22.87
 91.37    504.00     22.45
 91.47    493.00     22.20
 91.57    534.00     23.11
 91.67    517.00     22.74
 91.77    515.00     22.69
 91.87    493.00     22.20
 91.97    547.55     23.40
 92.07    548.00     23.41
 92.17    544.00     23.32
 92.27    526.07     22.94
 92.37    563.00     23.73
 92.47    610.00     24.70
 92.57    520.00     22.80
 92.67    556.00     23.58
 92.77    641.64     25.33
 92.87    629.00     25.08
 92.97    614.00     24.78
 93.07    635.00     25.20
 93.17    666.00     25.81
 93.27    676.00     26.00
 93.37    661.00     25.71
 93.47    708.00     26.61
 93.57    734.00     27.09
 93.67    764.00     27.64
 93.77    761.00     27.59
 93.87    767.27     27.70
 93.97    744.35     27.28
 94.07    808.00     28.43
 94.17    849.64     29.15
 94.27    853.00     29.21
 94.37    827.00     28.76
 94.47    882.00     29.70
 94.57    854.00     29.22
 94.67    804.87     28.37
 94.77    886.00     29.77
 94.87    892.75     29.88
 94.97    921.00     30.35
 95.07    907.26     30.12
 95.17    874.00     29.56
 95.27    941.00     30.68
 95.37    857.93     29.29
 95.47    894.00     29.90
 95.57    833.00     28.86
 95.67    830.00     28.81
 95.77    789.00     28.09
 95.87    756.00     27.50
 95.97    764.00     27.64
 96.07    722.00     26.87
 96.17    699.00     26.44
 96.27    679.31     26.06
 96.37    704.00     26.53
 96.47    730.58     27.03
 96.57    707.38     26.60
 96.67    772.00     27.78
 96.77    842.41     29.02
 96.87    859.00     29.31
 96.97    928.00     30.46
 97.07    968.00     31.11
 97.17   1092.64     33.06
 97.27   1075.00     32.79
 97.37   1162.57     34.10
 97.47   1222.06     34.96
 97.57   1256.24     35.44
 97.67   1380.00     37.15
 97.77   1457.72     38.18
 97.87   1426.00     37.76
 97.97   1410.01     37.55
 98.07   1458.00     38.18
 98.17   1347.64     36.71
 98.27   1362.92     36.92
 98.37   1251.13     35.37
 98.47   1178.00     34.32
 98.57   1210.21     34.79
 98.67   1128.70     33.60
 98.77   1069.88     32.71
 98.87    963.47     31.04
 98.97    986.69     31.41
 99.07    948.00     30.79
 99.17    869.00     29.48
 99.27    879.00     29.65
 99.37    890.42     29.84
 99.47    870.00     29.50
 99.57    877.19     29.62
 99.67    928.00     30.46
 99.77    992.00     31.50
 99.87   1040.00     32.25
 99.97   1215.03     34.86
100.07   1176.84     34.31
100.17   1272.97     35.68
100.27   1366.00     36.96
100.37   1501.93     38.75
100.47   1578.95     39.74
100.57   1684.00     41.04
100.67   1742.00     41.74
100.77   1844.00     42.94
100.87   1874.00     43.29
100.97   2018.00     44.92
101.07   1826.00     42.73
101.17   1876.71     43.32
101.27   1980.00     44.50
101.37   1858.00     43.10
101.47   1871.67     43.26
101.57   1756.00     41.90
101.67   1743.00     41.75
101.77   1730.67     41.60
101.87   1580.00     39.75
101.97   1532.22     39.14
102.07   1501.00     38.74
102.17   1425.00     37.75
102.27   1353.00     36.78
102.37   1364.00     36.93
102.47   1253.00     35.40
102.57   1184.00     34.41
102.67   1137.77     33.73
102.77   1131.58     33.64
102.87   1116.00     33.41
102.97   1073.27     32.76
103.07   1100.00     33.17
103.17   1075.41     32.79
103.27   1033.00     32.14
103.37   1001.39     31.64
103.47    945.00     30.74
103.57    917.00     30.28
103.67    881.00     29.68
103.77    827.00     28.76
103.87    855.00     29.24
103.97    731.22     27.04
104.07    817.00     28.58
104.17    732.04     27.06
104.27    679.00     26.06
104.37    631.00     25.12
104.47    602.00     24.54
104.57    646.00     25.42
104.67    598.00     24.45
104.77    575.00     23.98
104.87    499.98     22.36
104.97    541.00     23.26
105.07    620.00     24.90
105.17    566.00     23.79
105.27    548.37     23.42
105.37    514.00     22.67
105.47    554.79     23.55
105.57    526.00     22.93
105.67    568.00     23.83
105.77    558.00     23.62
105.87    565.51     23.78
105.97    553.00     23.52
106.07    530.00     23.02
106.17    570.00     23.87
106.27    547.00     23.39
106.37    588.00     24.25
106.47    572.00     23.92
106.57    575.33     23.99
106.67    612.03     24.74
106.77    634.59     25.19
106.87    572.74     23.93
106.97    634.00     25.18
107.07    628.00     25.06
107.17    608.00     24.66
107.27    627.00     25.04
107.37    617.58     24.85
107.47    686.00     26.19
107.57    704.00     26.53
107.67    678.00     26.04
107.77    655.00     25.59
107.87    682.00     26.12
107.97    670.00     25.88
108.07    668.00     25.85
108.17    675.28     25.99
108.27    612.00     24.74
108.37    647.00     25.44
108.47    664.00     25.77
108.57    671.40     25.91
108.67    703.00     26.51
108.77    687.00     26.21
108.87    668.72     25.86
108.97    637.00     25.24
109.07    664.00     25.77
109.17    639.38     25.29
109.27    656.07     25.61
109.37    661.18     25.71
109.47    651.00     25.51
109.57    657.00     25.63
109.67    694.00     26.34
109.77    654.00     25.57
109.87    656.87     25.63
109.97    657.00     25.63
110.07    665.98     25.81
110.17    623.13     24.96
110.27    600.00     24.49
110.37    615.00     24.80
110.47    582.16     24.13
110.57    624.00     24.98
110.67    590.00     24.29
110.77    616.00     24.82
110.87    553.00     23.52
110.97    534.95     23.13
111.07    596.00     24.41
111.17    522.00     22.85
111.27    520.00     22.80
111.37    529.86     23.02
111.47    557.06     23.60
111.57    537.00     23.17
111.67    519.00     22.78
111.77    539.66     23.23
111.87    562.00     23.71
111.97    510.82     22.60
112.07    569.00     23.85
112.17    576.00     24.00
112.27    552.00     23.49
112.37    543.93     23.32
112.47    596.38     24.42
112.57    601.00     24.52
112.67    583.00     24.15
112.77    569.00     23.85
112.87    524.00     22.89
112.97    597.93     24.45
113.07    609.69     24.69
113.17    556.00     23.58
113.27    634.00     25.18
113.37    562.00     23.71
113.47    572.00     23.92
113.57    601.00     24.52
113.67    618.00     24.86
113.77    648.00     25.46
113.87    613.00     24.76
113.97    747.32     27.34
114.07    738.00     27.17
114.17    768.00     27.71
114.27    787.92     28.07
114.37    830.00     28.81
114.47    848.00     29.12
114.57    895.00     29.92
114.67   1019.20     31.92
114.77   1076.19     32.81
114.87   1166.08     34.15
114.97   1302.40     36.09
115.07   1447.00     38.04
115.17   1612.00     40.15
115.27   1845.00     42.95
115.37   2061.00     45.40
115.47   2178.42     46.67
115.57   2575.00     50.74
115.67   2821.85     53.12
115.77   3141.00     56.04
115.87   3604.00     60.03
115.97   3850.98     62.06
116.07   4163.00     64.52
116.17   4479.00     66.93
116.27   4839.00     69.56
116.37   5107.00     71.46
116.47   5708.60     75.56
116.57   5747.19     75.81
116.67   6337.14     79.61
116.77   6477.00     80.48
116.87   6476.31     80.48
116.97   6920.04     83.19
117.07   6997.99     83.65
117.17   6867.86     82.87
117.27   6840.00     82.70
117.37   6711.92     81.93
117.47   6595.00     81.21
117.57   6338.98     79.62
117.67   6113.08     78.19
117.77   5575.00     74.67
117.87   5181.00     71.98
117.97   5155.99     71.81
118.07   4843.44     69.59
118.17   4241.00     65.12
118.27   4009.00     63.32
118.37   3737.92     61.14
118.47   3361.27     57.98
118.57   3078.00     55.48
118.67   2798.17     52.90
118.77   2391.00     48.90
118.87   2129.00     46.14
118.97   1937.00     44.01
119.07   1852.72     43.04
119.17   1498.00     38.70
119.27   1418.88     37.67
119.37   1328.00     36.44
119.47   1125.13     33.54
119.57   1083.00     32.91
119.67   1087.00     32.97
119.77   1008.00     31.75
119.87    856.20     29.26
119.97    836.00     28.91
120.07    781.00     27.95
120.17    764.05     27.64
120.27    712.00     26.68
120.37    665.64     25.80
120.47    691.28     26.29
120.57    648.00     25.46
120.67    659.00     25.67
120.77    616.69     24.83
120.87    585.53     24.20
120.97    556.00     23.58
121.07    600.00     24.49
121.17    560.00     23.66
121.27    577.00     24.02
121.37    554.00     23.54
121.47    579.00     24.06
121.57    619.33     24.89
121.67    630.00     25.10
121.77    585.00     24.19
121.87    589.00     24.27
121.97    573.00     23.94
122.07    601.00     24.52
122.17    622.00     24.94
122.27    572.00     23.92
122.37    608.00     24.66
122.47    611.74     24.73
122.57    618.00     24.86
122.67    649.00     25.48
122.77    624.00     24.98
122.87    664.62     25.78
122.97    637.00     25.24
123.07    617.00     24.84
123.17    649.35     25.48
123.27    621.00     24.92
123.37    613.00     24.76
123.47    633.00     25.16
123.57    665.56     25.80
123.67    657.00     25.63
123.77    626.00     25.02
123.87    625.00     25.00
123.97    623.45     24.97
124.07    584.37     24.17
124.17    610.71     24.71
124.27    625.00     25.00
124.37    620.00     24.90
124.47    616.24     24.82
124.57    609.00     24.68
124.67    611.81     24.73
124.77    614.00     24.78
124.87    578.00     24.04
124.97    565.00     23.77
