XYDATA



INTER 1.0 1.0 0 0
TEMP 1074.0
  9.97    602.00     24.54
 10.07    572.00     23.92
 10.17    610.00     24.70
 10.27    556.78     23.60
 10.37    615.00     24.80
 10.47    581.71     24.12
 10.57    603.00     24.56
 10.67    547.08     23.39
 10.77    599.00     24.47
 10.87    636.00     25.22
 10.97    544.48     23.33
 11.07    573.00     23.94
 11.17    572.00     23.92
 11.27    570.00     23.87
 11.37    612.00     24.74
 11.47    597.00     24.43
 11.57    603.00     24.56
 11.67    608.00     24.66
 11.77    614.00     24.78
 11.87    622.59     24.95
 11.97    635.80     25.21
 12.07    649.00     25.48
 12.17    700.00     26.46
 12.27    696.00     26.38
 12.37    647.00     25.44
 12.47    626.25     25.03
 12.57    606.50     24.63
 12.67    638.34     25.27
 12.77    509.00     22.56
 12.87    574.00     23.96
 12.97    542.00     23.28
 13.07    529.00     23.00
 13.17    605.40     24.60
 13.27    557.00     23.60
 13.37    564.00     23.75
 13.47    576.00     24.00
 13.57    551.00     23.47
 13.67    554.96     23.56
 13.77    584.00     24.17
 13.87    549.00     23.43
 13.97    554.00     23.54
 14.07    547.77     23.40
 14.17    595.76     24.41
 14.27    559.00     23.64
 14.37    528.21     22.98
 14.47    561.00     23.69
 14.57    544.00     23.32
 14.67    557.36     23.61
 14.77    580.18     24.09
 14.87    535.00     23.13
 14.97    520.00     22.80
 15.07    552.14     23.50
 15.17    621.00     24.92
 15.27    537.00     23.17
 15.37    568.00     23.83
 15.47    615.38     24.81
 15.57    585.00     24.19
 15.67    603.45     24.57
 15.77    543.00     23.30
 15.87    575.00     23.98
 15.97    538.00     23.19
 16.07    527.35     22.96
 16.17    556.00     23.58
 16.27    546.00     23.37
 16.37    550.21     23.46
 16.47    577.00     24.02
 16.57    575.00     23.98
 16.67    537.06     23.17
 16.77    567.89     23.83
 16.87    574.65     23.97
 16.97    535.48     23.14
 17.07    542.00     23.28
 17.17    610.42     24.71
 17.27    581.28     24.11
 17.37    611.43     24.73
 17.47    520.00     22.80
 17.57    535.00     23.13
 17.67    601.50     24.53
 17.77    557.00     23.60
 17.87    558.00     23.62
 17.97    560.75     23.68
 18.07    576.00     24.00
 18.17    578.00     24.04
 18.27    571.12     23.90
 18.37    568.00     23.83
 18.47    572.00     23.92
 18.57    571.02     23.90
 18.67    579.00     24.06
 18.77    558.28     23.63
 18.87    589.00     24.27
 18.97    538.00     23.19
 19.07    601.00     24.52
 19.17    577.00     24.02
 19.27    598.00     24.45
 19.37    525.14     22.92
 19.47    532.28     23.07
 19.57    593.00     24.35
 19.67    583.00     24.15
 19.77    583.00     24.15
 19.87    593.00     24.35
 19.97    578.00     24.04
 20.07    593.30     24.36
 20.17    547.38     23.40
 20.27    583.63     24.16
 20.37    529.02     23.00
 20.47    566.07     23.79
 20.57    560.00     23.66
 20.67    548.00     23.41
 20.77    602.01     24.54
 20.87    568.00     23.83
 20.97    579.00     24.06
 21.07    540.00     23.24
 21.17    599.98     24.49
 21.27    553.00     23.52
 21.37    528.00     22.98
 21.47    546.00     23.37
 21.57    540.00     23.24
 21.67    580.00     24.08
 21.77    523.00     22.87
 21.87    521.00     22.83
 21.97    566.00     23.79
 22.07    569.00     23.85
 22.17    583.93     24.16
 22.27    554.00     23.54
 22.37    577.80     24.04
 22.47    585.51     24.20
 22.57    538.00     23.19
 22.67    522.50     22.86
 22.77    574.00     23.96
 22.87    580.17     24.09
 22.97    583.00     24.15
 23.07    520.00     22.80
 23.17    591.00     24.31
 23.27    599.01     24.47
 23.37    594.58     24.38
 23.47    533.00     23.09
 23.57    540.00     23.24
 23.67    536.48     23.16
 23.77    558.00     23.62
 23.87    532.51     23.08
 23.97    536.32     23.16
 24.07    506.89     22.51
 24.17    545.54     23.36
 24.27    543.68     23.32
 24.37    518.43     22.77
 24.47    587.00     24.23
 24.57    608.77     24.67
 24.67    648.00     25.46
 24.77    676.00     26.00
 24.87    563.00     23.73
 24.97    636.64     25.23
 25.07    578.07     24.04
 25.17    545.00     23.35
 25.27    565.00     23.77
 25.37    563.09     23.73
 25.47    567.00     23.81
 25.57    547.00     23.39
 25.67    547.73     23.40
 25.77    589.90     24.29
 25.87    508.46     22.55
 25.97    579.03     24.06
 26.07    541.00     23.26
 26.17    533.00     23.09
 26.27    520.00     22.80
 26.37    553.00     23.52
 26.47    535.00     23.13
 26.57    516.00     22.72
 26.67    582.14     24.13
 26.77    514.89     22.69
 26.87    547.00     23.39
 26.97    586.00     24.21
 27.07    544.00     23.32
 27.17    585.00     24.19
 27.27    597.00     24.43
 27.37    583.24     24.15
 27.47    560.00     23.66
 27.57    568.00     23.83
 27.67    577.00     24.02
 27.77    530.16     23.03
 27.87    595.00     24.39
 27.97    710.40     26.65
 28.07    801.91     28.32
 28.17    938.77     30.64
 28.27    928.00     30.46
 28.37    890.00     29.83
 28.47    710.00     26.65
 28.57    733.00     27.07
 28.67    686.00     26.19
 28.77    725.07     26.93
 28.87    734.00     27.09
 28.97    838.00     28.95
 29.07    769.00     27.73
 29.17    668.08     25.85
 29.27    610.00     24.70
 29.37    559.00     23.64
 29.47    620.00     24.90
 29.57    602.00     24.54
 29.67    643.00     25.36
 29.77    574.00     23.96
 29.87    586.00     24.21
 29.97    594.00     24.37
 30.07    543.00     23.30
 30.17    588.00     24.25
 30.27    567.00     23.81
 30.37    563.90     23.75
 30.47    556.00     23.58
 30.57    533.37     23.09
 30.67    579.01     24.06
 30.77    581.00     24.10
 30.87    610.00     24.70
 30.97    598.63     24.47
 31.07    598.00     24.45
 31.17    563.05     23.73
 31.27    559.00     23.64
 31.37    557.00     23.60
 31.47    495.19     22.25
 31.57    565.00     23.77
 31.67    508.12     22.54
 31.77    517.39     22.75
 31.87    541.27     23.27
 31.97    498.21     22.32
 32.07    531.00     23.04
 32.17    536.00     23.15
 32.27    561.45     23.69
 32.37    504.00     22.45
 32.47    568.00     23.83
 32.57    520.00     22.80
 32.67    518.00     22.76
 32.77    518.99     22.78
 32.87    554.00     23.54
 32.97    514.06     22.67
 33.07    562.00     23.71
 33.17    500.67     22.38
 33.27    520.00     22.80
 33.37    522.00     22.85
 33.47    599.12     24.48
 33.57    613.16     24.76
 33.67    610.84     24.72
 33.77    798.00     28.25
 33.87    849.00     29.14
 33.97    990.00     31.46
 34.07   1072.00     32.74
 34.17   1070.00     32.71
 34.27    876.19     29.60
 34.37    764.00     27.64
 34.47    675.00     25.98
 34.57    622.16     24.94
 34.67    537.33     23.18
 34.77    544.00     23.32
 34.87    515.00     22.69
 34.97    508.00     22.54
 35.07    544.61     23.34
 35.17    517.99     22.76
 35.27    517.00     22.74
 35.37    548.67     23.42
 35.47    499.00     22.34
 35.57    491.64     22.17
 35.67    549.00     23.43
 35.77    526.00     22.93
 35.87    527.24     22.96
 35.97    515.00     22.69
 36.07    478.26     21.87
 36.17    491.10     22.16
 36.27    472.00     21.73
 36.37    479.05     21.89
 36.47    517.17     22.74
 36.57    512.00     22.63
 36.67    524.00     22.89
 36.77    496.02     22.27
 36.87    511.86     22.62
 36.97    507.30     22.52
 37.07    539.24     23.22
 37.17    491.00     22.16
 37.27    529.11     23.00
 37.37    500.00     22.36
 37.47    515.99     22.72
 37.57    516.00     22.72
 37.67    488.91     22.11
 37.77    540.00     23.24
 37.87    530.00     23.02
 37.97    535.00     23.13
 38.07    471.00     21.70
 38.17    524.45     22.90
 38.27    503.17     22.43
 38.37    522.00     22.85
 38.47    525.00     22.91
 38.57    462.00     21.49
 38.67    531.00     23.04
 38.77    490.00     22.14
 38.87    493.00     22.20
 38.97    455.00     21.33
 39.07    502.00     22.41
 39.17    515.00     22.69
 39.27    544.95     23.34
 39.37    524.00     22.89
 39.47    517.43     22.75
 39.57    508.00     22.54
 39.67    503.02     22.43
 39.77    502.00     22.41
 39.87    468.00     21.63
 39.97    488.66     22.11
 40.07    461.45     21.48
 40.17    483.57     21.99
 40.27    534.00     23.11
 40.37    518.00     22.76
 40.47    461.00     21.47
 40.57    534.60     23.12
 40.67    452.00     21.26
 40.77    496.00     22.27
 40.87    498.63     22.33
 40.97    510.00     22.58
 41.07    492.00     22.18
 41.17    514.00     22.67
 41.27    496.00     22.27
 41.37    497.04     22.29
 41.47    487.00     22.07
 41.57    525.00     22.91
 41.67    495.48     22.26
 41.77    496.45     22.28
 41.87    491.00     22.16
 41.97    524.00     22.89
 42.07    513.00     22.65
 42.17    509.00     22.56
 42.27    545.00     23.35
 42.37    522.00     22.85
 42.47    559.00     23.64
 42.57    589.00     24.27
 42.67    587.00     24.23
 42.77    616.00     24.82
 42.87    552.00     23.49
 42.97    543.00     23.30
 43.07    589.01     24.27
 43.17    515.90     22.71
 43.27    532.47     23.08
 43.37    506.00     22.49
 43.47    491.65     22.17
 43.57    535.00     23.13
 43.67    521.00     22.83
 43.77    486.00     22.05
 43.87    464.00     21.54
 43.97    498.65     22.33
 44.07    539.73     23.23
 44.17    582.00     24.12
 44.27    505.00     22.47
 44.37    497.00     22.29
 44.47    461.46     21.48
 44.57    501.60     22.40
 44.67    535.00     23.13
 44.77    506.00     22.49
 44.87    490.00     22.14
 44.97    468.78     21.65
 45.07    537.00     23.17
 45.17    528.00     22.98
 45.27    531.00     23.04
 45.37    499.32     22.35
 45.47    495.00     22.25
 45.57    495.75     22.27
 45.67    524.56     22.90
 45.77    500.00     22.36
 45.87    518.22     22.76
 45.97    499.00     22.34
 46.07    469.41     21.67
 46.17    503.00     22.43
 46.27    526.00     22.93
 46.37    472.00     21.73
 46.47    484.00     22.00
 46.57    484.00     22.00
 46.67    516.00     22.72
 46.77    477.00     21.84
 46.87    508.00     22.54
 46.97    479.00     21.89
 47.07    530.61     23.03
 47.17    538.00     23.19
 47.27    512.00     22.63
 47.37    532.00     23.07
 47.47    559.00     23.64
 47.57    579.00     24.06
 47.67    531.30     23.05
 47.77    585.00     24.19
 47.87    589.00     24.27
 47.97    601.30     24.52
 48.07    571.00     23.90
 48.17    563.00     23.73
 48.27    557.92     23.62
 48.37    522.23     22.85
 48.47    537.00     23.17
 48.57    537.56     23.19
 48.67    532.00     23.07
 48.77    566.56     23.80
 48.87    539.58     23.23
 48.97    538.00     23.19
 49.07    584.00     24.17
 49.17    557.00     23.60
 49.27    593.12     24.35
 49.37    632.10     25.14
 49.47    725.00     26.93
 49.57    786.00     28.04
 49.67    890.01     29.83
 49.77   1153.00     33.96
 49.87   1503.00     38.77
 49.97   1866.20     43.20
 50.07   2309.11     48.05
 50.17   2475.00     49.75
 50.27   2492.12     49.92
 50.37   2213.57     47.05
 50.47   1799.00     42.41
 50.57   1403.00     37.46
 50.67   1092.61     33.05
 50.77    830.00     28.81
 50.87    704.00     26.53
 50.97    625.00     25.00
 51.07    579.00     24.06
 51.17    617.00     24.84
 51.27    581.00     24.10
 51.37    620.69     24.91
 51.47    585.00     24.19
 51.57    559.00     23.64
 51.67    575.00     23.98
 51.77    570.00     23.87
 51.87    508.00     22.54
 51.97    593.00     24.35
 52.07    539.22     23.22
 52.17    559.09     23.64
 52.27    580.00     24.08
 52.37    558.11     23.62
 52.47    563.00     23.73
 52.57    563.00     23.73
 52.67    593.00     24.35
 52.77    555.10     23.56
 52.87    672.00     25.92
 52.97    696.00     26.38
 53.07    804.35     28.36
 53.17    843.77     29.05
 53.27   1045.00     32.33
 53.37   1134.00     33.67
 53.47   1191.00     34.51
 53.57   1164.16     34.12
 53.67   1171.63     34.23
 53.77   1022.18     31.97
 53.87    825.43     28.73
 53.97    780.90     27.94
 54.07    644.60     25.39
 54.17    631.00     25.12
 54.27    612.00     24.74
 54.37    597.55     24.44
 54.47    573.00     23.94
 54.57    550.00     23.45
 54.67    563.00     23.73
 54.77    555.00     23.56
 54.87    542.00     23.28
 54.97    539.75     23.23
 55.07    534.00     23.11
 55.17    563.83     23.75
 55.27    588.64     24.26
 55.37    586.00     24.21
 55.47    567.00     23.81
 55.57    591.94     24.33
 55.67    559.67     23.66
 55.77    555.00     23.56
 55.87    557.00     23.60
 55.97    655.53     25.60
 56.07    638.00     25.26
 56.17    739.00     27.18
 56.27    911.00     30.18
 56.37   1058.00     32.53
 56.47   1388.00     37.26
 56.57   1780.00     42.19
 56.67   2086.00     45.67
 56.77   2557.42     50.57
 56.87   2632.74     51.31
 56.97   2552.00     50.52
 57.07   2408.00     49.07
 57.17   2064.37     45.44
 57.27   1614.00     40.17
 57.37   1255.00     35.43
 57.47   1037.61     32.21
 57.57    898.00     29.97
 57.67    770.00     27.75
 57.77    757.00     27.51
 57.87    712.00     26.68
 57.97    677.00     26.02
 58.07    664.00     25.77
 58.17    663.00     25.75
 58.27    774.88     27.84
 58.37    905.75     30.10
 58.47    969.00     31.13
 58.57   1121.00     33.48
 58.67   1218.00     34.90
 58.77   1425.27     37.75
 58.87   1500.00     38.73
 58.97   1490.00     38.60
 59.07   1550.00     39.37
 59.17   1472.07     38.37
 59.27   1538.00     39.22
 59.37   1371.00     37.03
 59.47   1162.00     34.09
 59.57   1131.06     33.63
 59.67   1180.00     34.35
 59.77   1194.00     34.55
 59.87   1130.47     33.62
 59.97   1343.00     36.65
 60.07   1462.00     38.24
 60.17   1549.00     39.36
 60.27   1607.00     40.09
 60.37   1521.45     39.01
 60.47   1411.00     37.56
 60.57   1312.00     36.22
 60.67   1113.25     33.37
 60.77    964.00     31.05
 60.87    798.00     28.25
 60.97    659.00     25.67
 61.07    685.00     26.17
 61.17    643.00     25.36
 61.27    631.00     25.12
 61.37    659.77     25.69
 61.47    629.00     25.08
 61.57    729.15     27.00
 61.67    819.00     28.62
 61.77   1017.00     31.89
 61.87   1143.27     33.81
 61.97   1228.00     35.04
 62.07   1334.44     36.53
 62.17   1400.00     37.42
 62.27   1335.00     36.54
 62.37   1304.00     36.11
 62.47   1186.00     34.44
 62.57   1036.00     32.19
 62.67    964.33     31.05
 62.77    784.00     28.00
 62.87    692.00     26.31
 62.97    641.00     25.32
 63.07    602.50     24.55
 63.17    556.00     23.58
 63.27    533.43     23.10
 63.37    571.71     23.91
 63.47    583.00     24.15
 63.57    561.00     23.69
 63.67    606.95     24.64
 63.77    602.00     24.54
 63.87    644.00     25.38
 63.97    654.42     25.58
 64.07    718.13     26.80
 64.17    771.00     27.77
 64.27    833.00     28.86
 64.37    945.38     30.75
 64.47   1018.90     31.92
 64.57   1015.19     31.86
 64.67    974.00     31.21
 64.77   1014.00     31.84
 64.87    925.11     30.42
 64.97    918.91     30.31
 65.07    864.00     29.39
 65.17    737.00     27.15
 65.27    706.00     26.57
 65.37    692.00     26.31
 65.47    650.00     25.50
 65.57    621.00     24.92
 65.67    613.00     24.76
 65.77    543.00     23.30
 65.87    560.00     23.66
 65.97    545.00     23.35
 66.07    538.65     23.21
 66.17    543.00     23.30
 66.27    586.13     24.21
 66.37    550.45     23.46
 66.47    538.00     23.19
 66.57    553.36     23.52
 66.67    614.25     24.78
 66.77    600.00     24.49
 66.87    568.46     23.84
 66.97    603.00     24.56
 67.07    632.00     25.14
 67.17    675.00     25.98
 67.27    777.00     27.87
 67.37    888.57     29.81
 67.47   1099.37     33.16
 67.57   1266.78     35.59
 67.67   1418.00     37.66
 67.77   1837.00     42.86
 67.87   2141.00     46.27
 67.97   2276.24     47.71
 68.07   2386.00     48.85
 68.17   2370.01     48.68
 68.27   2276.00     47.71
 68.37   2015.00     44.89
 68.47   1767.40     42.04
 68.57   1576.00     39.70
 68.67   1327.00     36.43
 68.77   1031.00     32.11
 68.87    844.00     29.05
 68.97    767.00     27.69
 69.07    739.00     27.18
 69.17    699.00     26.44
 69.27    651.64     25.53
 69.37    628.00     25.06
 69.47    601.00     24.52
 69.57    618.05     24.86
 69.67    551.00     23.47
 69.77    555.87     23.58
 69.87    560.00     23.66
 69.97    561.00     23.69
 70.07    592.30     24.34
 70.17    566.00     23.79
 70.27    624.00     24.98
 70.37    540.00     23.24
 70.47    542.62     23.29
 70.57    617.10     24.84
 70.67    555.00     23.56
 70.77    578.04     24.04
 70.87    644.00     25.38
 70.97    596.00     24.41
 71.07    635.25     25.20
 71.17    706.78     26.59
 71.27    804.00     28.35
 71.37    938.00     30.63
 71.47   1105.78     33.25
 71.57   1205.00     34.71
 71.67   1396.00     37.36
 71.77   1687.00     41.07
 71.87   1783.40     42.23
 71.97   1914.00     43.75
 72.07   1963.00     44.31
 72.17   1817.00     42.63
 72.27   1825.37     42.72
 72.37   1750.00     41.83
 72.47   1511.00     38.87
 72.57   1337.39     36.57
 72.67   1280.00     35.78
 72.77   1072.00     32.74
 72.87    914.00     30.23
 72.97    900.09     30.00
 73.07    774.00     27.82
 73.17    772.00     27.78
 73.27    743.80     27.27
 73.37    673.00     25.94
 73.47    630.00     25.10
 73.57    602.00     24.54
 73.67    605.00     24.60
 73.77    655.00     25.59
 73.87    595.15     24.40
 73.97    563.00     23.73
 74.07    557.00     23.60
 74.17    590.90     24.31
 74.27    643.00     25.36
 74.37    612.00     24.74
 74.47    559.99     23.66
 74.57    610.00     24.70
 74.67    634.00     25.18
 74.77    604.04     24.58
 74.87    569.37     23.86
 74.97    628.00     25.06
 75.07    585.00     24.19
 75.17    585.00     24.19
 75.27    578.00     24.04
 75.37    587.64     24.24
 75.47    581.92     24.12
 75.57    603.00     24.56
 75.67    612.66     24.75
 75.77    549.00     23.43
 75.87    602.00     24.54
 75.97    631.00     25.12
 76.07    610.00     24.70
 76.17    672.00     25.92
 76.27    692.58     26.32
 76.37    666.00     25.81
 76.47    724.00     26.91
 76.57    686.76     26.21
 76.67    704.00     26.53
 76.77    667.00     25.83
 76.87    634.00     25.18
 76.97    644.94     25.40
 77.07    660.74     25.70
 77.17    589.00     24.27
 77.27    578.71     24.06
 77.37    532.00     23.07
 77.47    540.00     23.24
 77.57    496.00     22.27
 77.67    521.00     22.83
 77.77    507.97     22.54
 77.87    513.00     22.65
 77.97    516.00     22.72
 78.07    556.91     23.60
 78.17    511.57     22.62
 78.27    543.00     23.30
 78.37    526.70     22.95
 78.47    533.81     23.10
 78.57    512.00     22.63
 78.67    514.00     22.67
 78.77    542.00     23.28
 78.87    552.00     23.49
 78.97    538.00     23.19
 79.07    509.00     22.56
 79.17    519.00     22.78
 79.27    547.32     23.39
 79.37    524.00     22.89
 79.47    515.00     22.69
 79.57    498.42     22.33
 79.67    534.00     23.11
 79.77    555.10     23.56
 79.87    562.00     23.71
 79.97    581.00     24.10
 80.07    544.00     23.32
 80.17    560.00     23.66
 80.27    598.98     24.47
 80.37    556.97     23.60
 80.47    569.00     23.85
 80.57    612.00     24.74
 80.67    587.22     24.23
 80.77    651.00     25.51
 80.87    684.00     26.15
 80.97    679.00     26.06
 81.07    711.00     26.66
 81.17    751.03     27.41
 81.27    736.00     27.13
 81.37    748.39     27.36
 81.47    720.95     26.85
 81.57    782.46     27.97
 81.67    760.00     27.57
 81.77    754.00     27.46
 81.87    694.68     26.36
 81.97    698.54     26.43
 82.07    698.81     26.43
 82.17    674.00     25.96
 82.27    650.00     25.50
 82.37    630.07     25.10
 82.47    578.00     24.04
 82.57    612.00     24.74
 82.67    564.52     23.76
 82.77    572.00     23.92
 82.87    563.69     23.74
 82.97    519.10     22.78
 83.07    524.00     22.89
 83.17    541.85     23.28
 83.27    554.00     23.54
 83.37    581.00     24.10
 83.47    544.00     23.32
 83.57    540.10     23.24
 83.67    548.00     23.41
 83.77    532.00     23.07
 83.87    606.36     24.62
 83.97    550.00     23.45
 84.07    550.00     23.45
 84.17    568.00     23.83
 84.27    531.00     23.04
 84.37    573.00     23.94
 84.47    555.00     23.56
 84.57    571.00     23.90
 84.67    551.00     23.47
 84.77    562.00     23.71
 84.87    545.00     23.35
 84.97    563.24     23.73
 85.07    535.36     23.14
 85.17    541.00     23.26
 85.27    536.91     23.17
 85.37    552.00     23.49
 85.47    578.00     24.04
 85.57    519.00     22.78
 85.67    502.00     22.41
 85.77    531.70     23.06
 85.87    534.00     23.11
 85.97    513.00     22.65
 86.07    525.00     22.91
 86.17    539.24     23.22
 86.27    547.00     23.39
 86.37    584.15     24.17
 86.47    527.20     22.96
 86.57    577.00     24.02
 86.67    578.00     24.04
 86.77    614.00     24.78
 86.87    618.11     24.86
 86.97    639.97     25.30
 87.07    645.57     25.41
 87.17    660.00     25.69
 87.27    667.00     25.83
 87.37    621.87     24.94
 87.47    700.00     26.46
 87.57    647.00     25.44
 87.67    637.00     25.24
 87.77    608.00     24.66
 87.87    639.00     25.28
 87.97    583.58     24.16
 88.07    574.42     23.97
 88.17    587.00     24.23
 88.27    575.00     23.98
 88.37    602.00     24.54
 88.47    559.00     23.64
 88.57    592.00     24.33
 88.67    541.00     23.26
 88.77    591.13     24.31
 88.87    593.00     24.35
 88.97    583.49     24.16
 89.07    625.00     25.00
 89.17    597.00     24.43
 89.27    586.48     24.22
 89.37    573.00     23.94
 89.47    572.58     23.93
 89.57    584.45     24.18
 89.67    554.00     23.54
 89.77    562.90     23.73
 89.87    613.09     24.76
 89.97    516.00     22.72
 90.07    556.19     23.58
 90.17    532.00     23.07
 90.27    534.00     23.11
 90.37    564.12     23.75
 90.47    578.88     24.06
 90.57    525.00     22.91
 90.67    523.80     22.89
 90.77    572.95     23.94
 90.87    488.00     22.09
 90.97    525.00     22.91
 91.07    561.00     23.69
 91.17    491.83     22.18
 91.27    488.45     22.10
 91.37    506.79     22.51
 91.47    543.00     23.30
 91.57    543.00     23.30
 91.67    519.54     22.79
 91.77    548.00     23.41
 91.87    527.00     22.96
 91.97    523.76     22.89
 92.07    547.23     23.39
 92.17    636.00     25.22
 92.27    568.00     23.83
 92.37    607.00     24.64
 92.47    624.00     24.98
 92.57    633.00     25.16
 92.67    616.33     24.83
 92.77    661.66     25.72
 92.87    695.00     26.36
 92.97    745.00     27.29
 93.07    770.77     27.76
 93.17    761.13     27.59
 93.27    758.00     27.53
 93.37    785.00     28.02
 93.47    794.00     28.18
 93.57    833.00     28.86
 93.67    779.77     27.92
 93.77    845.00     29.07
 93.87    819.00     28.62
 93.97    803.00     28.34
 94.07    854.06     29.22
 94.17    894.69     29.91
 94.27    836.00     28.91
 94.37    909.00     30.15
 94.47    909.00     30.15
 94.57    845.41     29.08
 94.67    859.43     29.32
 94.77    903.00     30.05
 94.87    911.00     30.18
 94.97    927.00     30.45
 95.07    914.00     30.23
 95.17    889.72     29.83
 95.27    868.00     29.46
 95.37    822.00     28.67
 95.47    748.00     27.35
 95.57    797.00     28.23
 95.67    750.00     27.39
 95.77    688.12     26.23
 95.87    675.10     25.98
 95.97    696.00     26.38
 96.07    693.00     26.32
 96.17    749.60     27.38
 96.27    757.00     27.51
 96.37    730.00     27.02
 96.47    782.00     27.96
 96.57    795.00     28.20
 96.67    902.00     30.03
 96.77   1036.70     32.20
 96.87   1033.17     32.14
 96.97   1079.00     32.85
 97.07   1261.22     35.51
 97.17   1277.00     35.74
 97.27   1372.00     37.04
 97.37   1403.00     37.46
 97.47   1471.89     38.37
 97.57   1487.14     38.56
 97.67   1464.00     38.26
 97.77   1344.00     36.66
 97.87   1353.01     36.78
 97.97   1348.16     36.72
 98.07   1144.00     33.82
 98.17   1184.00     34.41
 98.27   1071.98     32.74
 98.37   1048.04     32.37
 98.47    954.00     30.89
 98.57    858.48     29.30
 98.67    866.00     29.43
 98.77    856.41     29.26
 98.87    774.00     27.82
 98.97    810.00     28.46
 99.07    823.00     28.69
 99.17    806.00     28.39
 99.27    847.00     29.10
 99.37    972.61     31.19
 99.47    993.39     31.52
 99.57   1121.00     33.48
 99.67   1156.74     34.01
 99.77   1294.06     35.97
 99.87   1425.12     37.75
 99.97   1576.73     39.71
100.07   1618.22     40.23
100.17   1762.00     41.98
100.27   1879.00     43.35
100.37   1906.00     43.66
100.47   1973.31     44.42
100.57   2107.00     45.90
100.67   1987.34     44.58
100.77   2052.11     45.30
100.87   2145.32     46.32
100.97   1938.79     44.03
101.07   1997.29     44.69
101.17   1881.22     43.37
101.27   1870.00     43.24
101.37   1794.78     42.36
101.47   1607.00     40.09
101.57   1520.53     38.99
101.67   1480.00     38.47
101.77   1361.00     36.89
101.87   1280.00     35.78
101.97   1247.00     35.31
102.07   1220.98     34.94
102.17   1162.00     34.09
102.27   1135.00     33.69
102.37   1137.26     33.72
102.47   1143.00     33.81
102.57   1013.00     31.83
102.67   1030.87     32.11
102.77    966.49     31.09
102.87   1052.00     32.43
102.97    971.00     31.16
103.07    906.00     30.10
103.17    847.00     29.10
103.27    887.58     29.79
103.37    857.00     29.27
103.47    772.00     27.78
103.57    760.15     27.57
103.67    651.88     25.53
103.77    701.00     26.48
103.87    634.08     25.18
103.97    575.05     23.98
104.07    547.41     23.40
104.17    586.00     24.21
104.27    553.00     23.52
104.37    583.00     24.15
104.47    532.00     23.07
104.57    583.00     24.15
104.67    566.00     23.79
104.77    501.40     22.39
104.87    533.00     23.09
104.97    507.00     22.52
105.07    523.00     22.87
105.17    599.00     24.47
105.27    497.00     22.29
105.37    519.00     22.78
105.47    562.71     23.72
105.57    546.00     23.37
105.67    521.49     22.84
105.77    556.00     23.58
105.87    569.59     23.87
105.97    541.18     23.26
106.07    538.00     23.19
106.17    542.78     23.30
106.27    594.00     24.37
106.37    598.00     24.45
106.47    585.00     24.19
106.57    579.00     24.06
106.67    616.56     24.83
106.77    636.00     25.22
106.87    638.00     25.26
106.97    682.18     26.12
107.07    686.00     26.19
107.17    673.00     25.94
107.27    686.20     26.20
107.37    672.00     25.92
107.47    730.49     27.03
107.57    589.00     24.27
107.67    683.03     26.13
107.77    648.84     25.47
107.87    683.13     26.14
107.97    634.00     25.18
108.07    688.00     26.23
108.17    682.00     26.12
108.27    700.00     26.46
108.37    713.12     26.70
108.47    656.94     25.63
108.57    706.00     26.57
108.67    708.00     26.61
108.77    699.00     26.44
108.87    673.00     25.94
108.97    725.06     26.93
109.07    687.00     26.21
109.17    647.56     25.45
109.27    703.00     26.51
109.37    623.84     24.98
109.47    659.00     25.67
109.57    642.00     25.34
109.67    626.25     25.03
109.77    588.00     24.25
109.87    591.00     24.31
109.97    540.72     23.25
110.07    579.00     24.06
110.17    542.13     23.28
110.27    579.00     24.06
110.37    568.00     23.83
110.47    559.00     23.64
110.57    597.00     24.43
110.67    552.00     23.49
110.77    528.00     22.98
110.87    500.17     22.36
110.97    523.00     22.87
111.07    526.26     22.94
111.17    553.00     23.52
111.27    504.36     22.46
111.37    558.00     23.62
111.47    551.00     23.47
111.57    533.39     23.10
111.67    537.92     23.19
111.77    550.00     23.45
111.87    556.00     23.58
111.97    516.00     22.72
112.07    577.00     24.02
112.17    581.00     24.10
112.27    584.00     24.17
112.37    524.00     22.89
112.47    518.00     22.76
112.57    572.00     23.92
112.67    591.22     24.31
112.77    618.00     24.86
112.87    635.00     25.20
112.97    641.00     25.32
113.07    639.18     25.28
113.17    702.00     26.50
113.27    753.97     27.46
113.37    721.00     26.85
113.47    796.70     28.23
113.57    795.00     28.20
113.67    858.00     29.29
113.77    901.00     30.02
113.87    929.00     30.48
113.97    994.22     31.53
114.07   1036.00     32.19
114.17   1158.00     34.03
114.27   1057.00     32.51
114.37   1252.00     35.38
114.47   1368.00     36.99
114.57   1491.03     38.61
114.67   1655.00     40.68
114.77   1676.35     40.94
114.87   1833.23     42.82
114.97   2132.32     46.18
115.07   2374.00     48.72
115.17   2566.00     50.66
115.27   2747.00     52.41
115.37   3149.58     56.12
115.47   3365.11     58.01
115.57   3638.00     60.32
115.67   4069.00     63.79
115.77   4470.00     66.86
115.87   5000.24     70.71
115.97   5205.36     72.15
116.07   5834.94     76.39
116.17   5895.33     76.78
116.27   6262.80     79.14
116.37   6490.20     80.56
116.47   6828.34     82.63
116.57   6951.51     83.38
116.67   6969.00     83.48
116.77   6937.00     83.29
116.87   6840.00     82.70
116.97   6621.00     81.37
117.07   6563.00     81.01
117.17   6190.00     78.68
117.27   5672.00     75.31
117.37   5380.00     73.35
117.47   4988.00     70.63
117.57   4583.00     67.70
117.67   4389.00     66.25
117.77   4042.00     63.58
117.87   3512.51     59.27
117.97   3307.00     57.51
118.07   2937.00     54.19
118.17   2460.69     49.61
118.27   2246.00     47.39
118.37   1973.00     44.42
118.47   1750.00     41.83
118.57   1507.27     38.82
118.67   1373.98     37.07
118.77   1231.00     35.09
118.87   1139.13     33.75
118.97   1044.96     32.33
119.07   1013.00     31.83
119.17    846.38     29.09
119.27    811.27     28.48
119.37    748.00     27.35
119.47    733.00     27.07
119.57    725.90     26.94
119.67    653.00     25.55
119.77    608.00     24.66
119.87    668.00     25.85
119.97    603.00     24.56
120.07    623.01     24.96
120.17    597.00     24.43
120.27    569.00     23.85
120.37    587.00     24.23
120.47    515.00     22.69
120.57    559.00     23.64
120.67    557.51     23.61
120.77    577.07     24.02
120.87    606.78     24.63
120.97    571.00     23.90
121.07    542.77     23.30
121.17    543.00     23.30
121.27    584.00     24.17
121.37    571.00     23.90
121.47    552.42     23.50
121.57    597.88     24.45
121.67    591.62     24.32
121.77    600.00     24.49
121.87    573.00     23.94
121.97    616.00     24.82
122.07    610.00     24.70
122.17    606.00     24.62
122.27    634.00     25.18
122.37    610.95     24.72
122.47    646.60     25.43
122.57    682.00     26.12
122.67    625.00     25.00
122.77    668.99     25.86
122.87    695.00     26.36
122.97    687.00     26.21
123.07    650.00     25.50
123.17    607.09     24.64
123.27    664.00     25.77
123.37    631.65     25.13
123.47    678.00     26.04
123.57    593.85     24.37
123.67    585.28     24.19
123.77    685.00     26.17
123.87    641.00     25.32
123.97    605.19     24.60
124.07    571.27     23.90
124.17    646.00     25.42
124.27    585.53     24.20
124.37    663.00     25.75
124.47    601.00     24.52
124.57    570.00     23.87
124.67    556.00     23.58
124.77    604.76     24.59
124.87    530.00     23.02
124.97    567.00     23.81
