XYDATA



INTER 1.0 1.0 0 0
TEMP 1074.0
  9.97    599.00     24.47
 10.07    532.62     23.08
 10.17    596.00     24.41
 10.27    530.62     23.04
 10.37    595.72     24.41
 10.47    614.07     24.78
 10.57    590.00     24.29
 10.67    614.00     24.78
 10.77    583.00     24.15
 10.87    586.90     24.23
 10.97    590.00     24.29
 11.07    580.00     24.08
 11.17    587.00     24.23
 11.27    562.16     23.71
 11.37    585.65     24.20
 11.47    531.42     23.05
 11.57    599.00     24.47
 11.67    617.93     24.86
 11.77    632.00     25.14
 11.87    655.00     25.59
 11.97    667.42     25.83
 12.07    675.00     25.98
 12.17    660.00     25.69
 12.27    702.00     26.50
 12.37    630.34     25.11
 12.47    629.00     25.08
 12.57    644.00     25.38
 12.67    550.82     23.47
 12.77    571.00     23.90
 12.87    548.00     23.41
 12.97    547.00     23.39
 13.07    574.00     23.96
 13.17    551.22     23.48
 13.27    604.61     24.59
 13.37    541.57     23.27
 13.47    555.00     23.56
 13.57    544.19     23.33
 13.67    541.00     23.26
 13.77    580.00     24.08
 13.87    589.00     24.27
 13.97    601.12     24.52
 14.07    565.45     23.78
 14.17    556.00     23.58
 14.27    565.00     23.77
 14.37    517.00     22.74
 14.47    602.00     24.54
 14.57    566.00     23.79
 14.67    589.42     24.28
 14.77    593.00     24.35
 14.87    566.78     23.81
 14.97    601.00     24.52
 15.07    567.00     23.81
 15.17    534.00     23.11
 15.27    555.00     23.56
 15.37    535.17     23.13
 15.47    533.66     23.10
 15.57    585.50     24.20
 15.67    539.00     23.22
 15.77    582.00     24.12
 15.87    516.00     22.72
 15.97    589.13     24.27
 16.07    559.00     23.64
 16.17    562.00     23.71
 16.27    573.00     23.94
 16.37    555.00     23.56
 16.47    517.00     22.74
 16.57    545.10     23.35
 16.67    548.46     23.42
 16.77    579.00     24.06
 16.87    558.00     23.62
 16.97    568.75     23.85
 17.07    577.00     24.02
 17.17    531.74     23.06
 17.27    568.00     23.83
 17.37    553.22     23.52
 17.47    596.85     24.43
 17.57    533.32     23.09
 17.67    597.02     24.43
 17.77    523.72     22.89
 17.87    533.00     23.09
 17.97    540.00     23.24
 18.07    532.00     23.07
 18.17    550.00     23.45
 18.27    572.00     23.92
 18.37    558.00     23.62
 18.47    566.00     23.79
 18.57    580.26     24.09
 18.67    542.20     23.29
 18.77    553.00     23.52
 18.87    551.00     23.47
 18.97    531.10     23.05
 19.07    514.00     22.67
 19.17    547.00     23.39
 19.27    516.35     22.72
 19.37    573.00     23.94
 19.47    567.00     23.81
 19.57    499.00     22.34
 19.67    539.00     23.22
 19.77    567.00     23.81
 19.87    572.93     23.94
 19.97    566.98     23.81
 20.07    552.00     23.49
 20.17    559.00     23.64
 20.27    503.00     22.43
 20.37    559.00     23.64
 20.47    521.00     22.83
 20.57    560.00     23.66
 20.67    538.00     23.19
 20.77    575.35     23.99
 20.87    520.00     22.80
 20.97    575.00     23.98
 21.07    599.34     24.48
 21.17    574.06     23.96
 21.27    534.40     23.12
 21.37    533.00     23.09
 21.47    554.00     23.54
 21.57    539.00     23.22
 21.67    509.00     22.56
 21.77    608.00     24.66
 21.87    525.29     22.92
 21.97    503.00     22.43
 22.07    542.00     23.28
 22.17    518.14     22.76
 22.27    513.53     22.66
 22.37    550.00     23.45
 22.47    526.00     22.93
 22.57    597.00     24.43
 22.67    535.07     23.13
 22.77    521.37     22.83
 22.87    556.00     23.58
 22.97    526.00     22.93
 23.07    562.23     23.71
 23.17    578.00     24.04
 23.27    591.13     24.31
 23.37    556.00     23.58
 23.47    524.47     22.90
 23.57    576.00     24.00
 23.67    553.22     23.52
 23.77    549.00     23.43
 23.87    536.00     23.15
 23.97    509.21     22.57
 24.07    571.62     23.91
 24.17    553.00     23.52
 24.27    574.00     23.96
 24.37    593.39     24.36
 24.47    627.00     25.04
 24.57    603.00     24.56
 24.67    632.00     25.14
 24.77    634.00     25.18
 24.87    632.00     25.14
 24.97    652.00     25.53
 25.07    580.00     24.08
 25.17    613.00     24.76
 25.27    549.00     23.43
 25.37    574.00     23.96
 25.47    513.00     22.65
 25.57    539.00     23.22
 25.67    550.00     23.45
 25.77    562.00     23.71
 25.87    560.00     23.66
 25.97    514.00     22.67
 26.07    543.00     23.30
 26.17    536.91     23.17
 26.27    538.00     23.19
 26.37    546.84     23.38
 26.47    523.00     22.87
 26.57    573.00     23.94
 26.67    538.57     23.21
 26.77    530.66     23.04
 26.87    509.30     22.57
 26.97    538.00     23.19
 27.07    570.00     23.87
 27.17    543.81     23.32
 27.27    608.00     24.66
 27.37    533.92     23.11
 27.47    544.00     23.32
 27.57    521.71     22.84
 27.67    564.00     23.75
 27.77    574.11     23.96
 27.87    551.87     23.49
 27.97    695.75     26.38
 28.07    801.41     28.31
 28.17    907.00     30.12
 28.27   1004.00     31.69
 28.37    871.00     29.51
 28.47    822.00     28.67
 28.57    711.00     26.66
 28.67    707.00     26.59
 28.77    720.00     26.83
 28.87    761.00     27.59
 28.97    817.00     28.58
 29.07    735.00     27.11
 29.17    738.88     27.18
 29.27    600.95     24.51
 29.37    611.00     24.72
 29.47    563.00     23.73
 29.57    582.00     24.12
 29.67    558.80     23.64
 29.77    609.06     24.68
 29.87    520.81     22.82
 29.97    592.00     24.33
 30.07    586.00     24.21
 30.17    523.00     22.87
 30.27    584.00     24.17
 30.37    551.50     23.48
 30.47    526.01     22.94
 30.57    565.00     23.77
 30.67    601.00     24.52
 30.77    573.00     23.94
 30.87    653.00     25.55
 30.97    609.03     24.68
 31.07    663.00     25.75
 31.17    585.00     24.19
 31.27    521.80     22.84
 31.37    521.55     22.84
 31.47    547.78     23.40
 31.57    587.00     24.23
 31.67    471.00     21.70
 31.77    555.00     23.56
 31.87    502.96     22.43
 31.97    514.00     22.67
 32.07    544.00     23.32
 32.17    568.00     23.83
 32.27    554.08     23.54
 32.37    562.00     23.71
 32.47    587.00     24.23
 32.57    544.53     23.34
 32.67    527.76     22.97
 32.77    570.58     23.89
 32.87    521.77     22.84
 32.97    544.00     23.32
 33.07    503.00     22.43
 33.17    513.94     22.67
 33.27    551.00     23.47
 33.37    570.63     23.89
 33.47    577.00     24.02
 33.57    610.00     24.70
 33.67    608.00     24.66
 33.77    730.67     27.03
 33.87    882.00     29.70
 33.97   1062.00     32.59
 34.07   1016.00     31.87
 34.17    966.00     31.08
 34.27    935.00     30.58
 34.37    752.00     27.42
 34.47    696.95     26.40
 34.57    586.00     24.21
 34.67    550.00     23.45
 34.77    567.69     23.83
 34.87    537.00     23.17
 34.97    533.00     23.09
 35.07    542.00     23.28
 35.17    553.41     23.52
 35.27    510.00     22.58
 35.37    523.00     22.87
 35.47    528.00     22.98
 35.57    529.85     23.02
 35.67    541.00     23.26
 35.77    517.00     22.74
 35.87    557.00     23.60
 35.97    561.89     23.70
 36.07    513.00     22.65
 36.17    529.00     23.00
 36.27    552.00     23.49
 36.37    505.00     22.47
 36.47    525.53     22.92
 36.57    552.79     23.51
 36.67    508.69     22.55
 36.77    477.00     21.84
 36.87    479.81     21.90
 36.97    552.71     23.51
 37.07    522.00     22.85
 37.17    522.00     22.85
 37.27    512.00     22.63
 37.37    512.00     22.63
 37.47    558.57     23.63
 37.57    514.00     22.67
 37.67    533.00     23.09
 37.77    521.69     22.84
 37.87    508.68     22.55
 37.97    556.03     23.58
 38.07    501.09     22.38
 38.17    529.97     23.02
 38.27    497.00     22.29
 38.37    490.64     22.15
 38.47    464.00     21.54
 38.57    496.00     22.27
 38.67    477.25     21.85
 38.77    485.67     22.04
 38.87    552.53     23.51
 38.97    491.00     22.16
 39.07    517.00     22.74
 39.17    481.00     21.93
 39.27    501.87     22.40
 39.37    504.72     22.47
 39.47    540.86     23.26
 39.57    507.00     22.52
 39.67    494.00     22.23
 39.77    501.06     22.38
 39.87    512.63     22.64
 39.97    495.00     22.25
 40.07    500.00     22.36
 40.17    520.00     22.80
 40.27    482.00     21.95
 40.37    480.00     21.91
 40.47    488.00     22.09
 40.57    500.00     22.36
 40.67    496.00     22.27
 40.77    556.00     23.58
 40.87    534.00     23.11
 40.97    526.60     22.95
 41.07    491.44     22.17
 41.17    519.88     22.80
 41.27    518.00     22.76
 41.37    550.79     23.47
 41.47    504.00     22.45
 41.57    488.00     22.09
 41.67    504.00     22.45
 41.77    522.00     22.85
 41.87    484.00     22.00
 41.97    489.00     22.11
 42.07    536.27     23.16
 42.17    549.00     23.43
 42.27    555.00     23.56
 42.37    592.17     24.33
 42.47    587.00     24.23
 42.57    638.76     25.27
 42.67    608.00     24.66
 42.77    655.80     25.61
 42.87    635.79     25.21
 42.97    568.00     23.83
 43.07    525.75     22.93
 43.17    519.66     22.80
 43.27    519.00     22.78
 43.37    521.61     22.84
 43.47    507.00     22.52
 43.57    489.00     22.11
 43.67    485.00     22.02
 43.77    534.00     23.11
 43.87    549.00     23.43
 43.97    510.00     22.58
 44.07    514.00     22.67
 44.17    523.00     22.87
 44.27    466.18     21.59
 44.37    504.00     22.45
 44.47    526.00     22.93
 44.57    504.00     22.45
 44.67    539.00     23.22
 44.77    477.00     21.84
 44.87    541.00     23.26
 44.97    524.05     22.89
 45.07    494.00     22.23
 45.17    481.02     21.93
 45.27    509.23     22.57
 45.37    531.17     23.05
 45.47    512.85     22.65
 45.57    498.00     22.32
 45.67    526.73     22.95
 45.77    513.90     22.67
 45.87    489.94     22.13
 45.97    470.49     21.69
 46.07    517.67     22.75
 46.17    504.00     22.45
 46.27    464.54     21.55
 46.37    527.56     22.97
 46.47    502.00     22.41
 46.57    510.00     22.58
 46.67    517.00     22.74
 46.77    479.04     21.89
 46.87    478.00     21.86
 46.97    507.08     22.52
 47.07    500.00     22.36
 47.17    508.36     22.55
 47.27    573.00     23.94
 47.37    493.84     22.22
 47.47    533.22     23.09
 47.57    591.71     24.33
 47.67    621.00     24.92
 47.77    582.00     24.12
 47.87    573.79     23.95
 47.97    600.00     24.49
 48.07    575.00     23.98
 48.17    599.00     24.47
 48.27    589.83     24.29
 48.37    518.00     22.76
 48.47    515.78     22.71
 48.57    568.00     23.83
 48.67    528.00     22.98
 48.77    557.00     23.60
 48.87    521.00     22.83
 48.97    570.00     23.87
 49.07    567.88     23.83
 49.17    586.00     24.21
 49.27    604.00     24.58
 49.37    649.00     25.48
 49.47    693.00     26.32
 49.57    800.00     28.28
 49.67    893.00     29.88
 49.77   1119.86     33.46
 49.87   1488.27     38.58
 49.97   1786.00     42.26
 50.07   2209.00     47.00
 50.17   2558.93     50.59
 50.27   2482.00     49.82
 50.37   2199.00     46.89
 50.47   1829.83     42.78
 50.57   1396.00     37.36
 50.67   1085.09     32.94
 50.77    852.00     29.19
 50.87    687.00     26.21
 50.97    661.00     25.71
 51.07    623.00     24.96
 51.17    639.00     25.28
 51.27    612.00     24.74
 51.37    588.00     24.25
 51.47    581.00     24.10
 51.57    543.00     23.30
 51.67    511.92     22.63
 51.77    502.27     22.41
 51.87    541.00     23.26
 51.97    620.00     24.90
 52.07    563.00     23.73
 52.17    506.84     22.51
 52.27    593.00     24.35
 52.37    529.00     23.00
 52.47    590.00     24.29
 52.57    580.00     24.08
 52.67    542.26     23.29
 52.77    617.85     24.86
 52.87    674.47     25.97
 52.97    678.82     26.05
 53.07    768.96     27.73
 53.17    951.97     30.85
 53.27    982.00     31.34
 53.37   1097.67     33.13
 53.47   1270.40     35.64
 53.57   1201.85     34.67
 53.67   1149.00     33.90
 53.77    955.06     30.90
 53.87    835.00     28.90
 53.97    689.00     26.25
 54.07    705.00     26.55
 54.17    654.75     25.59
 54.27    611.00     24.72
 54.37    540.11     23.24
 54.47    556.00     23.58
 54.57    591.00     24.31
 54.67    539.26     23.22
 54.77    550.00     23.45
 54.87    506.00     22.49
 54.97    583.72     24.16
 55.07    588.27     24.25
 55.17    513.35     22.66
 55.27    551.00     23.47
 55.37    564.00     23.75
 55.47    586.00     24.21
 55.57    528.58     22.99
 55.67    599.00     24.47
 55.77    545.00     23.35
 55.87    596.00     24.41
 55.97    669.82     25.88
 56.07    683.70     26.15
 56.17    760.00     27.57
 56.27    946.76     30.77
 56.37   1104.00     33.23
 56.47   1343.00     36.65
 56.57   1761.83     41.97
 56.67   2142.38     46.29
 56.77   2577.23     50.77
 56.87   2739.27     52.34
 56.97   2655.00     51.53
 57.07   2320.60     48.17
 57.17   2053.00     45.31
 57.27   1688.00     41.09
 57.37   1325.31     36.40
 57.47   1034.00     32.16
 57.57    866.10     29.43
 57.67    786.29     28.04
 57.77    687.00     26.21
 57.87    716.00     26.76
 57.97    705.00     26.55
 58.07    689.00     26.25
 58.17    722.64     26.88
 58.27    803.92     28.35
 58.37    828.43     28.78
 58.47   1010.22     31.78
 58.57   1058.00     32.53
 58.67   1269.18     35.63
 58.77   1332.00     36.50
 58.87   1504.82     38.79
 58.97   1533.00     39.15
 59.07   1559.76     39.49
 59.17   1534.00     39.17
 59.27   1412.00     37.58
 59.37   1335.48     36.54
 59.47   1254.00     35.41
 59.57   1237.00     35.17
 59.67   1132.00     33.65
 59.77   1199.00     34.63
 59.87   1148.97     33.90
 59.97   1297.00     36.01
 60.07   1435.18     37.88
 60.17   1556.00     39.45
 60.27   1563.42     39.54
 60.37   1511.00     38.87
 60.47   1456.49     38.16
 60.57   1264.00     35.55
 60.67   1084.00     32.92
 60.77    916.00     30.27
 60.87    798.00     28.25
 60.97    659.00     25.67
 61.07    712.00     26.68
 61.17    638.00     25.26
 61.27    643.84     25.37
 61.37    658.00     25.65
 61.47    694.30     26.35
 61.57    796.04     28.21
 61.67    828.41     28.78
 61.77    987.00     31.42
 61.87   1109.00     33.30
 61.97   1304.08     36.11
 62.07   1390.00     37.28
 62.17   1446.76     38.04
 62.27   1346.00     36.69
 62.37   1370.53     37.02
 62.47   1176.00     34.29
 62.57   1028.62     32.07
 62.67    895.98     29.93
 62.77    785.00     28.02
 62.87    671.00     25.90
 62.97    675.76     26.00
 63.07    605.48     24.61
 63.17    589.00     24.27
 63.27    607.34     24.64
 63.37    583.00     24.15
 63.47    617.00     24.84
 63.57    558.98     23.64
 63.67    550.00     23.45
 63.77    546.97     23.39
 63.87    643.00     25.36
 63.97    673.00     25.94
 64.07    734.48     27.10
 64.17    751.00     27.40
 64.27    831.00     28.83
 64.37    938.00     30.63
 64.47    969.00     31.13
 64.57    977.92     31.27
 64.67   1023.00     31.98
 64.77   1026.37     32.04
 64.87    939.00     30.64
 64.97    859.64     29.32
 65.07    799.00     28.27
 65.17    823.58     28.70
 65.27    743.00     27.26
 65.37    686.00     26.19
 65.47    673.00     25.94
 65.57    589.56     24.28
 65.67    640.00     25.30
 65.77    629.91     25.10
 65.87    594.00     24.37
 65.97    535.00     23.13
 66.07    554.00     23.54
 66.17    529.00     23.00
 66.27    551.61     23.49
 66.37    527.63     22.97
 66.47    536.42     23.16
 66.57    561.30     23.69
 66.67    554.02     23.54
 66.77    600.64     24.51
 66.87    598.00     24.45
 66.97    541.00     23.26
 67.07    621.00     24.92
 67.17    671.00     25.90
 67.27    749.00     27.37
 67.37    897.00     29.95
 67.47   1034.80     32.17
 67.57   1229.00     35.06
 67.67   1528.07     39.09
 67.77   1781.35     42.21
 67.87   2077.00     45.57
 67.97   2239.16     47.32
 68.07   2329.00     48.26
 68.17   2439.00     49.39
 68.27   2289.00     47.84
 68.37   2106.00     45.89
 68.47   1853.00     43.05
 68.57   1512.58     38.89
 68.67   1324.86     36.40
 68.77   1036.00     32.19
 68.87    851.11     29.17
 68.97    751.81     27.42
 69.07    700.00     26.46
 69.17    653.00     25.55
 69.27    654.00     25.57
 69.37    634.00     25.18
 69.47    601.00     24.52
 69.57    620.05     24.90
 69.67    571.21     23.90
 69.77    599.02     24.47
 69.87    571.00     23.90
 69.97    555.00     23.56
 70.07    561.06     23.69
 70.17    559.00     23.64
 70.27    589.00     24.27
 70.37    601.49     24.53
 70.47    514.00     22.67
 70.57    549.00     23.43
 70.67    623.00     24.96
 70.77    610.00     24.70
 70.87    552.00     23.49
 70.97    583.00     24.15
 71.07    639.00     25.28
 71.17    715.45     26.75
 71.27    836.00     28.91
 71.37    905.00     30.08
 71.47   1102.00     33.20
 71.57   1276.00     35.72
 71.67   1432.00     37.84
 71.77   1651.23     40.64
 71.87   1824.00     42.71
 71.97   1857.00     43.09
 72.07   1926.00     43.89
 72.17   1874.00     43.29
 72.27   1762.02     41.98
 72.37   1676.00     40.94
 72.47   1399.83     37.41
 72.57   1247.19     35.32
 72.67   1166.00     34.15
 72.77   1025.35     32.02
 72.87    966.00     31.08
 72.97    953.13     30.87
 73.07    769.00     27.73
 73.17    763.00     27.62
 73.27    689.00     26.25
 73.37    679.00     26.06
 73.47    635.00     25.20
 73.57    604.00     24.58
 73.67    598.00     24.45
 73.77    592.00     24.33
 73.87    569.00     23.85
 73.97    639.00     25.28
 74.07    596.00     24.41
 74.17    589.62     24.28
 74.27    625.00     25.00
 74.37    619.00     24.88
 74.47    635.00     25.20
 74.57    526.09     22.94
 74.67    597.01     24.43
 74.77    531.47     23.05
 74.87    564.92     23.77
 74.97    632.00     25.14
 75.07    607.03     24.64
 75.17    590.00     24.29
 75.27    559.00     23.64
 75.37    611.00     24.72
 75.47    543.34     23.31
 75.57    563.34     23.73
 75.67    550.00     23.45
 75.77    616.67     24.83
 75.87    606.00     24.62
 75.97    646.00     25.42
 76.07    635.00     25.20
 76.17    677.57     26.03
 76.27    661.17     25.71
 76.37    714.98     26.74
 76.47    691.00     26.29
 76.57    672.63     25.94
 76.67    726.00     26.94
 76.77    649.00     25.48
 76.87    646.00     25.42
 76.97    669.00     25.87
 77.07    672.62     25.94
 77.17    550.00     23.45
 77.27    551.00     23.47
 77.37    568.37     23.84
 77.47    524.48     22.90
 77.57    513.57     22.66
 77.67    554.93     23.56
 77.77    540.00     23.24
 77.87    571.86     23.91
 77.97    507.00     22.52
 78.07    539.00     23.22
 78.17    504.00     22.45
 78.27    497.00     22.29
 78.37    492.00     22.18
 78.47    496.00     22.27
 78.57    550.67     23.47
 78.67    488.25     22.10
 78.77    509.00     22.56
 78.87    502.00     22.41
 78.97    491.00     22.16
 79.07    496.97     22.29
 79.17    560.32     23.67
 79.27    552.00     23.49
 79.37    550.00     23.45
 79.47    495.00     22.25
 79.57    501.00     22.38
 79.67    496.00     22.27
 79.77    538.27     23.20
 79.87    470.00     21.68
 79.97    550.00     23.45
 80.07    544.00     23.32
 80.17    561.00     23.69
 80.27    594.81     24.39
 80.37    608.00     24.66
 80.47    580.00     24.08
 80.57    545.00     23.35
 80.67    591.00     24.31
 80.77    629.34     25.09
 80.87    701.68     26.49
 80.97    720.00     26.83
 81.07    705.53     26.56
 81.17    698.79     26.43
 81.27    767.00     27.69
 81.37    809.00     28.44
 81.47    784.00     28.00
 81.57    740.00     27.20
 81.67    744.60     27.29
 81.77    725.00     26.93
 81.87    705.63     26.56
 81.97    715.00     26.74
 82.07    702.00     26.50
 82.17    659.00     25.67
 82.27    643.00     25.36
 82.37    642.00     25.34
 82.47    592.60     24.34
 82.57    591.36     24.32
 82.67    560.91     23.68
 82.77    566.00     23.79
 82.87    580.00     24.08
 82.97    604.28     24.58
 83.07    550.00     23.45
 83.17    543.53     23.31
 83.27    540.00     23.24
 83.37    589.10     24.27
 83.47    531.00     23.04
 83.57    536.00     23.15
 83.67    610.26     24.70
 83.77    565.00     23.77
 83.87    567.00     23.81
 83.97    595.00     24.39
 84.07    600.52     24.51
 84.17    541.00     23.26
 84.27    579.00     24.06
 84.37    535.00     23.13
 84.47    587.25     24.23
 84.57    563.24     23.73
 84.67    521.00     22.83
 84.77    555.00     23.56
 84.87    560.23     23.67
 84.97    496.50     22.28
 85.07    530.00     23.02
 85.17    526.00     22.93
 85.27    539.00     23.22
 85.37    529.00     23.00
 85.47    537.00     23.17
 85.57    561.88     23.70
 85.67    527.00     22.96
 85.77    539.05     23.22
 85.87    497.77     22.31
 85.97    513.88     22.67
 86.07    546.00     23.37
 86.17    567.00     23.81
 86.27    537.00     23.17
 86.37    550.64     23.47
 86.47    562.00     23.71
 86.57    558.03     23.62
 86.67    536.00     23.15
 86.77    554.00     23.54
 86.87    557.40     23.61
 86.97    611.83     24.74
 87.07    629.00     25.08
 87.17    646.00     25.42
 87.27    646.26     25.42
 87.37    694.00     26.34
 87.47    661.35     25.72
 87.57    635.19     25.20
 87.67    714.00     26.72
 87.77    634.00     25.18
 87.87    588.00     24.25
 87.97    637.00     25.24
 88.07    601.00     24.52
 88.17    646.00     25.42
 88.27    609.33     24.68
 88.37    617.88     24.86
 88.47    554.13     23.54
 88.57    600.11     24.50
 88.67    609.00     24.68
 88.77    555.00     23.56
 88.87    596.92     24.43
 88.97    549.10     23.43
 89.07    555.08     23.56
 89.17    618.00     24.86
 89.27    592.00     24.33
 89.37    580.00     24.08
 89.47    591.00     24.31
 89.57    624.91     25.00
 89.67    567.00     23.81
 89.77    571.00     23.90
 89.87    576.04     24.00
 89.97    571.00     23.90
 90.07    585.61     24.20
 90.17    527.74     22.97
 90.27    535.00     23.13
 90.37    508.12     22.54
 90.47    538.00     23.19
 90.57    539.00     23.22
 90.67    542.61     23.29
 90.77    506.00     22.49
 90.87    554.58     23.55
 90.97    500.00     22.36
 91.07    516.00     22.72
 91.17    545.00     23.35
 91.27    564.01     23.75
 91.37    557.00     23.60
 91.47    559.00     23.64
 91.57    544.00     23.32
 91.67    538.79     23.21
 91.77    501.71     22.40
 91.87    527.00     22.96
 91.97    544.85     23.34
 92.07    568.00     23.83
 92.17    605.22     24.60
 92.27    616.00     24.82
 92.37    597.55     24.44
 92.47    658.22     25.66
 92.57    662.00     25.73
 92.67    675.00     25.98
 92.77    669.00     25.87
 92.87    721.00     26.85
 92.97    682.00     26.12
 93.07    711.00     26.66
 93.17    789.00     28.09
 93.27    861.00     29.34
 93.37    756.00     27.50
 93.47    804.00     28.35
 93.57    855.69     29.25
 93.67    865.00     29.41
 93.77    823.00     28.69
 93.87    895.00     29.92
 93.97    821.00     28.65
 94.07    826.00     28.74
 94.17    862.00     29.36
 94.27    814.00     28.53
 94.37    840.81     29.00
 94.47    895.00     29.92
 94.57    863.99     29.39
 94.67    935.00     30.58
 94.77    889.32     29.82
 94.87    908.00     30.13
 94.97    862.90     29.38
 95.07    918.00     30.30
 95.17    908.00     30.13
 95.27    867.00     29.44
 95.37    817.29     28.59
 95.47    816.00     28.57
 95.57    777.00     27.87
 95.67    721.44     26.86
 95.77    702.47     26.50
 95.87    693.30     26.33
 95.97    716.00     26.76
 96.07    675.00     25.98
 96.17    658.00     25.65
 96.27    767.87     27.71
 96.37    727.00     26.96
 96.47    802.00     28.32
 96.57    885.00     29.75
 96.67    956.00     30.92
 96.77    955.00     30.90
 96.87   1008.26     31.75
 96.97   1096.00     33.11
 97.07   1231.00     35.09
 97.17   1316.00     36.28
 97.27   1374.00     37.07
 97.37   1398.00     37.39
 97.47   1452.00     38.11
 97.57   1490.00     38.60
 97.67   1386.00     37.23
 97.77   1381.45     37.17
 97.87   1421.00     37.70
 97.97   1319.00     36.32
 98.07   1236.08     35.16
 98.17   1187.00     34.45
 98.27   1055.00     32.48
 98.37    977.85     31.27
 98.47    933.00     30.55
 98.57    904.00     30.07
 98.67    917.97     30.30
 98.77    810.00     28.46
 98.87    827.00     28.76
 98.97    814.70     28.54
 99.07    830.00     28.81
 99.17    850.00     29.15
 99.27    889.00     29.82
 99.37    935.00     30.58
 99.47    976.00     31.24
 99.57   1122.17     33.50
 99.67   1163.00     34.10
 99.77   1306.08     36.14
 99.87   1379.00     37.13
 99.97   1501.00     38.74
100.07   1591.00     39.89
100.17   1812.01     42.57
100.27   1871.43     43.26
100.37   1941.00     44.06
100.47   2002.00     44.74
100.57   2101.43     45.84
100.67   2008.15     44.81
100.77   2027.82     45.03
100.87   2119.00     46.03
100.97   2053.00     45.31
101.07   1975.17     44.44
101.17   1862.00     43.15
101.27   1738.61     41.70
101.37   1615.00     40.19
101.47   1619.00     40.24
101.57   1475.87     38.42
101.67   1498.00     38.70
101.77   1350.00     36.74
101.87   1363.59     36.93
101.97   1204.12     34.70
102.07   1175.00     34.28
102.17   1180.77     34.36
102.27   1154.00     33.97
102.37   1129.22     33.60
102.47   1125.00     33.54
102.57   1100.00     33.17
102.67   1046.06     32.34
102.77   1014.00     31.84
102.87   1001.00     31.64
102.97    889.00     29.82
103.07    935.27     30.58
103.17    868.50     29.47
103.27    879.00     29.65
103.37    780.00     27.93
103.47    777.00     27.87
103.57    740.00     27.20
103.67    665.35     25.79
103.77    653.94     25.57
103.87    665.00     25.79
103.97    597.10     24.44
104.07    620.00     24.90
104.17    615.55     24.81
104.27    580.00     24.08
104.37    567.86     23.83
104.47    582.00     24.12
104.57    504.61     22.46
104.67    562.70     23.72
104.77    516.57     22.73
104.87    572.55     23.93
104.97    585.00     24.19
105.07    562.00     23.71
105.17    553.00     23.52
105.27    520.69     22.82
105.37    536.00     23.15
105.47    586.00     24.21
105.57    531.50     23.05
105.67    547.00     23.39
105.77    575.00     23.98
105.87    522.93     22.87
105.97    565.97     23.79
106.07    580.00     24.08
106.17    609.31     24.68
106.27    600.00     24.49
106.37    610.00     24.70
106.47    634.48     25.19
106.57    640.81     25.31
106.67    619.00     24.88
106.77    645.00     25.40
106.87    627.00     25.04
106.97    669.00     25.87
107.07    660.33     25.70
107.17    740.14     27.21
107.27    684.00     26.15
107.37    661.00     25.71
107.47    701.00     26.48
107.57    692.37     26.31
107.67    675.76     26.00
107.77    643.00     25.36
107.87    665.00     25.79
107.97    699.00     26.44
108.07    664.00     25.77
108.17    681.00     26.10
108.27    681.00     26.10
108.37    689.00     26.25
108.47    660.00     25.69
108.57    656.00     25.61
108.67    660.37     25.70
108.77    725.00     26.93
108.87    665.72     25.80
108.97    704.00     26.53
109.07    677.45     26.03
109.17    669.00     25.87
109.27    683.99     26.15
109.37    691.00     26.29
109.47    696.24     26.39
109.57    635.85     25.22
109.67    668.63     25.86
109.77    623.04     24.96
109.87    595.58     24.40
109.97    569.49     23.86
110.07    599.00     24.47
110.17    587.00     24.23
110.27    577.00     24.02
110.37    581.61     24.12
110.47    511.75     22.62
110.57    555.00     23.56
110.67    554.00     23.54
110.77    548.77     23.43
110.87    592.00     24.33
110.97    575.34     23.99
111.07    541.37     23.27
111.17    561.67     23.70
111.27    561.86     23.70
111.37    578.00     24.04
111.47    539.63     23.23
111.57    546.00     23.37
111.67    584.98     24.19
111.77    596.58     24.42
111.87    526.42     22.94
111.97    544.00     23.32
112.07    528.78     23.00
112.17    569.00     23.85
112.27    542.00     23.28
112.37    583.00     24.15
112.47    574.70     23.97
112.57    592.00     24.33
112.67    602.00     24.54
112.77    622.00     24.94
112.87    654.90     25.59
112.97    656.00     25.61
113.07    699.00     26.44
113.17    647.00     25.44
113.27    703.00     26.51
113.37    739.00     27.18
113.47    746.00     27.31
113.57    767.00     27.69
113.67    802.00     28.32
113.77    898.00     29.97
113.87    870.30     29.50
113.97    933.00     30.55
114.07   1027.34     32.05
114.17   1053.00     32.45
114.27   1079.00     32.85
114.37   1233.00     35.11
114.47   1310.00     36.19
114.57   1471.00     38.35
114.67   1616.00     40.20
114.77   1663.00     40.78
114.87   1888.00     43.45
114.97   2078.00     45.59
115.07   2373.00     48.71
115.17   2508.17     50.08
115.27   2802.00     52.93
115.37   3173.00     56.33
115.47   3434.00     58.60
115.57   3741.00     61.16
115.67   4297.00     65.55
115.77   4587.00     67.73
115.87   4871.00     69.79
115.97   5228.48     72.31
116.07   5529.00     74.36
116.17   6139.00     78.35
116.27   6298.00     79.36
116.37   6592.28     81.19
116.47   6829.00     82.64
116.57   6820.39     82.59
116.67   6827.92     82.63
116.77   6993.00     83.62
116.87   6802.00     82.47
116.97   6813.00     82.54
117.07   6344.45     79.65
117.17   6077.00     77.96
117.27   5669.00     75.29
117.37   5432.61     73.71
117.47   4963.00     70.45
117.57   4580.00     67.68
117.67   4407.00     66.39
117.77   3965.00     62.97
117.87   3566.00     59.72
117.97   3113.00     55.79
118.07   2818.93     53.09
118.17   2528.67     50.29
118.27   2211.00     47.02
118.37   1951.00     44.17
118.47   1700.51     41.24
118.57   1514.00     38.91
118.67   1367.00     36.97
118.77   1242.00     35.24
118.87   1091.00     33.03
118.97   1014.00     31.84
119.07    926.00     30.43
119.17    872.00     29.53
119.27    837.00     28.93
119.37    821.70     28.67
119.47    709.00     26.63
119.57    725.00     26.93
119.67    647.00     25.44
119.77    658.00     25.65
119.87    681.00     26.10
119.97    668.78     25.86
120.07    584.61     24.18
120.17    589.00     24.27
120.27    569.96     23.87
120.37    556.00     23.58
120.47    623.43     24.97
120.57    590.00     24.29
120.67    578.00     24.04
120.77    604.23     24.58
120.87    592.00     24.33
120.97    562.00     23.71
121.07    553.00     23.52
121.17    572.00     23.92
121.27    591.94     24.33
121.37    631.00     25.12
121.47    611.00     24.72
121.57    578.00     24.04
121.67    581.00     24.10
121.77    592.00     24.33
121.87    585.00     24.19
121.97    631.16     25.12
122.07    639.00     25.28
122.17    608.91     24.68
122.27    625.00     25.00
122.37    600.00     24.49
122.47    625.00     25.00
122.57    696.00     26.38
122.67    676.69     26.01
122.77    651.00     25.51
122.87    642.88     25.36
122.97    686.17     26.19
123.07    651.74     25.53
123.17    639.00     25.28
123.27    649.00     25.48
123.37    655.15     25.60
123.47    662.00     25.73
123.57    647.00     25.44
123.67    610.00     24.70
123.77    619.00     24.88
123.87    601.27     24.52
123.97    623.00     24.96
124.07    668.00     25.85
124.17    602.11     24.54
124.27    569.62     23.87
124.37    629.00     25.08
124.47    641.00     25.32
124.57    635.00     25.20
124.67    542.00     23.28
124.77    561.73     23.70
124.87    565.00     23.77
124.97    583.00     24.15
