XYDATA



INTER 1.0 1.0 0 0
TEMP 1074.0
  9.97    583.24     24.15
 10.07    581.00     24.10
 10.17    579.42     24.07
 10.27    559.67     23.66
 10.37    603.00     24.56
 10.47    546.85     23.38
 10.57    573.00     23.94
 10.67    622.00     24.94
 10.77    568.07     23.83
 10.87    603.00     24.56
 10.97    585.10     24.19
 11.07    528.00     22.98
 11.17    614.46     24.79
 11.27    610.00     24.70
 11.37    562.00     23.71
 11.47    635.00     25.20
 11.57    614.00     24.78
 11.67    644.00     25.38
 11.77    607.00     24.64
 11.87    639.22     25.28
 11.97    628.00     25.06
 12.07    645.65     25.41
 12.17    697.00     26.40
 12.27    757.09     27.52
 12.37    661.25     25.71
 12.47    614.68     24.79
 12.57    636.00     25.22
 12.67    578.92     24.06
 12.77    609.00     24.68
 12.87    601.00     24.52
 12.97    624.95     25.00
 13.07    584.62     24.18
 13.17    606.12     24.62
 13.27    571.00     23.90
 13.37    585.01     24.19
 13.47    564.00     23.75
 13.57    589.00     24.27
 13.67    537.00     23.17
 13.77    566.93     23.81
 13.87    589.00     24.27
 13.97    566.23     23.80
 14.07    577.00     24.02
 14.17    555.15     23.56
 14.27    537.00     23.17
 14.37    530.83     23.04
 14.47    573.09     23.94
 14.57    571.00     23.90
 14.67    581.00     24.10
 14.77    572.00     23.92
 14.87    537.33     23.18
 14.97    593.13     24.35
 15.07    527.00     22.96
 15.17    567.00     23.81
 15.27    616.25     24.82
 15.37    622.00     24.94
 15.47    566.00     23.79
 15.57    540.00     23.24
 15.67    556.00     23.58
 15.77    530.69     23.04
 15.87    597.91     24.45
 15.97    603.32     24.56
 16.07    554.74     23.55
 16.17    520.51     22.81
 16.27    511.00     22.61
 16.37    524.37     22.90
 16.47    608.44     24.67
 16.57    516.00     22.72
 16.67    602.00     24.54
 16.77    539.47     23.23
 16.87    551.00     23.47
 16.97    586.00     24.21
 17.07    541.00     23.26
 17.17    534.00     23.11
 17.27    569.00     23.85
 17.37    503.00     22.43
 17.47    581.00     24.10
 17.57    602.38     24.54
 17.67    553.00     23.52
 17.77    545.89     23.36
 17.87    570.00     23.87
 17.97    584.00     24.17
 18.07    594.00     24.37
 18.17    592.00     24.33
 18.27    575.01     23.98
 18.37    573.06     23.94
 18.47    541.00     23.26
 18.57    550.00     23.45
 18.67    534.00     23.11
 18.77    519.00     22.78
 18.87    548.39     23.42
 18.97    590.79     24.31
 19.07    572.00     23.92
 19.17    516.00     22.72
 19.27    594.00     24.37
 19.37    537.00     23.17
 19.47    540.00     23.24
 19.57    509.13     22.56
 19.67    579.99     24.08
 19.77    553.00     23.52
 19.87    557.00     23.60
 19.97    592.00     24.33
 20.07    548.00     23.41
 20.17    527.92     22.98
 20.27    586.00     24.21
 20.37    539.97     23.24
 20.47    595.79     24.41
 20.57    565.00     23.77
 20.67    519.00     22.78
 20.77    575.80     24.00
 20.87    563.54     23.74
 20.97    574.37     23.97
 21.07    552.00     23.49
 21.17    524.00     22.89
 21.27    518.01     22.76
 21.37    569.18     23.86
 21.47    563.15     23.73
 21.57    538.00     23.19
 21.67    551.00     23.47
 21.77    572.00     23.92
 21.87    562.00     23.71
 21.97    576.00     24.00
 22.07    535.00     23.13
 22.17    503.00     22.43
 22.27    529.98     23.02
 22.37    593.00     24.35
 22.47    538.00     23.19
 22.57    542.00     23.28
 22.67    518.00     22.76
 22.77    561.97     23.71
 22.87    528.00     22.98
 22.97    506.43     22.50
 23.07    531.00     23.04
 23.17    525.27     22.92
 23.27    590.07     24.29
 23.37    512.57     22.64
 23.47    507.00     22.52
 23.57    563.00     23.73
 23.67    534.26     23.11
 23.77    569.00     23.85
 23.87    525.00     22.91
 23.97    564.00     23.75
 24.07    533.73     23.10
 24.17    559.00     23.64
 24.27    514.22     22.68
 24.37    591.00     24.31
 24.47    549.27     23.44
 24.57    593.00     24.35
 24.67    589.00     24.27
 24.77    590.84     24.31
 24.87    607.68     24.65
 24.97    652.82     25.55
 25.07    573.00     23.94
 25.17    602.00     24.54
 25.27    536.06     23.15
 25.37    547.00     23.39
 25.47    604.00     24.58
 25.57    560.00     23.66
 25.67    584.00     24.17
 25.77    558.00     23.62
 25.87    592.96     24.35
 25.97    553.13     23.52
 26.07    558.37     23.63
 26.17    541.00     23.26
 26.27    541.00     23.26
 26.37    522.88     22.87
 26.47    578.00     24.04
 26.57    542.00     23.28
 26.67    492.91     22.20
 26.77    529.00     23.00
 26.87    527.00     22.96
 26.97    582.11     24.13
 27.07    553.00     23.52
 27.17    535.00     23.13
 27.27    542.64     23.29
 27.37    506.00     22.49
 27.47    563.00     23.73
 27.57    548.00     23.41
 27.67    551.00     23.47
 27.77    540.95     23.26
 27.87    602.00     24.54
 27.97    704.93     26.55
 28.07    814.00     28.53
 28.17    896.00     29.93
 28.27    919.00     30.32
 28.37    895.96     29.93
 28.47    755.00     27.48
 28.57    705.00     26.55
 28.67    653.00     25.55
 28.77    779.00     27.91
 28.87    761.00     27.59
 28.97    844.58     29.06
 29.07    786.00     28.04
 29.17    717.00     26.78
 29.27    683.51     26.14
 29.37    617.00     24.84
 29.47    570.58     23.89
 29.57    588.00     24.25
 29.67    583.00     24.15
 29.77    552.00     23.49
 29.87    559.00     23.64
 29.97    550.00     23.45
 30.07    538.00     23.19
 30.17    536.06     23.15
 30.27    609.00     24.68
 30.37    529.16     23.00
 30.47    549.00     23.43
 30.57    524.88     22.91
 30.67    513.78     22.67
 30.77    582.55     24.14
 30.87    567.74     23.83
 30.97    627.00     25.04
 31.07    590.00     24.29
 31.17    586.00     24.21
 31.27    586.00     24.21
 31.37    551.00     23.47
 31.47    621.00     24.92
 31.57    579.00     24.06
 31.67    511.26     22.61
 31.77    562.00     23.71
 31.87    560.00     23.66
 31.97    549.00     23.43
 32.07    486.49     22.06
 32.17    556.00     23.58
 32.27    514.00     22.67
 32.37    532.00     23.07
 32.47    558.00     23.62
 32.57    525.91     22.93
 32.67    547.25     23.39
 32.77    518.00     22.76
 32.87    504.44     22.46
 32.97    562.46     23.72
 33.07    572.66     23.93
 33.17    572.30     23.92
 33.27    557.00     23.60
 33.37    566.00     23.79
 33.47    569.00     23.85
 33.57    564.05     23.75
 33.67    684.00     26.15
 33.77    761.00     27.59
 33.87    926.08     30.43
 33.97   1069.00     32.70
 34.07   1097.45     33.13
 34.17    971.72     31.17
 34.27    844.00     29.05
 34.37    761.00     27.59
 34.47    646.00     25.42
 34.57    551.39     23.48
 34.67    602.00     24.54
 34.77    513.44     22.66
 34.87    473.00     21.75
 34.97    528.37     22.99
 35.07    508.42     22.55
 35.17    495.00     22.25
 35.27    506.00     22.49
 35.37    484.00     22.00
 35.47    500.00     22.36
 35.57    498.00     22.32
 35.67    529.00     23.00
 35.77    530.55     23.03
 35.87    518.00     22.76
 35.97    480.21     21.91
 36.07    519.00     22.78
 36.17    562.01     23.71
 36.27    542.63     23.29
 36.37    546.85     23.38
 36.47    538.00     23.19
 36.57    559.57     23.66
 36.67    480.00     21.91
 36.77    501.00     22.38
 36.87    519.00     22.78
 36.97    543.00     23.30
 37.07    501.00     22.38
 37.17    529.41     23.01
 37.27    503.26     22.43
 37.37    508.00     22.54
 37.47    502.00     22.41
 37.57    524.00     22.89
 37.67    550.63     23.47
 37.77    510.00     22.58
 37.87    484.69     22.02
 37.97    475.21     21.80
 38.07    498.00     22.32
 38.17    553.00     23.52
 38.27    536.00     23.15
 38.37    524.39     22.90
 38.47    484.97     22.02
 38.57    520.64     22.82
 38.67    499.48     22.35
 38.77    510.00     22.58
 38.87    531.71     23.06
 38.97    512.38     22.64
 39.07    511.00     22.61
 39.17    529.52     23.01
 39.27    466.00     21.59
 39.37    518.00     22.76
 39.47    545.18     23.35
 39.57    509.00     22.56
 39.67    527.00     22.96
 39.77    523.83     22.89
 39.87    457.00     21.38
 39.97    539.00     23.22
 40.07    507.61     22.53
 40.17    507.56     22.53
 40.27    518.00     22.76
 40.37    522.00     22.85
 40.47    482.18     21.96
 40.57    534.00     23.11
 40.67    515.99     22.72
 40.77    511.20     22.61
 40.87    515.06     22.69
 40.97    487.00     22.07
 41.07    508.58     22.55
 41.17    515.73     22.71
 41.27    489.23     22.12
 41.37    504.00     22.45
 41.47    519.51     22.79
 41.57    532.00     23.07
 41.67    518.00     22.76
 41.77    516.00     22.72
 41.87    474.78     21.79
 41.97    514.17     22.68
 42.07    506.00     22.49
 42.17    519.00     22.78
 42.27    519.00     22.78
 42.37    543.00     23.30
 42.47    551.00     23.47
 42.57    618.20     24.86
 42.67    602.76     24.55
 42.77    664.52     25.78
 42.87    535.00     23.13
 42.97    560.00     23.66
 43.07    503.00     22.43
 43.17    516.00     22.72
 43.27    456.00     21.35
 43.37    483.00     21.98
 43.47    508.00     22.54
 43.57    490.00     22.14
 43.67    500.64     22.37
 43.77    435.00     20.86
 43.87    527.15     22.96
 43.97    496.36     22.28
 44.07    539.00     23.22
 44.17    513.00     22.65
 44.27    471.42     21.71
 44.37    524.00     22.89
 44.47    488.00     22.09
 44.57    495.00     22.25
 44.67    472.00     21.73
 44.77    527.52     22.97
 44.87    516.14     22.72
 44.97    510.00     22.58
 45.07    545.00     23.35
 45.17    456.96     21.38
 45.27    506.73     22.51
 45.37    495.00     22.25
 45.47    508.00     22.54
 45.57    497.00     22.29
 45.67    468.40     21.64
 45.77    528.90     23.00
 45.87    482.00     21.95
 45.97    511.00     22.61
 46.07    491.00     22.16
 46.17    477.82     21.86
 46.27    507.00     22.52
 46.37    494.00     22.23
 46.47    523.00     22.87
 46.57    467.61     21.62
 46.67    493.00     22.20
 46.77    514.00     22.67
 46.87    503.00     22.43
 46.97    496.01     22.27
 47.07    524.00     22.89
 47.17    540.00     23.24
 47.27    529.00     23.00
 47.37    534.00     23.11
 47.47    539.00     23.22
 47.57    524.06     22.89
 47.67    564.13     23.75
 47.77    599.00     24.47
 47.87    611.00     24.72
 47.97    555.88     23.58
 48.07    548.41     23.42
 48.17    593.00     24.35
 48.27    566.75     23.81
 48.37    556.01     23.58
 48.47    543.00     23.30
 48.57    560.00     23.66
 48.67    512.00     22.63
 48.77    497.84     22.31
 48.87    553.00     23.52
 48.97    511.04     22.61
 49.07    520.00     22.80
 49.17    561.00     23.69
 49.27    597.00     24.43
 49.37    626.00     25.02
 49.47    637.00     25.24
 49.57    768.00     27.71
 49.67    929.00     30.48
 49.77   1106.00     33.26
 49.87   1497.00     38.69
 49.97   1726.43     41.55
 50.07   2176.00     46.65
 50.17   2408.00     49.07
 50.27   2366.35     48.65
 50.37   2235.25     47.28
 50.47   1855.11     43.07
 50.57   1425.00     37.75
 50.67   1097.00     33.12
 50.77    776.00     27.86
 50.87    734.00     27.09
 50.97    666.00     25.81
 51.07    600.84     24.51
 51.17    649.00     25.48
 51.27    630.00     25.10
 51.37    614.00     24.78
 51.47    591.00     24.31
 51.57    557.00     23.60
 51.67    549.48     23.44
 51.77    566.00     23.79
 51.87    554.22     23.54
 51.97    553.00     23.52
 52.07    546.94     23.39
 52.17    543.00     23.30
 52.27    573.00     23.94
 52.37    517.04     22.74
 52.47    570.00     23.87
 52.57    587.00     24.23
 52.67    610.00     24.70
 52.77    584.35     24.17
 52.87    607.64     24.65
 52.97    726.00     26.94
 53.07    806.79     28.40
 53.17    903.85     30.06
 53.27   1067.46     32.67
 53.37   1139.00     33.75
 53.47   1217.32     34.89
 53.57   1169.00     34.19
 53.67   1095.00     33.09
 53.77   1005.00     31.70
 53.87    949.58     30.82
 53.97    806.00     28.39
 54.07    692.00     26.31
 54.17    683.93     26.15
 54.27    569.87     23.87
 54.37    575.00     23.98
 54.47    594.68     24.39
 54.57    543.41     23.31
 54.67    539.00     23.22
 54.77    565.00     23.77
 54.87    624.00     24.98
 54.97    570.25     23.88
 55.07    555.00     23.56
 55.17    602.00     24.54
 55.27    590.00     24.29
 55.37    509.06     22.56
 55.47    596.00     24.41
 55.57    528.31     22.99
 55.67    569.00     23.85
 55.77    545.81     23.36
 55.87    631.43     25.13
 55.97    616.00     24.82
 56.07    693.00     26.32
 56.17    789.31     28.09
 56.27    994.00     31.53
 56.37   1138.00     33.73
 56.47   1406.14     37.50
 56.57   1825.00     42.72
 56.67   2152.00     46.39
 56.77   2412.00     49.11
 56.87   2678.00     51.75
 56.97   2630.00     51.28
 57.07   2312.00     48.08
 57.17   2081.16     45.62
 57.27   1571.80     39.65
 57.37   1324.00     36.39
 57.47   1102.05     33.20
 57.57    848.00     29.12
 57.67    774.00     27.82
 57.77    744.00     27.28
 57.87    645.00     25.40
 57.97    699.00     26.44
 58.07    718.00     26.80
 58.17    669.55     25.88
 58.27    714.90     26.74
 58.37    872.00     29.53
 58.47    943.17     30.71
 58.57   1020.00     31.94
 58.67   1089.00     33.00
 58.77   1216.51     34.88
 58.87   1382.16     37.18
 58.97   1440.00     37.95
 59.07   1454.00     38.13
 59.17   1450.00     38.08
 59.27   1285.00     35.85
 59.37   1184.43     34.42
 59.47   1240.00     35.21
 59.57   1161.00     34.07
 59.67   1134.00     33.67
 59.77   1175.20     34.28
 59.87   1257.00     35.45
 59.97   1365.00     36.95
 60.07   1456.00     38.16
 60.17   1478.85     38.46
 60.27   1594.14     39.93
 60.37   1431.98     37.84
 60.47   1367.91     36.99
 60.57   1226.00     35.01
 60.67   1072.00     32.74
 60.77    935.00     30.58
 60.87    802.31     28.33
 60.97    706.00     26.57
 61.07    700.00     26.46
 61.17    654.00     25.57
 61.27    604.85     24.59
 61.37    636.00     25.22
 61.47    673.00     25.94
 61.57    810.00     28.46
 61.67    872.86     29.54
 61.77    954.91     30.90
 61.87   1187.96     34.47
 61.97   1259.00     35.48
 62.07   1343.56     36.65
 62.17   1378.00     37.12
 62.27   1354.95     36.81
 62.37   1372.51     37.05
 62.47   1180.00     34.35
 62.57   1001.00     31.64
 62.67    823.00     28.69
 62.77    779.89     27.93
 62.87    711.00     26.66
 62.97    623.00     24.96
 63.07    637.00     25.24
 63.17    569.00     23.85
 63.27    592.00     24.33
 63.37    607.44     24.65
 63.47    610.00     24.70
 63.57    596.00     24.41
 63.67    531.37     23.05
 63.77    639.02     25.28
 63.87    606.77     24.63
 63.97    649.00     25.48
 64.07    754.00     27.46
 64.17    771.43     27.77
 64.27    843.00     29.03
 64.37    967.90     31.11
 64.47   1006.00     31.72
 64.57    964.34     31.05
 64.67   1034.00     32.16
 64.77   1045.00     32.33
 64.87   1019.00     31.92
 64.97    874.00     29.56
 65.07    875.59     29.59
 65.17    805.63     28.38
 65.27    717.00     26.78
 65.37    669.00     25.87
 65.47    644.38     25.38
 65.57    645.12     25.40
 65.67    610.00     24.70
 65.77    595.00     24.39
 65.87    594.58     24.38
 65.97    579.33     24.07
 66.07    542.00     23.28
 66.17    562.00     23.71
 66.27    543.34     23.31
 66.37    557.00     23.60
 66.47    587.00     24.23
 66.57    589.68     24.28
 66.67    526.00     22.93
 66.77    606.00     24.62
 66.87    580.00     24.08
 66.97    591.00     24.31
 67.07    642.00     25.34
 67.17    688.69     26.24
 67.27    786.55     28.05
 67.37    918.00     30.30
 67.47   1110.41     33.32
 67.57   1308.00     36.17
 67.67   1561.00     39.51
 67.77   1809.00     42.53
 67.87   2152.72     46.40
 67.97   2321.00     48.18
 68.07   2448.00     49.48
 68.17   2454.36     49.54
 68.27   2270.00     47.64
 68.37   2050.00     45.28
 68.47   1808.00     42.52
 68.57   1590.86     39.89
 68.67   1239.00     35.20
 68.77   1003.00     31.67
 68.87    857.84     29.29
 68.97    762.00     27.60
 69.07    679.28     26.06
 69.17    674.00     25.96
 69.27    575.37     23.99
 69.37    629.00     25.08
 69.47    566.33     23.80
 69.57    568.00     23.83
 69.67    586.00     24.21
 69.77    607.53     24.65
 69.87    568.00     23.83
 69.97    560.00     23.66
 70.07    613.74     24.77
 70.17    614.00     24.78
 70.27    577.14     24.02
 70.37    567.00     23.81
 70.47    546.00     23.37
 70.57    564.92     23.77
 70.67    629.44     25.09
 70.77    622.00     24.94
 70.87    635.00     25.20
 70.97    656.12     25.61
 71.07    737.87     27.16
 71.17    800.95     28.30
 71.27    879.00     29.65
 71.37   1013.00     31.83
 71.47   1120.10     33.47
 71.57   1304.00     36.11
 71.67   1503.00     38.77
 71.77   1577.29     39.72
 71.87   1800.00     42.43
 71.97   1880.00     43.36
 72.07   1916.00     43.77
 72.17   1943.07     44.08
 72.27   1821.00     42.67
 72.37   1650.00     40.62
 72.47   1506.00     38.81
 72.57   1360.00     36.88
 72.67   1154.00     33.97
 72.77    965.00     31.06
 72.87    988.86     31.45
 72.97    795.00     28.20
 73.07    774.05     27.82
 73.17    749.43     27.38
 73.27    732.36     27.06
 73.37    630.23     25.10
 73.47    629.00     25.08
 73.57    619.00     24.88
 73.67    662.26     25.73
 73.77    554.00     23.54
 73.87    566.00     23.79
 73.97    591.00     24.31
 74.07    530.39     23.03
 74.17    559.00     23.64
 74.27    572.15     23.92
 74.37    529.83     23.02
 74.47    626.00     25.02
 74.57    613.23     24.76
 74.67    578.86     24.06
 74.77    645.00     25.40
 74.87    612.00     24.74
 74.97    562.22     23.71
 75.07    516.35     22.72
 75.17    616.00     24.82
 75.27    571.00     23.90
 75.37    529.00     23.00
 75.47    552.00     23.49
 75.57    522.76     22.86
 75.67    547.00     23.39
 75.77    554.00     23.54
 75.87    563.00     23.73
 75.97    663.00     25.75
 76.07    582.10     24.13
 76.17    694.63     26.36
 76.27    657.93     25.65
 76.37    671.00     25.90
 76.47    689.33     26.26
 76.57    732.68     27.07
 76.67    683.00     26.13
 76.77    691.00     26.29
 76.87    726.60     26.96
 76.97    670.03     25.88
 77.07    622.00     24.94
 77.17    608.00     24.66
 77.27    624.88     25.00
 77.37    619.40     24.89
 77.47    543.00     23.30
 77.57    510.19     22.59
 77.67    536.53     23.16
 77.77    502.00     22.41
 77.87    510.86     22.60
 77.97    523.13     22.87
 78.07    522.00     22.85
 78.17    524.00     22.89
 78.27    468.00     21.63
 78.37    508.22     22.54
 78.47    530.00     23.02
 78.57    476.00     21.82
 78.67    494.00     22.23
 78.77    524.00     22.89
 78.87    575.22     23.98
 78.97    558.00     23.62
 79.07    535.00     23.13
 79.17    569.52     23.86
 79.27    521.00     22.83
 79.37    531.00     23.04
 79.47    513.20     22.65
 79.57    552.00     23.49
 79.67    498.00     22.32
 79.77    541.00     23.26
 79.87    573.03     23.94
 79.97    606.00     24.62
 80.07    556.80     23.60
 80.17    589.00     24.27
 80.27    581.00     24.10
 80.37    537.40     23.18
 80.47    571.00     23.90
 80.57    594.00     24.37
 80.67    591.00     24.31
 80.77    643.00     25.36
 80.87    720.83     26.85
 80.97    675.00     25.98
 81.07    733.00     27.07
 81.17    755.00     27.48
 81.27    752.00     27.42
 81.37    790.00     28.11
 81.47    689.00     26.25
 81.57    732.00     27.06
 81.67    762.00     27.60
 81.77    728.00     26.98
 81.87    740.00     27.20
 81.97    659.00     25.67
 82.07    674.00     25.96
 82.17    696.00     26.38
 82.27    603.54     24.57
 82.37    556.00     23.58
 82.47    635.94     25.22
 82.57    608.72     24.67
 82.67    554.21     23.54
 82.77    599.00     24.47
 82.87    580.00     24.08
 82.97    512.01     22.63
 83.07    516.28     22.72
 83.17    550.00     23.45
 83.27    537.00     23.17
 83.37    556.94     23.60
 83.47    585.00     24.19
 83.57    511.17     22.61
 83.67    561.00     23.69
 83.77    583.00     24.15
 83.87    562.00     23.71
 83.97    605.00     24.60
 84.07    572.00     23.92
 84.17    594.00     24.37
 84.27    574.00     23.96
 84.37    555.00     23.56
 84.47    602.08     24.54
 84.57    541.00     23.26
 84.67    565.42     23.78
 84.77    543.00     23.30
 84.87    491.58     22.17
 84.97    516.00     22.72
 85.07    494.01     22.23
 85.17    556.00     23.58
 85.27    560.00     23.66
 85.37    603.00     24.56
 85.47    536.00     23.15
 85.57    545.99     23.37
 85.67    508.00     22.54
 85.77    488.07     22.09
 85.87    509.00     22.56
 85.97    532.48     23.08
 86.07    560.08     23.67
 86.17    514.00     22.67
 86.27    552.00     23.49
 86.37    537.00     23.17
 86.47    531.00     23.04
 86.57    518.69     22.77
 86.67    572.00     23.92
 86.77    578.00     24.04
 86.87    617.65     24.85
 86.97    596.00     24.41
 87.07    633.00     25.16
 87.17    642.00     25.34
 87.27    629.00     25.08
 87.37    649.92     25.49
 87.47    675.00     25.98
 87.57    646.00     25.42
 87.67    613.00     24.76
 87.77    628.00     25.06
 87.87    628.00     25.06
 87.97    627.39     25.05
 88.07    620.99     24.92
 88.17    570.00     23.87
 88.27    527.78     22.97
 88.37    564.00     23.75
 88.47    549.00     23.43
 88.57    560.15     23.67
 88.67    582.00     24.12
 88.77    606.00     24.62
 88.87    574.84     23.98
 88.97    592.79     24.35
 89.07    611.05     24.72
 89.17    624.00     24.98
 89.27    575.32     23.99
 89.37    599.00     24.47
 89.47    594.00     24.37
 89.57    620.00     24.90
 89.67    608.00     24.66
 89.77    545.00     23.35
 89.87    570.00     23.87
 89.97    556.20     23.58
 90.07    513.00     22.65
 90.17    529.83     23.02
 90.27    560.00     23.66
 90.37    524.73     22.91
 90.47    582.55     24.14
 90.57    548.98     23.43
 90.67    518.00     22.76
 90.77    528.00     22.98
 90.87    532.00     23.07
 90.97    520.00     22.80
 91.07    507.00     22.52
 91.17    527.00     22.96
 91.27    553.00     23.52
 91.37    588.00     24.25
 91.47    543.00     23.30
 91.57    539.00     23.22
 91.67    586.38     24.22
 91.77    510.00     22.58
 91.87    504.00     22.45
 91.97    515.00     22.69
 92.07    540.00     23.24
 92.17    583.00     24.15
 92.27    623.00     24.96
 92.37    618.00     24.86
 92.47    599.89     24.49
 92.57    641.00     25.32
 92.67    644.07     25.38
 92.77    652.74     25.55
 92.87    735.00     27.11
 92.97    703.00     26.51
 93.07    761.00     27.59
 93.17    768.00     27.71
 93.27    757.02     27.51
 93.37    746.00     27.31
 93.47    797.00     28.23
 93.57    779.00     27.91
 93.67    782.17     27.97
 93.77    817.18     28.59
 93.87    845.00     29.07
 93.97    866.00     29.43
 94.07    843.11     29.04
 94.17    909.00     30.15
 94.27    887.00     29.78
 94.37    872.00     29.53
 94.47    838.00     28.95
 94.57    902.19     30.04
 94.67    920.00     30.33
 94.77    914.00     30.23
 94.87    873.02     29.55
 94.97    900.00     30.00
 95.07    895.93     29.93
 95.17    894.00     29.90
 95.27    831.00     28.83
 95.37    750.00     27.39
 95.47    781.00     27.95
 95.57    755.00     27.48
 95.67    699.00     26.44
 95.77    740.00     27.20
 95.87    719.00     26.81
 95.97    755.00     27.48
 96.07    696.44     26.39
 96.17    729.73     27.01
 96.27    724.00     26.91
 96.37    812.00     28.50
 96.47    766.75     27.69
 96.57    854.59     29.23
 96.67    942.00     30.69
 96.77   1015.00     31.86
 96.87   1026.78     32.04
 96.97   1130.00     33.62
 97.07   1271.00     35.65
 97.17   1238.04     35.19
 97.27   1366.34     36.96
 97.37   1392.00     37.31
 97.47   1418.00     37.66
 97.57   1439.00     37.93
 97.67   1456.00     38.16
 97.77   1387.00     37.24
 97.87   1335.00     36.54
 97.97   1260.00     35.50
 98.07   1158.00     34.03
 98.17   1142.00     33.79
 98.27   1129.00     33.60
 98.37   1066.00     32.65
 98.47    907.00     30.12
 98.57    963.16     31.03
 98.67    836.00     28.91
 98.77    796.79     28.23
 98.87    799.00     28.27
 98.97    794.00     28.18
 99.07    798.00     28.25
 99.17    878.00     29.63
 99.27    908.00     30.13
 99.37    987.45     31.42
 99.47   1102.00     33.20
 99.57   1161.80     34.09
 99.67   1148.00     33.88
 99.77   1357.82     36.85
 99.87   1506.00     38.81
 99.97   1530.00     39.12
100.07   1736.00     41.67
100.17   1733.27     41.63
100.27   1910.00     43.70
100.37   1931.00     43.94
100.47   1952.00     44.18
100.57   1997.00     44.69
100.67   2021.00     44.96
100.77   2054.00     45.32
100.87   2000.00     44.72
100.97   1996.00     44.68
101.07   1927.00     43.90
101.17   1912.00     43.73
101.27   1739.00     41.70
101.37   1654.00     40.67
101.47   1597.10     39.96
101.57   1475.00     38.41
101.67   1387.00     37.24
101.77   1347.00     36.70
101.87   1264.32     35.56
101.97   1288.13     35.89
102.07   1159.00     34.04
102.17   1139.65     33.76
102.27   1183.16     34.40
102.37   1121.00     33.48
102.47   1168.24     34.18
102.57   1117.00     33.42
102.67   1009.00     31.76
102.77   1099.40     33.16
102.87    978.27     31.28
102.97    924.00     30.40
103.07    995.74     31.56
103.17    904.30     30.07
103.27    841.00     29.00
103.37    865.00     29.41
103.47    796.00     28.21
103.57    747.00     27.33
103.67    662.02     25.73
103.77    626.61     25.03
103.87    677.00     26.02
103.97    598.00     24.45
104.07    638.00     25.26
104.17    569.24     23.86
104.27    580.00     24.08
104.37    522.73     22.86
104.47    578.00     24.04
104.57    528.70     22.99
104.67    541.00     23.26
104.77    549.77     23.45
104.87    568.00     23.83
104.97    567.78     23.83
105.07    538.00     23.19
105.17    561.63     23.70
105.27    563.31     23.73
105.37    563.00     23.73
105.47    586.62     24.22
105.57    558.24     23.63
105.67    550.00     23.45
105.77    602.90     24.55
105.87    559.00     23.64
105.97    597.00     24.43
106.07    606.00     24.62
106.17    572.57     23.93
106.27    573.23     23.94
106.37    625.00     25.00
106.47    570.97     23.89
106.57    622.00     24.94
106.67    605.79     24.61
106.77    645.00     25.40
106.87    633.00     25.16
106.97    659.00     25.67
107.07    678.00     26.04
107.17    719.46     26.82
107.27    738.00     27.17
107.37    696.00     26.38
107.47    656.08     25.61
107.57    737.67     27.16
107.67    723.00     26.89
107.77    723.00     26.89
107.87    683.70     26.15
107.97    748.25     27.35
108.07    715.00     26.74
108.17    752.00     27.42
108.27    647.00     25.44
108.37    737.00     27.15
108.47    717.00     26.78
108.57    728.97     27.00
108.67    730.65     27.03
108.77    700.00     26.46
108.87    691.00     26.29
108.97    695.68     26.38
109.07    669.00     25.87
109.17    723.00     26.89
109.27    630.62     25.11
109.37    706.00     26.57
109.47    698.70     26.43
109.57    674.10     25.96
109.67    616.00     24.82
109.77    642.72     25.35
109.87    607.92     24.66
109.97    596.00     24.41
110.07    595.14     24.40
110.17    485.00     22.02
110.27    570.00     23.87
110.37    587.00     24.23
110.47    565.00     23.77
110.57    528.23     22.98
110.67    569.00     23.85
110.77    592.74     24.35
110.87    507.74     22.53
110.97    556.00     23.58
111.07    557.00     23.60
111.17    499.00     22.34
111.27    541.00     23.26
111.37    526.00     22.93
111.47    541.00     23.26
111.57    575.62     23.99
111.67    590.00     24.29
111.77    565.00     23.77
111.87    542.00     23.28
111.97    533.00     23.09
112.07    620.00     24.90
112.17    605.00     24.60
112.27    522.00     22.85
112.37    563.00     23.73
112.47    584.00     24.17
112.57    556.00     23.58
112.67    632.00     25.14
112.77    597.54     24.44
112.87    653.00     25.55
112.97    635.00     25.20
113.07    585.00     24.19
113.17    630.83     25.12
113.27    745.98     27.31
113.37    751.20     27.41
113.47    728.07     26.98
113.57    729.00     27.00
113.67    802.09     28.32
113.77    817.00     28.58
113.87    849.00     29.14
113.97    922.00     30.36
114.07    932.87     30.54
114.17    979.00     31.29
114.27   1029.00     32.08
114.37   1141.00     33.78
114.47   1210.15     34.79
114.57   1420.00     37.68
114.67   1554.00     39.42
114.77   1625.89     40.32
114.87   1781.29     42.21
114.97   2179.00     46.68
115.07   2281.00     47.76
115.17   2435.82     49.35
115.27   2896.00     53.81
115.37   3260.00     57.10
115.47   3605.00     60.04
115.57   3876.00     62.26
115.67   4053.00     63.66
115.77   4395.11     66.30
115.87   4925.00     70.18
115.97   5220.00     72.25
116.07   5725.00     75.66
116.17   6102.00     78.12
116.27   6308.00     79.42
116.37   6559.00     80.99
116.47   6619.00     81.36
116.57   6792.69     82.42
116.67   6776.94     82.32
116.77   6805.00     82.49
116.87   6555.00     80.96
116.97   6450.00     80.31
117.07   6165.00     78.52
117.17   5948.79     77.13
117.27   5339.00     73.07
117.37   5419.31     73.62
117.47   4837.00     69.55
117.57   4510.34     67.16
117.67   4311.17     65.66
117.77   3916.00     62.58
117.87   3536.09     59.47
117.97   3242.24     56.94
118.07   2845.90     53.35
118.17   2607.66     51.07
118.27   2333.15     48.30
118.37   1923.00     43.85
118.47   1718.00     41.45
118.57   1543.00     39.28
118.67   1421.00     37.70
118.77   1257.00     35.45
118.87   1158.83     34.04
118.97   1054.00     32.47
119.07   1016.28     31.88
119.17    907.51     30.12
119.27    827.00     28.76
119.37    754.38     27.47
119.47    762.21     27.61
119.57    753.00     27.44
119.67    643.63     25.37
119.77    647.31     25.44
119.87    661.71     25.72
119.97    598.64     24.47
120.07    613.00     24.76
120.17    656.29     25.62
120.27    622.00     24.94
120.37    609.69     24.69
120.47    598.00     24.45
120.57    558.00     23.62
120.67    556.00     23.58
120.77    611.00     24.72
120.87    553.00     23.52
120.97    590.00     24.29
121.07    595.00     24.39
121.17    551.00     23.47
121.27    575.36     23.99
121.37    600.00     24.49
121.47    607.00     24.64
121.57    580.00     24.08
121.67    624.00     24.98
121.77    608.00     24.66
121.87    589.00     24.27
121.97    630.38     25.11
122.07    596.90     24.43
122.17    659.00     25.67
122.27    659.09     25.67
122.37    612.00     24.74
122.47    666.42     25.82
122.57    633.00     25.16
122.67    676.00     26.00
122.77    641.00     25.32
122.87    626.00     25.02
122.97    606.00     24.62
123.07    659.30     25.68
123.17    620.08     24.90
123.27    639.83     25.29
123.37    668.00     25.85
123.47    659.13     25.67
123.57    656.00     25.61
123.67    601.48     24.52
123.77    619.00     24.88
123.87    630.00     25.10
123.97    587.81     24.24
124.07    629.00     25.08
124.17    623.00     24.96
124.27    622.00     24.94
124.37    588.00     24.25
124.47    614.00     24.78
124.57    566.00     23.79
124.67    562.00     23.71
124.77    642.23     25.34
124.87    583.00     24.15
124.97    576.50     24.01
