XYDATA



INTER 1.0 1.0 0 0
TEMP 1074.0
  9.97    615.38     24.81
 10.07    532.58     23.08
 10.17    563.20     23.73
 10.27    621.00     24.92
 10.37    612.00     24.74
 10.47    564.10     23.75
 10.57    636.00     25.22
 10.67    580.00     24.08
 10.77    555.55     23.57
 10.87    582.00     24.12
 10.97    604.00     24.58
 11.07    623.00     24.96
 11.17    575.65     23.99
 11.27    617.00     24.84
 11.37    586.00     24.21
 11.47    588.00     24.25
 11.57    551.66     23.49
 11.67    619.00     24.88
 11.77    549.55     23.44
 11.87    613.21     24.76
 11.97    647.00     25.44
 12.07    675.00     25.98
 12.17    653.00     25.55
 12.27    663.00     25.75
 12.37    631.00     25.12
 12.47    636.00     25.22
 12.57    637.00     25.24
 12.67    577.00     24.02
 12.77    552.00     23.49
 12.87    617.00     24.84
 12.97    532.00     23.07
 13.07    560.00     23.66
 13.17    553.00     23.52
 13.27    571.49     23.91
 13.37    591.74     24.33
 13.47    615.04     24.80
 13.57    555.00     23.56
 13.67    560.00     23.66
 13.77    543.00     23.30
 13.87    524.79     22.91
 13.97    520.00     22.80
 14.07    538.51     23.21
 14.17    568.30     23.84
 14.27    568.00     23.83
 14.37    573.86     23.96
 14.47    519.00     22.78
 14.57    549.00     23.43
 14.67    537.00     23.17
 14.77    526.00     22.93
 14.87    522.60     22.86
 14.97    520.77     22.82
 15.07    540.00     23.24
 15.17    570.00     23.87
 15.27    596.74     24.43
 15.37    575.00     23.98
 15.47    567.51     23.82
 15.57    558.09     23.62
 15.67    534.00     23.11
 15.77    562.00     23.71
 15.87    567.31     23.82
 15.97    497.00     22.29
 16.07    560.00     23.66
 16.17    556.00     23.58
 16.27    566.95     23.81
 16.37    575.00     23.98
 16.47    594.63     24.39
 16.57    551.00     23.47
 16.67    608.42     24.67
 16.77    556.00     23.58
 16.87    559.09     23.65
 16.97    532.77     23.08
 17.07    515.00     22.69
 17.17    522.00     22.85
 17.27    646.00     25.42
 17.37    574.00     23.96
 17.47    605.72     24.61
 17.57    582.94     24.14
 17.67    521.83     22.84
 17.77    527.00     22.96
 17.87    584.00     24.17
 17.97    536.00     23.15
 18.07    576.00     24.00
 18.17    586.00     24.21
 18.27    574.00     23.96
 18.37    542.00     23.28
 18.47    541.00     23.26
 18.57    557.00     23.60
 18.67    561.00     23.69
 18.77    556.99     23.60
 18.87    559.00     23.64
 18.97    537.00     23.17
 19.07    596.00     24.41
 19.17    535.00     23.13
 19.27    517.00     22.74
 19.37    563.00     23.73
 19.47    558.59     23.63
 19.57    571.00     23.90
 19.67    548.00     23.41
 19.77    528.00     22.98
 19.87    570.00     23.87
 19.97    570.00     23.87
 20.07    577.00     24.02
 20.17    541.00     23.26
 20.27    503.00     22.43
 20.37    535.35     23.14
 20.47    565.00     23.77
 20.57    554.63     23.55
 20.67    555.00     23.56
 20.77    539.00     23.22
 20.87    587.00     24.23
 20.97    573.00     23.94
 21.07    506.72     22.51
 21.17    562.00     23.71
 21.27    550.00     23.45
 21.37    545.57     23.36
 21.47    580.46     24.09
 21.57    551.00     23.47
 21.67    532.00     23.07
 21.77    539.00     23.22
 21.87    574.24     23.96
 21.97    529.00     23.00
 22.07    574.00     23.96
 22.17    572.00     23.92
 22.27    569.79     23.87
 22.37    518.17     22.76
 22.47    511.24     22.61
 22.57    575.64     23.99
 22.67    543.00     23.30
 22.77    562.00     23.71
 22.87    560.36     23.67
 22.97    529.00     23.00
 23.07    552.00     23.49
 23.17    518.00     22.76
 23.27    567.01     23.81
 23.37    527.00     22.96
 23.47    543.38     23.31
 23.57    563.00     23.73
 23.67    561.00     23.69
 23.77    589.00     24.27
 23.87    559.77     23.66
 23.97    548.53     23.42
 24.07    541.00     23.26
 24.17    538.94     23.22
 24.27    595.00     24.39
 24.37    615.00     24.80
 24.47    566.00     23.79
 24.57    598.78     24.47
 24.67    581.00     24.10
 24.77    627.00     25.04
 24.87    598.00     24.45
 24.97    578.02     24.04
 25.07    599.38     24.48
 25.17    519.23     22.79
 25.27    510.00     22.58
 25.37    547.00     23.39
 25.47    504.38     22.46
 25.57    545.00     23.35
 25.67    581.95     24.12
 25.77    560.00     23.66
 25.87    524.00     22.89
 25.97    506.65     22.51
 26.07    579.00     24.06
 26.17    509.81     22.58
 26.27    529.00     23.00
 26.37    583.47     24.16
 26.47    548.76     23.43
 26.57    540.00     23.24
 26.67    518.61     22.77
 26.77    566.00     23.79
 26.87    513.00     22.65
 26.97    540.57     23.25
 27.07    561.00     23.69
 27.17    549.00     23.43
 27.27    514.00     22.67
 27.37    560.03     23.66
 27.47    511.37     22.61
 27.57    503.36     22.44
 27.67    618.00     24.86
 27.77    596.00     24.41
 27.87    627.00     25.04
 27.97    672.00     25.92
 28.07    776.00     27.86
 28.17    902.37     30.04
 28.27    946.30     30.76
 28.37    891.00     29.85
 28.47    763.24     27.63
 28.57    740.03     27.20
 28.67    662.36     25.74
 28.77    735.00     27.11
 28.87    827.00     28.76
 28.97    804.00     28.35
 29.07    782.00     27.96
 29.17    685.00     26.17
 29.27    657.37     25.64
 29.37    596.00     24.41
 29.47    546.21     23.37
 29.57    589.10     24.27
 29.67    586.00     24.21
 29.77    530.72     23.04
 29.87    586.00     24.21
 29.97    522.99     22.87
 30.07    551.00     23.47
 30.17    513.62     22.66
 30.27    549.00     23.43
 30.37    569.00     23.85
 30.47    562.01     23.71
 30.57    555.00     23.56
 30.67    526.02     22.94
 30.77    588.00     24.25
 30.87    572.00     23.92
 30.97    596.00     24.41
 31.07    615.00     24.80
 31.17    536.00     23.15
 31.27    542.00     23.28
 31.37    564.49     23.76
 31.47    554.63     23.55
 31.57    504.00     22.45
 31.67    527.00     22.96
 31.77    555.00     23.56
 31.87    557.03     23.60
 31.97    508.00     22.54
 32.07    517.00     22.74
 32.17    523.00     22.87
 32.27    537.00     23.17
 32.37    493.88     22.22
 32.47    568.00     23.83
 32.57    538.00     23.19
 32.67    536.00     23.15
 32.77    524.69     22.91
 32.87    555.00     23.56
 32.97    536.00     23.15
 33.07    524.29     22.90
 33.17    523.00     22.87
 33.27    565.00     23.77
 33.37    523.74     22.89
 33.47    553.24     23.52
 33.57    599.78     24.49
 33.67    686.01     26.19
 33.77    822.00     28.67
 33.87    889.00     29.82
 33.97   1017.00     31.89
 34.07   1009.10     31.77
 34.17   1004.00     31.69
 34.27    927.00     30.45
 34.37    738.00     27.17
 34.47    660.00     25.69
 34.57    627.00     25.04
 34.67    532.89     23.08
 34.77    498.75     22.33
 34.87    573.36     23.94
 34.97    515.89     22.71
 35.07    513.00     22.65
 35.17    538.00     23.19
 35.27    534.00     23.11
 35.37    512.00     22.63
 35.47    490.45     22.15
 35.57    495.81     22.27
 35.67    531.00     23.04
 35.77    524.81     22.91
 35.87    482.67     21.97
 35.97    547.43     23.40
 36.07    496.00     22.27
 36.17    498.00     22.32
 36.27    494.00     22.23
 36.37    478.00     21.86
 36.47    472.00     21.73
 36.57    488.88     22.11
 36.67    525.06     22.91
 36.77    507.00     22.52
 36.87    528.00     22.98
 36.97    504.09     22.45
 37.07    507.13     22.52
 37.17    487.00     22.07
 37.27    509.00     22.56
 37.37    534.00     23.11
 37.47    527.11     22.96
 37.57    560.41     23.67
 37.67    550.63     23.47
 37.77    529.00     23.00
 37.87    550.07     23.45
 37.97    532.00     23.07
 38.07    526.00     22.93
 38.17    518.85     22.78
 38.27    510.00     22.58
 38.37    519.37     22.79
 38.47    532.00     23.07
 38.57    478.76     21.88
 38.67    498.00     22.32
 38.77    545.78     23.36
 38.87    494.00     22.23
 38.97    465.00     21.56
 39.07    522.00     22.85
 39.17    474.00     21.77
 39.27    502.00     22.41
 39.37    514.00     22.67
 39.47    532.00     23.07
 39.57    522.82     22.87
 39.67    500.61     22.37
 39.77    491.00     22.16
 39.87    485.00     22.02
 39.97    479.00     21.89
 40.07    495.00     22.25
 40.17    516.00     22.72
 40.27    501.53     22.39
 40.37    488.00     22.09
 40.47    498.00     22.32
 40.57    503.00     22.43
 40.67    495.00     22.25
 40.77    481.00     21.93
 40.87    475.00     21.79
 40.97    498.71     22.33
 41.07    477.07     21.84
 41.17    503.00     22.43
 41.27    550.00     23.45
 41.37    481.53     21.94
 41.47    498.30     22.32
 41.57    518.00     22.76
 41.67    505.00     22.47
 41.77    522.83     22.87
 41.87    489.00     22.11
 41.97    518.00     22.76
 42.07    478.00     21.86
 42.17    482.00     21.95
 42.27    532.00     23.07
 42.37    574.00     23.96
 42.47    606.01     24.62
 42.57    653.48     25.56
 42.67    595.00     24.39
 42.77    631.25     25.12
 42.87    601.06     24.52
 42.97    508.00     22.54
 43.07    535.60     23.14
 43.17    490.00     22.14
 43.27    517.65     22.75
 43.37    496.00     22.27
 43.47    544.00     23.32
 43.57    511.00     22.61
 43.67    527.90     22.98
 43.77    493.00     22.20
 43.87    486.00     22.05
 43.97    516.88     22.73
 44.07    539.02     23.22
 44.17    514.00     22.67
 44.27    508.00     22.54
 44.37    512.00     22.63
 44.47    516.00     22.72
 44.57    500.00     22.36
 44.67    524.00     22.89
 44.77    481.00     21.93
 44.87    536.00     23.15
 44.97    529.00     23.00
 45.07    517.00     22.74
 45.17    482.15     21.96
 45.27    509.54     22.57
 45.37    497.00     22.29
 45.47    503.56     22.44
 45.57    486.00     22.05
 45.67    508.00     22.54
 45.77    527.00     22.96
 45.87    505.00     22.47
 45.97    521.65     22.84
 46.07    491.00     22.16
 46.17    503.00     22.43
 46.27    465.00     21.56
 46.37    481.00     21.93
 46.47    504.00     22.45
 46.57    524.91     22.91
 46.67    526.00     22.93
 46.77    494.96     22.25
 46.87    493.49     22.21
 46.97    496.00     22.27
 47.07    493.00     22.20
 47.17    549.57     23.44
 47.27    536.77     23.17
 47.37    529.00     23.00
 47.47    546.28     23.37
 47.57    548.00     23.41
 47.67    593.12     24.35
 47.77    562.00     23.71
 47.87    578.00     24.04
 47.97    579.00     24.06
 48.07    531.04     23.04
 48.17    581.93     24.12
 48.27    568.00     23.83
 48.37    536.00     23.15
 48.47    468.00     21.63
 48.57    533.00     23.09
 48.67    534.14     23.11
 48.77    574.14     23.96
 48.87    568.80     23.85
 48.97    543.00     23.30
 49.07    553.29     23.52
 49.17    586.00     24.21
 49.27    630.52     25.11
 49.37    673.32     25.95
 49.47    706.00     26.57
 49.57    831.39     28.83
 49.67    877.95     29.63
 49.77   1129.00     33.60
 49.87   1507.12     38.82
 49.97   1900.00     43.59
 50.07   2193.76     46.84
 50.17   2563.01     50.63
 50.27   2529.00     50.29
 50.37   2347.00     48.45
 50.47   1777.00     42.15
 50.57   1350.00     36.74
 50.67   1094.20     33.08
 50.77    786.00     28.04
 50.87    714.35     26.73
 50.97    664.00     25.77
 51.07    634.14     25.18
 51.17    622.00     24.94
 51.27    646.00     25.42
 51.37    559.71     23.66
 51.47    562.00     23.71
 51.57    571.00     23.90
 51.67    588.00     24.25
 51.77    550.38     23.46
 51.87    552.32     23.50
 51.97    540.00     23.24
 52.07    565.00     23.77
 52.17    541.99     23.28
 52.27    541.21     23.26
 52.37    540.32     23.24
 52.47    575.88     24.00
 52.57    572.77     23.93
 52.67    549.97     23.45
 52.77    554.44     23.55
 52.87    601.00     24.52
 52.97    714.00     26.72
 53.07    810.32     28.47
 53.17    845.81     29.08
 53.27   1072.00     32.74
 53.37   1157.67     34.02
 53.47   1147.00     33.87
 53.57   1171.00     34.22
 53.67   1173.15     34.25
 53.77   1006.63     31.73
 53.87    804.00     28.35
 53.97    761.74     27.60
 54.07    707.00     26.59
 54.17    632.00     25.14
 54.27    574.00     23.96
 54.37    545.44     23.35
 54.47    579.36     24.07
 54.57    561.00     23.69
 54.67    590.00     24.29
 54.77    529.40     23.01
 54.87    583.42     24.15
 54.97    545.00     23.35
 55.07    594.00     24.37
 55.17    544.00     23.32
 55.27    557.00     23.60
 55.37    549.00     23.43
 55.47    574.00     23.96
 55.57    548.52     23.42
 55.67    592.00     24.33
 55.77    570.00     23.87
 55.87    618.90     24.88
 55.97    596.00     24.41
 56.07    647.00     25.44
 56.17    765.00     27.66
 56.27    848.00     29.12
 56.37   1092.60     33.05
 56.47   1387.20     37.25
 56.57   1776.61     42.15
 56.67   2186.00     46.75
 56.77   2476.00     49.76
 56.87   2714.00     52.10
 56.97   2631.00     51.29
 57.07   2333.20     48.30
 57.17   2006.00     44.79
 57.27   1612.00     40.15
 57.37   1371.00     37.03
 57.47    970.02     31.15
 57.57    951.00     30.84
 57.67    716.57     26.77
 57.77    672.26     25.93
 57.87    668.63     25.86
 57.97    634.80     25.20
 58.07    688.00     26.23
 58.17    693.00     26.32
 58.27    775.79     27.85
 58.37    856.00     29.26
 58.47    871.00     29.51
 58.57   1093.00     33.06
 58.67   1216.00     34.87
 58.77   1438.00     37.92
 58.87   1591.00     39.89
 58.97   1531.05     39.13
 59.07   1557.94     39.47
 59.17   1563.00     39.53
 59.27   1481.00     38.48
 59.37   1337.00     36.57
 59.47   1287.51     35.88
 59.57   1147.00     33.87
 59.67   1092.04     33.05
 59.77   1140.29     33.77
 59.87   1210.63     34.79
 59.97   1360.00     36.88
 60.07   1387.00     37.24
 60.17   1508.00     38.83
 60.27   1596.00     39.95
 60.37   1552.98     39.41
 60.47   1520.00     38.99
 60.57   1353.00     36.78
 60.67   1091.09     33.03
 60.77    916.00     30.27
 60.87    787.00     28.05
 60.97    707.00     26.59
 61.07    676.00     26.00
 61.17    592.27     24.34
 61.27    610.00     24.70
 61.37    640.00     25.30
 61.47    644.19     25.38
 61.57    741.89     27.24
 61.67    806.00     28.39
 61.77    947.00     30.77
 61.87   1133.62     33.67
 61.97   1222.43     34.96
 62.07   1293.00     35.96
 62.17   1501.53     38.75
 62.27   1369.00     37.00
 62.37   1320.54     36.34
 62.47   1156.00     34.00
 62.57   1094.24     33.08
 62.67    898.00     29.97
 62.77    818.21     28.60
 62.87    612.00     24.74
 62.97    649.00     25.48
 63.07    611.00     24.72
 63.17    608.72     24.67
 63.27    535.31     23.14
 63.37    607.00     24.64
 63.47    558.19     23.63
 63.57    609.00     24.68
 63.67    573.00     23.94
 63.77    584.89     24.18
 63.87    589.44     24.28
 63.97    622.72     24.95
 64.07    701.30     26.48
 64.17    721.12     26.85
 64.27    885.00     29.75
 64.37    911.00     30.18
 64.47    970.29     31.15
 64.57    969.38     31.13
 64.67   1060.00     32.56
 64.77   1040.63     32.26
 64.87    993.00     31.51
 64.97    922.00     30.36
 65.07    902.00     30.03
 65.17    751.00     27.40
 65.27    744.00     27.28
 65.37    714.00     26.72
 65.47    680.65     26.09
 65.57    645.00     25.40
 65.67    639.00     25.28
 65.77    617.00     24.84
 65.87    529.00     23.00
 65.97    550.00     23.45
 66.07    522.00     22.85
 66.17    564.00     23.75
 66.27    558.00     23.62
 66.37    542.00     23.28
 66.47    623.00     24.96
 66.57    563.00     23.73
 66.67    532.00     23.07
 66.77    543.78     23.32
 66.87    595.00     24.39
 66.97    613.17     24.76
 67.07    672.00     25.92
 67.17    661.00     25.71
 67.27    766.27     27.68
 67.37    839.05     28.97
 67.47    974.00     31.21
 67.57   1257.00     35.45
 67.67   1558.56     39.48
 67.77   1862.87     43.16
 67.87   2018.00     44.92
 67.97   2347.00     48.45
 68.07   2430.81     49.30
 68.17   2503.06     50.03
 68.27   2321.00     48.18
 68.37   2124.00     46.09
 68.47   1771.00     42.08
 68.57   1522.21     39.02
 68.67   1300.00     36.06
 68.77   1056.00     32.50
 68.87    849.00     29.14
 68.97    783.00     27.98
 69.07    674.00     25.96
 69.17    670.00     25.88
 69.27    569.00     23.85
 69.37    622.00     24.94
 69.47    603.00     24.56
 69.57    602.50     24.55
 69.67    530.42     23.03
 69.77    574.00     23.96
 69.87    572.00     23.92
 69.97    589.00     24.27
 70.07    613.00     24.76
 70.17    536.99     23.17
 70.27    565.00     23.77
 70.37    597.00     24.43
 70.47    586.00     24.21
 70.57    606.22     24.62
 70.67    565.00     23.77
 70.77    593.56     24.36
 70.87    584.00     24.17
 70.97    602.00     24.54
 71.07    627.00     25.04
 71.17    746.00     27.31
 71.27    822.00     28.67
 71.37    946.00     30.76
 71.47   1041.00     32.26
 71.57   1210.00     34.79
 71.67   1409.04     37.54
 71.77   1572.65     39.66
 71.87   1740.00     41.71
 71.97   1880.00     43.36
 72.07   1936.00     44.00
 72.17   1852.72     43.04
 72.27   1715.69     41.42
 72.37   1636.00     40.45
 72.47   1501.00     38.74
 72.57   1335.66     36.55
 72.67   1226.00     35.01
 72.77   1088.00     32.98
 72.87    983.20     31.36
 72.97    924.00     30.40
 73.07    920.22     30.34
 73.17    781.00     27.95
 73.27    759.54     27.56
 73.37    634.00     25.18
 73.47    690.40     26.28
 73.57    618.00     24.86
 73.67    608.00     24.66
 73.77    592.00     24.33
 73.87    527.00     22.96
 73.97    563.00     23.73
 74.07    575.00     23.98
 74.17    561.37     23.69
 74.27    603.20     24.56
 74.37    543.35     23.31
 74.47    524.27     22.90
 74.57    606.33     24.62
 74.67    626.00     25.02
 74.77    612.00     24.74
 74.87    624.00     24.98
 74.97    596.08     24.41
 75.07    631.00     25.12
 75.17    620.00     24.90
 75.27    553.00     23.52
 75.37    553.00     23.52
 75.47    534.00     23.11
 75.57    571.26     23.90
 75.67    580.00     24.08
 75.77    603.00     24.56
 75.87    626.00     25.02
 75.97    646.56     25.43
 76.07    605.34     24.60
 76.17    669.06     25.87
 76.27    706.87     26.59
 76.37    671.00     25.90
 76.47    674.71     25.98
 76.57    692.00     26.31
 76.67    700.28     26.46
 76.77    675.66     25.99
 76.87    666.00     25.81
 76.97    654.76     25.59
 77.07    644.00     25.38
 77.17    608.00     24.66
 77.27    584.68     24.18
 77.37    585.32     24.19
 77.47    594.86     24.39
 77.57    504.85     22.47
 77.67    544.80     23.34
 77.77    562.42     23.72
 77.87    543.00     23.30
 77.97    532.52     23.08
 78.07    499.85     22.36
 78.17    510.00     22.58
 78.27    486.53     22.06
 78.37    524.00     22.89
 78.47    538.00     23.19
 78.57    552.96     23.52
 78.67    495.99     22.27
 78.77    562.00     23.71
 78.87    501.00     22.38
 78.97    570.40     23.88
 79.07    502.00     22.41
 79.17    534.00     23.11
 79.27    536.00     23.15
 79.37    546.00     23.37
 79.47    509.00     22.56
 79.57    560.00     23.66
 79.67    494.00     22.23
 79.77    560.00     23.66
 79.87    526.00     22.93
 79.97    542.84     23.30
 80.07    536.00     23.15
 80.17    526.00     22.93
 80.27    576.00     24.00
 80.37    575.00     23.98
 80.47    614.73     24.79
 80.57    636.00     25.22
 80.67    639.00     25.28
 80.77    631.00     25.12
 80.87    664.00     25.77
 80.97    700.00     26.46
 81.07    767.30     27.70
 81.17    697.99     26.42
 81.27    703.42     26.52
 81.37    769.00     27.73
 81.47    772.00     27.78
 81.57    727.00     26.96
 81.67    731.14     27.04
 81.77    762.10     27.61
 81.87    739.00     27.18
 81.97    729.69     27.01
 82.07    623.02     24.96
 82.17    650.00     25.50
 82.27    628.00     25.06
 82.37    578.75     24.06
 82.47    605.62     24.61
 82.57    582.50     24.14
 82.67    561.94     23.71
 82.77    586.00     24.21
 82.87    553.00     23.52
 82.97    555.69     23.57
 83.07    540.00     23.24
 83.17    533.52     23.10
 83.27    536.00     23.15
 83.37    552.00     23.49
 83.47    553.00     23.52
 83.57    526.00     22.93
 83.67    544.00     23.32
 83.77    559.22     23.65
 83.87    574.07     23.96
 83.97    549.00     23.43
 84.07    554.00     23.54
 84.17    610.00     24.70
 84.27    544.86     23.34
 84.37    569.00     23.85
 84.47    553.00     23.52
 84.57    565.00     23.77
 84.67    527.00     22.96
 84.77    541.60     23.27
 84.87    567.23     23.82
 84.97    537.55     23.19
 85.07    552.92     23.51
 85.17    574.32     23.96
 85.27    514.00     22.67
 85.37    518.44     22.77
 85.47    555.63     23.57
 85.57    506.95     22.52
 85.67    513.00     22.65
 85.77    492.00     22.18
 85.87    505.00     22.47
 85.97    486.58     22.06
 86.07    510.00     22.58
 86.17    501.00     22.38
 86.27    531.00     23.04
 86.37    520.00     22.80
 86.47    534.00     23.11
 86.57    544.28     23.33
 86.67    567.00     23.81
 86.77    560.00     23.66
 86.87    544.67     23.34
 86.97    599.00     24.47
 87.07    611.00     24.72
 87.17    598.09     24.46
 87.27    622.00     24.94
 87.37    685.00     26.17
 87.47    678.00     26.04
 87.57    610.00     24.70
 87.67    679.00     26.06
 87.77    662.00     25.73
 87.87    630.00     25.10
 87.97    584.00     24.17
 88.07    614.00     24.78
 88.17    545.08     23.35
 88.27    606.00     24.62
 88.37    631.00     25.12
 88.47    592.00     24.33
 88.57    591.00     24.31
 88.67    652.00     25.53
 88.77    576.00     24.00
 88.87    553.49     23.53
 88.97    596.39     24.42
 89.07    639.00     25.28
 89.17    594.00     24.37
 89.27    582.27     24.13
 89.37    600.00     24.49
 89.47    623.00     24.96
 89.57    582.69     24.14
 89.67    570.00     23.87
 89.77    536.00     23.15
 89.87    559.14     23.65
 89.97    602.00     24.54
 90.07    568.00     23.83
 90.17    602.13     24.54
 90.27    545.00     23.35
 90.37    521.00     22.83
 90.47    543.00     23.30
 90.57    509.00     22.56
 90.67    496.00     22.27
 90.77    519.00     22.78
 90.87    527.44     22.97
 90.97    516.00     22.72
 91.07    473.00     21.75
 91.17    561.00     23.69
 91.27    527.79     22.97
 91.37    530.00     23.02
 91.47    520.64     22.82
 91.57    527.00     22.96
 91.67    571.96     23.92
 91.77    534.00     23.11
 91.87    531.00     23.04
 91.97    515.52     22.71
 92.07    539.00     23.22
 92.17    570.00     23.87
 92.27    597.00     24.43
 92.37    619.00     24.88
 92.47    658.00     25.65
 92.57    692.06     26.31
 92.67    640.00     25.30
 92.77    638.67     25.27
 92.87    690.00     26.27
 92.97    703.50     26.52
 93.07    787.49     28.06
 93.17    797.00     28.23
 93.27    762.00     27.60
 93.37    813.00     28.51
 93.47    805.00     28.37
 93.57    831.00     28.83
 93.67    814.00     28.53
 93.77    894.00     29.90
 93.87    818.24     28.60
 93.97    836.78     28.93
 94.07    823.00     28.69
 94.17    840.98     29.00
 94.27    887.00     29.78
 94.37    874.00     29.56
 94.47    821.17     28.66
 94.57    926.16     30.43
 94.67    917.00     30.28
 94.77    909.00     30.15
 94.87    920.00     30.33
 94.97    843.75     29.05
 95.07    886.00     29.77
 95.17    838.48     28.96
 95.27    870.00     29.50
 95.37    830.80     28.82
 95.47    812.00     28.50
 95.57    762.00     27.60
 95.67    733.00     27.07
 95.77    737.30     27.15
 95.87    689.00     26.25
 95.97    657.00     25.63
 96.07    706.73     26.58
 96.17    716.58     26.77
 96.27    751.65     27.42
 96.37    796.38     28.22
 96.47    797.00     28.23
 96.57    819.00     28.62
 96.67    978.00     31.27
 96.77    924.00     30.40
 96.87   1094.00     33.08
 96.97   1121.00     33.48
 97.07   1178.00     34.32
 97.17   1342.25     36.64
 97.27   1375.00     37.08
 97.37   1381.00     37.16
 97.47   1370.00     37.01
 97.57   1473.00     38.38
 97.67   1372.30     37.04
 97.77   1411.00     37.56
 97.87   1356.00     36.82
 97.97   1374.00     37.07
 98.07   1221.21     34.95
 98.17   1174.00     34.26
 98.27   1022.83     31.98
 98.37   1067.00     32.66
 98.47    974.70     31.22
 98.57    842.00     29.02
 98.67    850.00     29.15
 98.77    801.00     28.30
 98.87    753.00     27.44
 98.97    789.00     28.09
 99.07    805.00     28.37
 99.17    809.00     28.44
 99.27    846.00     29.09
 99.37    892.00     29.87
 99.47   1016.80     31.89
 99.57   1056.00     32.50
 99.67   1224.56     34.99
 99.77   1263.00     35.54
 99.87   1393.45     37.33
 99.97   1535.00     39.18
100.07   1651.00     40.63
100.17   1705.34     41.30
100.27   1880.24     43.36
100.37   1865.00     43.19
100.47   2058.59     45.37
100.57   2132.00     46.17
100.67   2172.00     46.60
100.77   2054.00     45.32
100.87   2082.00     45.63
100.97   2056.00     45.34
101.07   1989.00     44.60
101.17   1935.00     43.99
101.27   1779.13     42.18
101.37   1791.67     42.33
101.47   1660.10     40.74
101.57   1580.81     39.76
101.67   1434.00     37.87
101.77   1394.00     37.34
101.87   1247.00     35.31
101.97   1226.00     35.01
102.07   1207.06     34.74
102.17   1220.52     34.94
102.27   1144.83     33.84
102.37   1125.00     33.54
102.47   1052.00     32.43
102.57   1069.00     32.70
102.67   1042.60     32.29
102.77   1089.00     33.00
102.87    996.23     31.56
102.97    930.00     30.50
103.07    973.00     31.19
103.17    958.00     30.95
103.27    847.00     29.10
103.37    795.71     28.21
103.47    802.00     28.32
103.57    746.00     27.31
103.67    648.38     25.46
103.77    668.00     25.85
103.87    660.00     25.69
103.97    598.00     24.45
104.07    589.37     24.28
104.17    567.27     23.82
104.27    579.00     24.06
104.37    579.00     24.06
104.47    548.00     23.41
104.57    574.00     23.96
104.67    516.51     22.73
104.77    537.00     23.17
104.87    552.00     23.49
104.97    576.00     24.00
105.07    537.00     23.17
105.17    540.62     23.25
105.27    568.00     23.83
105.37    538.00     23.19
105.47    526.00     22.93
105.57    575.82     24.00
105.67    557.00     23.60
105.77    546.73     23.38
105.87    535.06     23.13
105.97    590.00     24.29
106.07    580.00     24.08
106.17    609.00     24.68
106.27    628.00     25.06
106.37    597.00     24.43
106.47    588.00     24.25
106.57    585.29     24.19
106.67    673.66     25.95
106.77    638.30     25.26
106.87    629.00     25.08
106.97    663.00     25.75
107.07    665.00     25.79
107.17    669.00     25.87
107.27    696.00     26.38
107.37    682.12     26.12
107.47    704.00     26.53
107.57    727.02     26.96
107.67    731.38     27.04
107.77    664.00     25.77
107.87    649.00     25.48
107.97    686.11     26.19
108.07    655.30     25.60
108.17    690.00     26.27
108.27    696.00     26.38
108.37    679.00     26.06
108.47    684.00     26.15
108.57    742.75     27.25
108.67    663.58     25.76
108.77    696.42     26.39
108.87    718.00     26.80
108.97    679.00     26.06
109.07    679.41     26.07
109.17    663.00     25.75
109.27    673.00     25.94
109.37    585.00     24.19
109.47    723.00     26.89
109.57    597.00     24.43
109.67    618.00     24.86
109.77    568.97     23.85
109.87    608.92     24.68
109.97    627.00     25.04
110.07    611.93     24.74
110.17    582.00     24.12
110.27    531.07     23.04
110.37    569.00     23.85
110.47    582.62     24.14
110.57    586.25     24.21
110.67    517.34     22.75
110.77    582.59     24.14
110.87    566.00     23.79
110.97    545.00     23.35
111.07    513.70     22.66
111.17    508.55     22.55
111.27    567.00     23.81
111.37    556.00     23.58
111.47    545.00     23.35
111.57    574.00     23.96
111.67    528.83     23.00
111.77    547.40     23.40
111.87    550.00     23.45
111.97    566.00     23.79
112.07    554.00     23.54
112.17    569.00     23.85
112.27    572.00     23.92
112.37    541.55     23.27
112.47    588.69     24.26
112.57    640.00     25.30
112.67    647.05     25.44
112.77    621.00     24.92
112.87    655.00     25.59
112.97    712.00     26.68
113.07    730.92     27.04
113.17    683.41     26.14
113.27    708.00     26.61
113.37    765.00     27.66
113.47    819.00     28.62
113.57    821.00     28.65
113.67    891.00     29.85
113.77    889.45     29.82
113.87    950.00     30.82
113.97   1028.15     32.06
114.07   1063.00     32.60
114.17   1100.52     33.17
114.27   1140.37     33.77
114.37   1293.12     35.96
114.47   1375.76     37.09
114.57   1509.16     38.85
114.67   1578.30     39.73
114.77   1728.46     41.57
114.87   1915.00     43.76
114.97   2139.66     46.26
115.07   2287.24     47.83
115.17   2593.00     50.92
115.27   2848.00     53.37
115.37   3207.57     56.64
115.47   3448.00     58.72
115.57   3607.00     60.06
115.67   4058.00     63.70
115.77   4587.04     67.73
115.87   4704.00     68.59
115.97   5382.74     73.37
116.07   5677.76     75.35
116.17   5978.00     77.32
116.27   6437.67     80.24
116.37   6652.00     81.56
116.47   6775.00     82.31
116.57   7002.00     83.68
116.67   7084.00     84.17
116.77   6825.46     82.62
116.87   6751.10     82.17
116.97   6640.00     81.49
117.07   6452.00     80.32
117.17   6007.19     77.51
117.27   5718.00     75.62
117.37   5357.00     73.19
117.47   4874.00     69.81
117.57   4740.12     68.85
117.67   4324.00     65.76
117.77   3966.68     62.98
117.87   3444.25     58.69
117.97   3333.00     57.73
118.07   2876.00     53.63
118.17   2546.00     50.46
118.27   2226.00     47.18
118.37   1961.00     44.28
118.47   1738.00     41.69
118.57   1496.00     38.68
118.67   1447.00     38.04
118.77   1246.00     35.30
118.87   1058.00     32.53
118.97    983.00     31.35
119.07    914.00     30.23
119.17    841.29     29.00
119.27    874.00     29.56
119.37    829.00     28.79
119.47    722.00     26.87
119.57    686.68     26.20
119.67    651.00     25.51
119.77    626.00     25.02
119.87    692.48     26.31
119.97    599.00     24.47
120.07    574.47     23.97
120.17    587.22     24.23
120.27    590.00     24.29
120.37    588.00     24.25
120.47    543.00     23.30
120.57    587.00     24.23
120.67    580.80     24.10
120.77    559.08     23.64
120.87    586.00     24.21
120.97    566.00     23.79
121.07    594.00     24.37
121.17    566.00     23.79
121.27    551.00     23.47
121.37    610.08     24.70
121.47    593.69     24.37
121.57    581.00     24.10
121.67    600.31     24.50
121.77    601.00     24.52
121.87    598.00     24.45
121.97    615.18     24.80
122.07    608.00     24.66
122.17    651.00     25.51
122.27    596.00     24.41
122.37    616.00     24.82
122.47    620.00     24.90
122.57    639.88     25.30
122.67    636.00     25.22
122.77    645.00     25.40
122.87    635.94     25.22
122.97    645.00     25.40
123.07    622.00     24.94
123.17    683.00     26.13
123.27    673.74     25.96
123.37    687.00     26.21
123.47    665.00     25.79
123.57    617.00     24.84
123.67    616.00     24.82
123.77    648.00     25.46
123.87    624.00     24.98
123.97    679.00     26.06
124.07    634.00     25.18
124.17    634.46     25.19
124.27    606.35     24.62
124.37    613.00     24.76
124.47    595.00     24.39
124.57    600.00     24.49
124.67    621.00     24.92
124.77    630.90     25.12
124.87    543.00     23.30
124.97    574.00     23.96
