XYDATA



INTER 1.0 1.0 0 0
TEMP 1074.0
  9.97    585.13     24.19
 10.07    587.00     24.23
 10.17    601.00     24.52
 10.27    545.75     23.36
 10.37    616.00     24.82
 10.47    559.00     23.64
 10.57    589.00     24.27
 10.67    631.00     25.12
 10.77    564.38     23.76
 10.87    572.00     23.92
 10.97    575.92     24.00
 11.07    562.86     23.72
 11.17    520.60     22.82
 11.27    536.00     23.15
 11.37    578.00     24.04
 11.47    573.00     23.94
 11.57    540.93     23.26
 11.67    622.00     24.94
 11.77    609.84     24.69
 11.87    617.47     24.85
 11.97    641.00     25.32
 12.07    683.12     26.14
 12.17    704.00     26.53
 12.27    660.00     25.69
 12.37    700.30     26.46
 12.47    636.15     25.22
 12.57    613.00     24.76
 12.67    569.12     23.86
 12.77    567.00     23.81
 12.87    595.00     24.39
 12.97    559.00     23.64
 13.07    538.00     23.19
 13.17    564.00     23.75
 13.27    554.00     23.54
 13.37    522.58     22.86
 13.47    506.00     22.49
 13.57    548.28     23.42
 13.67    582.00     24.12
 13.77    610.08     24.70
 13.87    575.16     23.98
 13.97    530.00     23.02
 14.07    551.00     23.47
 14.17    610.99     24.72
 14.27    584.00     24.17
 14.37    562.00     23.71
 14.47    544.00     23.32
 14.57    561.00     23.69
 14.67    540.00     23.24
 14.77    591.00     24.31
 14.87    587.75     24.24
 14.97    559.00     23.64
 15.07    538.00     23.19
 15.17    553.00     23.52
 15.27    549.09     23.43
 15.37    542.00     23.28
 15.47    536.00     23.15
 15.57    572.00     23.92
 15.67    568.17     23.84
 15.77    539.00     23.22
 15.87    532.00     23.07
 15.97    581.33     24.11
 16.07    526.00     22.93
 16.17    598.00     24.45
 16.27    535.37     23.14
 16.37    534.00     23.11
 16.47    581.00     24.10
 16.57    597.00     24.43
 16.67    583.00     24.15
 16.77    542.73     23.30
 16.87    595.30     24.40
 16.97    565.00     23.77
 17.07    520.57     22.82
 17.17    577.00     24.02
 17.27    549.00     23.43
 17.37    556.00     23.58
 17.47    528.00     22.98
 17.57    514.00     22.67
 17.67    551.00     23.47
 17.77    566.00     23.79
 17.87    544.32     23.33
 17.97    596.03     24.41
 18.07    580.00     24.08
 18.17    522.25     22.85
 18.27    607.00     24.64
 18.37    543.74     23.32
 18.47    504.00     22.45
 18.57    565.89     23.79
 18.67    593.00     24.35
 18.77    608.35     24.66
 18.87    569.00     23.85
 18.97    578.00     24.04
 19.07    564.25     23.75
 19.17    577.57     24.03
 19.27    574.00     23.96
 19.37    596.95     24.43
 19.47    610.00     24.70
 19.57    574.00     23.96
 19.67    576.00     24.00
 19.77    535.02     23.13
 19.87    555.00     23.56
 19.97    565.00     23.77
 20.07    575.00     23.98
 20.17    558.00     23.62
 20.27    544.00     23.32
 20.37    562.00     23.71
 20.47    522.00     22.85
 20.57    562.00     23.71
 20.67    528.00     22.98
 20.77    551.00     23.47
 20.87    563.00     23.73
 20.97    553.19     23.52
 21.07    566.00     23.79
 21.17    552.29     23.50
 21.27    552.95     23.51
 21.37    550.36     23.46
 21.47    562.00     23.71
 21.57    570.00     23.87
 21.67    593.61     24.36
 21.77    550.00     23.45
 21.87    577.63     24.03
 21.97    565.00     23.77
 22.07    536.00     23.15
 22.17    548.48     23.42
 22.27    544.00     23.32
 22.37    524.00     22.89
 22.47    526.00     22.93
 22.57    518.00     22.76
 22.67    563.71     23.74
 22.77    591.59     24.32
 22.87    554.00     23.54
 22.97    596.86     24.43
 23.07    566.68     23.81
 23.17    590.96     24.31
 23.27    598.67     24.47
 23.37    586.00     24.21
 23.47    528.69     22.99
 23.57    557.00     23.60
 23.67    577.55     24.03
 23.77    523.70     22.88
 23.87    559.08     23.64
 23.97    555.00     23.56
 24.07    553.00     23.52
 24.17    553.00     23.52
 24.27    560.00     23.66
 24.37    598.00     24.45
 24.47    535.00     23.13
 24.57    603.00     24.56
 24.67    616.00     24.82
 24.77    645.00     25.40
 24.87    629.00     25.08
 24.97    620.00     24.90
 25.07    592.59     24.34
 25.17    560.00     23.66
 25.27    559.61     23.66
 25.37    553.00     23.52
 25.47    511.00     22.61
 25.57    591.00     24.31
 25.67    566.31     23.80
 25.77    572.41     23.93
 25.87    499.11     22.34
 25.97    591.00     24.31
 26.07    525.11     22.92
 26.17    546.57     23.38
 26.27    514.00     22.67
 26.37    546.00     23.37
 26.47    556.57     23.59
 26.57    502.72     22.42
 26.67    558.00     23.62
 26.77    538.00     23.19
 26.87    554.00     23.54
 26.97    483.00     21.98
 27.07    552.00     23.49
 27.17    513.39     22.66
 27.27    553.66     23.53
 27.37    564.00     23.75
 27.47    534.00     23.11
 27.57    525.00     22.91
 27.67    565.00     23.77
 27.77    540.91     23.26
 27.87    629.91     25.10
 27.97    633.46     25.17
 28.07    819.33     28.62
 28.17    898.00     29.97
 28.27    959.00     30.97
 28.37    919.75     30.33
 28.47    755.33     27.48
 28.57    707.00     26.59
 28.67    701.00     26.48
 28.77    731.00     27.04
 28.87    814.08     28.53
 28.97    814.00     28.53
 29.07    788.00     28.07
 29.17    713.00     26.70
 29.27    656.00     25.61
 29.37    583.32     24.15
 29.47    630.00     25.10
 29.57    621.00     24.92
 29.67    603.99     24.58
 29.77    619.00     24.88
 29.87    547.78     23.40
 29.97    553.39     23.52
 30.07    531.00     23.04
 30.17    571.00     23.90
 30.27    562.00     23.71
 30.37    546.98     23.39
 30.47    621.00     24.92
 30.57    562.00     23.71
 30.67    588.71     24.26
 30.77    597.00     24.43
 30.87    624.00     24.98
 30.97    567.00     23.81
 31.07    612.02     24.74
 31.17    566.00     23.79
 31.27    538.16     23.20
 31.37    570.00     23.87
 31.47    514.19     22.68
 31.57    579.00     24.06
 31.67    553.00     23.52
 31.77    554.00     23.54
 31.87    548.00     23.41
 31.97    515.79     22.71
 32.07    550.71     23.47
 32.17    535.00     23.13
 32.27    539.00     23.22
 32.37    561.00     23.69
 32.47    537.00     23.17
 32.57    507.83     22.54
 32.67    544.00     23.32
 32.77    531.70     23.06
 32.87    576.00     24.00
 32.97    546.00     23.37
 33.07    542.15     23.28
 33.17    521.00     22.83
 33.27    539.00     23.22
 33.37    578.00     24.04
 33.47    583.00     24.15
 33.57    583.00     24.15
 33.67    638.00     25.26
 33.77    719.00     26.81
 33.87    874.44     29.57
 33.97   1046.00     32.34
 34.07   1089.00     33.00
 34.17   1079.44     32.85
 34.27    886.01     29.77
 34.37    718.84     26.81
 34.47    692.00     26.31
 34.57    561.00     23.69
 34.67    576.00     24.00
 34.77    581.00     24.10
 34.87    504.00     22.45
 34.97    537.26     23.18
 35.07    525.00     22.91
 35.17    534.06     23.11
 35.27    491.00     22.16
 35.37    577.00     24.02
 35.47    555.35     23.57
 35.57    510.46     22.59
 35.67    523.97     22.89
 35.77    503.00     22.43
 35.87    510.34     22.59
 35.97    527.00     22.96
 36.07    473.91     21.77
 36.17    516.00     22.72
 36.27    525.00     22.91
 36.37    534.45     23.12
 36.47    516.60     22.73
 36.57    501.00     22.38
 36.67    536.86     23.17
 36.77    488.00     22.09
 36.87    516.00     22.72
 36.97    504.00     22.45
 37.07    518.87     22.78
 37.17    485.01     22.02
 37.27    554.00     23.54
 37.37    487.00     22.07
 37.47    546.00     23.37
 37.57    526.00     22.93
 37.67    519.62     22.80
 37.77    518.00     22.76
 37.87    539.00     23.22
 37.97    517.72     22.75
 38.07    511.00     22.61
 38.17    538.00     23.19
 38.27    502.00     22.41
 38.37    521.07     22.83
 38.47    477.00     21.84
 38.57    527.26     22.96
 38.67    523.00     22.87
 38.77    532.00     23.07
 38.87    530.37     23.03
 38.97    497.00     22.29
 39.07    493.00     22.20
 39.17    493.00     22.20
 39.27    476.00     21.82
 39.37    504.04     22.45
 39.47    457.00     21.38
 39.57    491.00     22.16
 39.67    532.00     23.07
 39.77    493.16     22.21
 39.87    550.90     23.47
 39.97    509.08     22.56
 40.07    531.00     23.04
 40.17    534.49     23.12
 40.27    519.45     22.79
 40.37    474.00     21.77
 40.47    545.85     23.36
 40.57    536.00     23.15
 40.67    504.00     22.45
 40.77    521.00     22.83
 40.87    492.00     22.18
 40.97    480.24     21.91
 41.07    514.44     22.68
 41.17    483.00     21.98
 41.27    493.00     22.20
 41.37    496.49     22.28
 41.47    532.76     23.08
 41.57    493.00     22.20
 41.67    479.65     21.90
 41.77    486.84     22.06
 41.87    550.94     23.47
 41.97    493.00     22.20
 42.07    462.00     21.49
 42.17    510.00     22.58
 42.27    530.00     23.02
 42.37    527.50     22.97
 42.47    532.00     23.07
 42.57    589.03     24.27
 42.67    664.46     25.78
 42.77    558.00     23.62
 42.87    559.00     23.64
 42.97    589.00     24.27
 43.07    511.00     22.61
 43.17    559.00     23.64
 43.27    483.05     21.98
 43.37    477.28     21.85
 43.47    486.00     22.05
 43.57    515.00     22.69
 43.67    481.15     21.94
 43.77    481.00     21.93
 43.87    489.85     22.13
 43.97    543.48     23.31
 44.07    544.16     23.33
 44.17    471.87     21.72
 44.27    493.00     22.20
 44.37    493.00     22.20
 44.47    520.00     22.80
 44.57    456.00     21.35
 44.67    535.49     23.14
 44.77    474.00     21.77
 44.87    520.00     22.80
 44.97    462.75     21.51
 45.07    517.00     22.74
 45.17    504.87     22.47
 45.27    557.00     23.60
 45.37    510.00     22.58
 45.47    538.14     23.20
 45.57    499.00     22.34
 45.67    511.88     22.62
 45.77    486.26     22.05
 45.87    503.00     22.43
 45.97    442.00     21.02
 46.07    550.90     23.47
 46.17    482.96     21.98
 46.27    517.00     22.74
 46.37    500.00     22.36
 46.47    486.59     22.06
 46.57    508.00     22.54
 46.67    544.80     23.34
 46.77    522.00     22.85
 46.87    539.00     23.22
 46.97    545.00     23.35
 47.07    525.00     22.91
 47.17    527.00     22.96
 47.27    528.59     22.99
 47.37    508.00     22.54
 47.47    510.00     22.58
 47.57    502.00     22.41
 47.67    566.00     23.79
 47.77    525.00     22.91
 47.87    571.98     23.92
 47.97    584.87     24.18
 48.07    553.00     23.52
 48.17    586.00     24.21
 48.27    524.00     22.89
 48.37    480.00     21.91
 48.47    505.45     22.48
 48.57    519.00     22.78
 48.67    511.24     22.61
 48.77    519.00     22.78
 48.87    554.00     23.54
 48.97    518.00     22.76
 49.07    589.18     24.27
 49.17    542.78     23.30
 49.27    620.00     24.90
 49.37    692.00     26.31
 49.47    746.99     27.33
 49.57    791.00     28.12
 49.67    904.00     30.07
 49.77   1132.40     33.65
 49.87   1512.00     38.88
 49.97   1836.00     42.85
 50.07   2287.00     47.82
 50.17   2439.54     49.39
 50.27   2492.22     49.92
 50.37   2259.70     47.54
 50.47   1919.00     43.81
 50.57   1491.00     38.61
 50.67   1028.00     32.06
 50.77    930.22     30.50
 50.87    759.27     27.55
 50.97    633.72     25.17
 51.07    685.00     26.17
 51.17    619.00     24.88
 51.27    587.00     24.23
 51.37    628.00     25.06
 51.47    565.00     23.77
 51.57    567.00     23.81
 51.67    567.06     23.81
 51.77    561.00     23.69
 51.87    535.00     23.13
 51.97    559.00     23.64
 52.07    523.00     22.87
 52.17    578.00     24.04
 52.27    529.00     23.00
 52.37    524.18     22.90
 52.47    553.49     23.53
 52.57    538.49     23.21
 52.67    579.00     24.06
 52.77    601.86     24.53
 52.87    661.78     25.73
 52.97    727.85     26.98
 53.07    734.64     27.10
 53.17    916.00     30.27
 53.27   1043.00     32.30
 53.37   1095.00     33.09
 53.47   1189.00     34.48
 53.57   1153.00     33.96
 53.67   1099.04     33.15
 53.77    997.00     31.58
 53.87    957.00     30.94
 53.97    724.00     26.91
 54.07    683.51     26.14
 54.17    626.00     25.02
 54.27    576.00     24.00
 54.37    535.00     23.13
 54.47    569.45     23.86
 54.57    615.00     24.80
 54.67    584.00     24.17
 54.77    530.00     23.02
 54.87    573.00     23.94
 54.97    493.05     22.20
 55.07    536.08     23.15
 55.17    545.86     23.36
 55.27    590.04     24.29
 55.37    585.02     24.19
 55.47    519.00     22.78
 55.57    599.00     24.47
 55.67    512.00     22.63
 55.77    604.00     24.58
 55.87    604.00     24.58
 55.97    669.97     25.88
 56.07    678.00     26.04
 56.17    717.71     26.79
 56.27    877.00     29.61
 56.37   1088.00     32.98
 56.47   1530.47     39.12
 56.57   1805.00     42.49
 56.67   2199.00     46.89
 56.77   2641.90     51.40
 56.87   2656.95     51.55
 56.97   2699.00     51.95
 57.07   2408.00     49.07
 57.17   2108.00     45.91
 57.27   1702.00     41.26
 57.37   1343.37     36.65
 57.47    995.61     31.55
 57.57    889.00     29.82
 57.67    773.38     27.81
 57.77    738.10     27.17
 57.87    685.00     26.17
 57.97    701.44     26.48
 58.07    686.10     26.19
 58.17    691.00     26.29
 58.27    792.21     28.15
 58.37    807.00     28.41
 58.47    965.00     31.06
 58.57   1076.00     32.80
 58.67   1302.00     36.08
 58.77   1403.00     37.46
 58.87   1435.00     37.88
 58.97   1567.00     39.59
 59.07   1581.85     39.77
 59.17   1490.77     38.61
 59.27   1474.63     38.40
 59.37   1466.00     38.29
 59.47   1230.62     35.08
 59.57   1189.84     34.49
 59.67   1185.00     34.42
 59.77   1112.00     33.35
 59.87   1178.00     34.32
 59.97   1337.00     36.57
 60.07   1488.00     38.57
 60.17   1593.00     39.91
 60.27   1561.18     39.51
 60.37   1539.00     39.23
 60.47   1405.00     37.48
 60.57   1296.00     36.00
 60.67   1101.26     33.19
 60.77    917.33     30.29
 60.87    803.00     28.34
 60.97    660.00     25.69
 61.07    715.00     26.74
 61.17    680.00     26.08
 61.27    622.00     24.94
 61.37    639.00     25.28
 61.47    728.76     27.00
 61.57    718.00     26.80
 61.67    817.00     28.58
 61.77    949.00     30.81
 61.87   1104.00     33.23
 61.97   1238.98     35.20
 62.07   1346.00     36.69
 62.17   1433.00     37.85
 62.27   1498.62     38.71
 62.37   1341.52     36.63
 62.47   1179.00     34.34
 62.57   1085.00     32.94
 62.67    905.00     30.08
 62.77    791.67     28.14
 62.87    742.51     27.25
 62.97    582.00     24.12
 63.07    614.00     24.78
 63.17    640.00     25.30
 63.27    596.91     24.43
 63.37    580.07     24.08
 63.47    581.00     24.10
 63.57    572.00     23.92
 63.67    565.13     23.77
 63.77    602.00     24.54
 63.87    602.84     24.55
 63.97    660.17     25.69
 64.07    651.15     25.52
 64.17    713.96     26.72
 64.27    857.00     29.27
 64.37    927.00     30.45
 64.47   1024.20     32.00
 64.57   1052.00     32.43
 64.67   1079.68     32.86
 64.77    979.00     31.29
 64.87    956.00     30.92
 64.97    940.00     30.66
 65.07    883.00     29.72
 65.17    774.00     27.82
 65.27    727.00     26.96
 65.37    720.00     26.83
 65.47    626.02     25.02
 65.57    609.00     24.68
 65.67    645.19     25.40
 65.77    564.00     23.75
 65.87    599.00     24.47
 65.97    559.00     23.64
 66.07    532.81     23.08
 66.17    556.00     23.58
 66.27    595.99     24.41
 66.37    587.82     24.25
 66.47    576.38     24.01
 66.57    564.64     23.76
 66.67    512.00     22.63
 66.77    598.02     24.45
 66.87    632.93     25.16
 66.97    614.00     24.78
 67.07    607.00     24.64
 67.17    700.00     26.46
 67.27    733.00     27.07
 67.37    814.00     28.53
 67.47   1064.00     32.62
 67.57   1214.36     34.85
 67.67   1532.00     39.14
 67.77   1788.16     42.29
 67.87   2043.20     45.20
 67.97   2323.00     48.20
 68.07   2422.47     49.22
 68.17   2346.18     48.44
 68.27   2290.00     47.85
 68.37   2042.94     45.20
 68.47   1893.00     43.51
 68.57   1502.23     38.76
 68.67   1216.00     34.87
 68.77   1087.00     32.97
 68.87    889.00     29.82
 68.97    720.00     26.83
 69.07    651.00     25.51
 69.17    643.00     25.36
 69.27    620.81     24.92
 69.37    617.00     24.84
 69.47    585.00     24.19
 69.57    595.00     24.39
 69.67    568.00     23.83
 69.77    589.52     24.28
 69.87    573.00     23.94
 69.97    591.00     24.31
 70.07    564.00     23.75
 70.17    571.77     23.91
 70.27    546.25     23.37
 70.37    540.28     23.24
 70.47    581.32     24.11
 70.57    541.16     23.26
 70.67    556.00     23.58
 70.77    578.16     24.04
 70.87    616.94     24.84
 70.97    630.63     25.11
 71.07    669.78     25.88
 71.17    756.41     27.50
 71.27    818.69     28.61
 71.37    912.00     30.20
 71.47   1110.78     33.33
 71.57   1303.65     36.11
 71.67   1420.02     37.68
 71.77   1623.00     40.29
 71.87   1887.00     43.44
 71.97   1961.70     44.29
 72.07   1943.00     44.08
 72.17   1933.00     43.97
 72.27   1782.00     42.21
 72.37   1756.00     41.90
 72.47   1484.00     38.52
 72.57   1401.00     37.43
 72.67   1266.00     35.58
 72.77   1010.00     31.78
 72.87    957.00     30.94
 72.97    878.00     29.63
 73.07    803.00     28.34
 73.17    759.00     27.55
 73.27    642.00     25.34
 73.37    626.00     25.02
 73.47    643.00     25.36
 73.57    626.00     25.02
 73.67    607.69     24.65
 73.77    561.00     23.69
 73.87    640.00     25.30
 73.97    619.00     24.88
 74.07    605.00     24.60
 74.17    573.94     23.96
 74.27    605.00     24.60
 74.37    622.00     24.94
 74.47    577.06     24.02
 74.57    663.00     25.75
 74.67    590.29     24.30
 74.77    569.51     23.86
 74.87    624.00     24.98
 74.97    568.75     23.85
 75.07    607.00     24.64
 75.17    545.49     23.36
 75.27    540.00     23.24
 75.37    583.73     24.16
 75.47    550.00     23.45
 75.57    544.00     23.32
 75.67    533.00     23.09
 75.77    602.89     24.55
 75.87    618.17     24.86
 75.97    606.03     24.62
 76.07    616.00     24.82
 76.17    597.00     24.43
 76.27    705.00     26.55
 76.37    666.00     25.81
 76.47    691.30     26.29
 76.57    705.00     26.55
 76.67    665.00     25.79
 76.77    676.09     26.00
 76.87    660.00     25.69
 76.97    632.00     25.14
 77.07    645.00     25.40
 77.17    607.00     24.64
 77.27    600.00     24.49
 77.37    575.00     23.98
 77.47    506.00     22.49
 77.57    541.00     23.26
 77.67    529.03     23.00
 77.77    517.00     22.74
 77.87    539.00     23.22
 77.97    492.37     22.19
 78.07    489.00     22.11
 78.17    519.00     22.78
 78.27    488.38     22.10
 78.37    481.98     21.95
 78.47    497.00     22.29
 78.57    512.00     22.63
 78.67    549.00     23.43
 78.77    531.00     23.04
 78.87    554.00     23.54
 78.97    499.00     22.34
 79.07    498.00     22.32
 79.17    552.89     23.51
 79.27    536.00     23.15
 79.37    560.00     23.66
 79.47    544.00     23.32
 79.57    534.00     23.11
 79.67    491.00     22.16
 79.77    487.00     22.07
 79.87    560.00     23.66
 79.97    550.86     23.47
 80.07    551.00     23.47
 80.17    547.87     23.41
 80.27    538.00     23.19
 80.37    601.78     24.53
 80.47    578.00     24.04
 80.57    588.00     24.25
 80.67    631.00     25.12
 80.77    660.00     25.69
 80.87    686.00     26.19
 80.97    690.00     26.27
 81.07    740.00     27.20
 81.17    744.00     27.28
 81.27    723.00     26.89
 81.37    728.00     26.98
 81.47    745.17     27.30
 81.57    727.66     26.98
 81.67    784.00     28.00
 81.77    717.00     26.78
 81.87    672.87     25.94
 81.97    683.00     26.13
 82.07    681.88     26.11
 82.17    674.00     25.96
 82.27    649.00     25.48
 82.37    629.00     25.08
 82.47    563.00     23.73
 82.57    544.58     23.34
 82.67    595.77     24.41
 82.77    535.53     23.14
 82.87    544.02     23.32
 82.97    558.00     23.62
 83.07    569.00     23.85
 83.17    509.52     22.57
 83.27    578.00     24.04
 83.37    576.62     24.01
 83.47    544.00     23.32
 83.57    561.18     23.69
 83.67    615.00     24.80
 83.77    530.00     23.02
 83.87    565.00     23.77
 83.97    529.91     23.02
 84.07    561.14     23.69
 84.17    580.00     24.08
 84.27    526.00     22.93
 84.37    536.00     23.15
 84.47    547.00     23.39
 84.57    515.00     22.69
 84.67    528.77     23.00
 84.77    509.00     22.56
 84.87    553.91     23.54
 84.97    505.00     22.47
 85.07    579.43     24.07
 85.17    567.00     23.81
 85.27    513.00     22.65
 85.37    505.00     22.47
 85.47    536.06     23.15
 85.57    555.00     23.56
 85.67    540.46     23.25
 85.77    501.22     22.39
 85.87    525.00     22.91
 85.97    534.00     23.11
 86.07    583.00     24.15
 86.17    533.00     23.09
 86.27    571.00     23.90
 86.37    553.78     23.53
 86.47    546.00     23.37
 86.57    527.40     22.97
 86.67    560.00     23.66
 86.77    580.36     24.09
 86.87    599.19     24.48
 86.97    570.57     23.89
 87.07    599.00     24.47
 87.17    568.01     23.83
 87.27    671.00     25.90
 87.37    620.00     24.90
 87.47    631.00     25.12
 87.57    681.00     26.10
 87.67    654.00     25.57
 87.77    614.84     24.80
 87.87    614.00     24.78
 87.97    551.52     23.48
 88.07    587.00     24.23
 88.17    534.60     23.12
 88.27    628.00     25.06
 88.37    589.68     24.28
 88.47    565.00     23.77
 88.57    556.24     23.58
 88.67    586.00     24.21
 88.77    570.00     23.87
 88.87    572.00     23.92
 88.97    591.84     24.33
 89.07    625.00     25.00
 89.17    620.00     24.90
 89.27    569.77     23.87
 89.37    560.00     23.66
 89.47    653.00     25.55
 89.57    578.00     24.04
 89.67    596.85     24.43
 89.77    561.00     23.69
 89.87    606.08     24.62
 89.97    529.26     23.01
 90.07    529.49     23.01
 90.17    574.00     23.96
 90.27    546.00     23.37
 90.37    533.14     23.09
 90.47    577.44     24.03
 90.57    538.91     23.21
 90.67    500.00     22.36
 90.77    502.43     22.42
 90.87    548.00     23.41
 90.97    550.81     23.47
 91.07    521.00     22.83
 91.17    531.24     23.05
 91.27    555.00     23.56
 91.37    501.00     22.38
 91.47    548.45     23.42
 91.57    503.02     22.43
 91.67    513.00     22.65
 91.77    570.00     23.87
 91.87    501.00     22.38
 91.97    602.63     24.55
 92.07    546.00     23.37
 92.17    544.00     23.32
 92.27    636.00     25.22
 92.37    645.00     25.40
 92.47    597.00     24.43
 92.57    613.27     24.76
 92.67    635.81     25.22
 92.77    705.73     26.57
 92.87    785.00     28.02
 92.97    739.64     27.20
 93.07    756.99     27.51
 93.17    711.50     26.67
 93.27    810.00     28.46
 93.37    829.00     28.79
 93.47    789.00     28.09
 93.57    874.00     29.56
 93.67    831.00     28.83
 93.77    888.00     29.80
 93.87    854.00     29.22
 93.97    861.00     29.34
 94.07    790.10     28.11
 94.17    835.70     28.91
 94.27    870.00     29.50
 94.37    857.57     29.28
 94.47    918.11     30.30
 94.57    927.00     30.45
 94.67    960.00     30.98
 94.77    901.00     30.02
 94.87    931.00     30.51
 94.97    940.00     30.66
 95.07    912.84     30.21
 95.17    823.00     28.69
 95.27    845.41     29.08
 95.37    810.89     28.48
 95.47    770.00     27.75
 95.57    747.00     27.33
 95.67    749.00     27.37
 95.77    712.00     26.68
 95.87    659.55     25.68
 95.97    715.00     26.74
 96.07    705.00     26.55
 96.17    729.51     27.01
 96.27    760.61     27.58
 96.37    759.21     27.55
 96.47    800.00     28.28
 96.57    890.86     29.85
 96.67    909.00     30.15
 96.77   1028.00     32.06
 96.87   1000.79     31.64
 96.97   1199.23     34.63
 97.07   1252.87     35.40
 97.17   1245.00     35.28
 97.27   1412.16     37.58
 97.37   1426.48     37.77
 97.47   1405.00     37.48
 97.57   1422.64     37.72
 97.67   1482.10     38.50
 97.77   1340.71     36.62
 97.87   1317.00     36.29
 97.97   1268.83     35.62
 98.07   1160.00     34.06
 98.17   1140.00     33.76
 98.27   1151.00     33.93
 98.37    964.14     31.05
 98.47    922.00     30.36
 98.57    955.22     30.91
 98.67    853.00     29.21
 98.77    812.14     28.50
 98.87    805.56     28.38
 98.97    797.25     28.24
 99.07    783.00     27.98
 99.17    821.00     28.65
 99.27    859.60     29.32
 99.37    922.38     30.37
 99.47   1022.00     31.97
 99.57   1080.00     32.86
 99.67   1133.00     33.66
 99.77   1300.00     36.06
 99.87   1393.00     37.32
 99.97   1573.83     39.67
100.07   1694.00     41.16
100.17   1710.00     41.35
100.27   1851.00     43.02
100.37   1966.19     44.34
100.47   2021.00     44.96
100.57   2102.00     45.85
100.67   2170.00     46.58
100.77   2136.00     46.22
100.87   2104.00     45.87
100.97   2029.00     45.04
101.07   1956.00     44.23
101.17   1909.00     43.69
101.27   1848.62     43.00
101.37   1751.00     41.84
101.47   1558.00     39.47
101.57   1521.00     39.00
101.67   1439.00     37.93
101.77   1346.00     36.69
101.87   1332.98     36.51
101.97   1284.00     35.83
102.07   1215.00     34.86
102.17   1126.84     33.57
102.27   1093.00     33.06
102.37   1129.00     33.60
102.47   1101.00     33.18
102.57   1120.00     33.47
102.67   1022.00     31.97
102.77   1054.35     32.47
102.87    966.00     31.08
102.97    931.00     30.51
103.07    911.94     30.20
103.17    824.59     28.72
103.27    880.00     29.66
103.37    803.00     28.34
103.47    788.00     28.07
103.57    753.00     27.44
103.67    652.00     25.53
103.77    692.00     26.31
103.87    682.00     26.12
103.97    618.00     24.86
104.07    571.10     23.90
104.17    541.96     23.28
104.27    619.00     24.88
104.37    593.00     24.35
104.47    509.00     22.56
104.57    552.00     23.49
104.67    563.00     23.73
104.77    580.00     24.08
104.87    606.00     24.62
104.97    561.23     23.69
105.07    530.00     23.02
105.17    511.95     22.63
105.27    542.95     23.30
105.37    492.99     22.20
105.47    505.00     22.47
105.57    554.95     23.56
105.67    564.70     23.76
105.77    513.93     22.67
105.87    592.95     24.35
105.97    533.62     23.10
106.07    536.00     23.15
106.17    555.81     23.58
106.27    549.00     23.43
106.37    602.00     24.54
106.47    557.00     23.60
106.57    608.00     24.66
106.67    610.40     24.71
106.77    608.80     24.67
106.87    617.00     24.84
106.97    659.00     25.67
107.07    639.00     25.28
107.17    661.00     25.71
107.27    673.21     25.95
107.37    725.98     26.94
107.47    676.00     26.00
107.57    618.00     24.86
107.67    746.49     27.32
107.77    664.79     25.78
107.87    667.30     25.83
107.97    714.66     26.73
108.07    708.00     26.61
108.17    710.59     26.66
108.27    653.26     25.56
108.37    677.00     26.02
108.47    612.00     24.74
108.57    741.68     27.23
108.67    681.00     26.10
108.77    716.11     26.76
108.87    738.64     27.18
108.97    659.07     25.67
109.07    687.00     26.21
109.17    651.00     25.51
109.27    683.00     26.13
109.37    573.00     23.94
109.47    590.00     24.29
109.57    595.00     24.39
109.67    632.00     25.14
109.77    603.00     24.56
109.87    563.90     23.75
109.97    599.00     24.47
110.07    579.00     24.06
110.17    613.00     24.76
110.27    581.00     24.10
110.37    592.00     24.33
110.47    561.00     23.69
110.57    494.13     22.23
110.67    517.00     22.74
110.77    527.00     22.96
110.87    511.00     22.61
110.97    584.00     24.17
111.07    526.22     22.94
111.17    543.00     23.30
111.27    563.00     23.73
111.37    512.81     22.65
111.47    561.43     23.69
111.57    497.14     22.30
111.67    562.00     23.71
111.77    566.00     23.79
111.87    523.00     22.87
111.97    537.68     23.19
112.07    550.00     23.45
112.17    576.00     24.00
112.27    540.00     23.24
112.37    594.00     24.37
112.47    571.00     23.90
112.57    521.00     22.83
112.67    633.00     25.16
112.77    588.00     24.25
112.87    630.00     25.10
112.97    618.63     24.87
113.07    673.00     25.94
113.17    700.18     26.46
113.27    710.68     26.66
113.37    724.00     26.91
113.47    758.00     27.53
113.57    799.43     28.27
113.67    885.00     29.75
113.77    853.42     29.21
113.87    942.54     30.70
113.97   1003.00     31.67
114.07   1084.00     32.92
114.17   1035.43     32.18
114.27   1155.00     33.99
114.37   1231.00     35.09
114.47   1383.62     37.20
114.57   1512.00     38.88
114.67   1612.00     40.15
114.77   1796.00     42.38
114.87   1849.44     43.01
114.97   2070.28     45.50
115.07   2365.00     48.63
115.17   2552.00     50.52
115.27   2911.73     53.96
115.37   3149.82     56.12
115.47   3360.00     57.97
115.57   3821.00     61.81
115.67   4079.22     63.87
115.77   4518.00     67.22
115.87   4856.00     69.69
115.97   5144.00     71.72
116.07   5593.00     74.79
116.17   5939.00     77.06
116.27   6398.53     79.99
116.37   6586.00     81.15
116.47   6798.37     82.45
116.57   6898.98     83.06
116.67   7030.64     83.85
116.77   6917.84     83.17
116.87   6859.00     82.82
116.97   6676.00     81.71
117.07   6487.49     80.54
117.17   6010.00     77.52
117.27   5775.00     75.99
117.37   5173.00     71.92
117.47   5082.23     71.29
117.57   4524.00     67.26
117.67   4347.00     65.93
117.77   3967.00     62.98
117.87   3737.00     61.13
117.97   3314.00     57.57
118.07   2947.00     54.29
118.17   2489.95     49.90
118.27   2231.00     47.23
118.37   1983.00     44.53
118.47   1730.00     41.59
118.57   1559.00     39.48
118.67   1357.00     36.84
118.77   1273.54     35.69
118.87   1170.51     34.21
118.97   1065.00     32.63
119.07    912.00     30.20
119.17    900.68     30.01
119.27    772.32     27.79
119.37    789.14     28.09
119.47    775.00     27.84
119.57    662.00     25.73
119.67    649.00     25.48
119.77    662.00     25.73
119.87    578.00     24.04
119.97    576.98     24.02
120.07    597.00     24.43
120.17    557.30     23.61
120.27    556.00     23.58
120.37    634.30     25.19
120.47    600.00     24.49
120.57    590.00     24.29
120.67    591.00     24.31
120.77    582.00     24.12
120.87    539.00     23.22
120.97    538.00     23.19
121.07    536.86     23.17
121.17    599.06     24.48
121.27    576.85     24.02
121.37    610.09     24.70
121.47    577.00     24.02
121.57    540.00     23.24
121.67    559.00     23.64
121.77    620.00     24.90
121.87    590.00     24.29
121.97    621.00     24.92
122.07    571.09     23.90
122.17    679.00     26.06
122.27    610.00     24.70
122.37    693.00     26.32
122.47    582.77     24.14
122.57    591.14     24.31
122.67    657.00     25.63
122.77    610.00     24.70
122.87    655.00     25.59
122.97    594.06     24.37
123.07    652.00     25.53
123.17    675.78     26.00
123.27    666.00     25.81
123.37    657.00     25.63
123.47    654.00     25.57
123.57    623.00     24.96
123.67    601.00     24.52
123.77    630.00     25.10
123.87    617.00     24.84
123.97    626.00     25.02
124.07    613.22     24.76
124.17    608.37     24.67
124.27    616.00     24.82
124.37    616.00     24.82
124.47    576.48     24.01
124.57    519.00     22.78
124.67    627.00     25.04
124.77    565.99     23.79
124.87    586.00     24.21
124.97    602.00     24.54
