XYDATA



INTER 1.0 1.0 0 0
TEMP 487.604
  9.97    749.00     27.37
 10.07    733.00     27.07
 10.17    721.00     26.85
 10.27    697.45     26.41
 10.37    764.00     27.64
 10.47    703.00     26.51
 10.57    736.00     27.13
 10.67    719.00     26.81
 10.77    733.00     27.07
 10.87    765.00     27.66
 10.97    714.00     26.72
 11.07    772.00     27.78
 11.17    765.00     27.66
 11.27    719.00     26.81
 11.37    691.92     26.30
 11.47    763.00     27.62
 11.57    745.92     27.31
 11.67    759.00     27.55
 11.77    758.00     27.53
 11.87    773.94     27.82
 11.97    694.92     26.36
 12.07    889.00     29.82
 12.17    855.00     29.24
 12.27    876.00     29.60
 12.37    855.00     29.24
 12.47    839.83     28.98
 12.57    819.00     28.62
 12.67    708.00     26.61
 12.77    714.00     26.72
 12.87    685.00     26.17
 12.97    691.00     26.29
 13.07    684.83     26.17
 13.17    685.00     26.17
 13.27    671.00     25.90
 13.37    715.34     26.75
 13.47    681.00     26.10
 13.57    723.88     26.91
 13.67    638.00     25.26
 13.77    667.00     25.83
 13.87    674.00     25.96
 13.97    662.00     25.73
 14.07    691.00     26.29
 14.17    667.21     25.83
 14.27    669.00     25.87
 14.37    661.00     25.71
 14.47    690.19     26.27
 14.57    690.23     26.27
 14.67    680.00     26.08
 14.77    658.00     25.65
 14.87    654.00     25.57
 14.97    717.85     26.79
 15.07    658.16     25.65
 15.17    643.00     25.36
 15.27    675.00     25.98
 15.37    706.64     26.58
 15.47    687.00     26.21
 15.57    660.00     25.69
 15.67    679.00     26.06
 15.77    702.73     26.51
 15.87    687.00     26.21
 15.97    677.00     26.02
 16.07    637.00     25.24
 16.17    622.28     24.95
 16.27    651.00     25.51
 16.37    681.80     26.11
 16.47    640.00     25.30
 16.57    641.95     25.34
 16.67    639.05     25.28
 16.77    687.00     26.21
 16.87    615.45     24.81
 16.97    649.39     25.48
 17.07    617.62     24.85
 17.17    723.00     26.89
 17.27    598.00     24.45
 17.37    631.00     25.12
 17.47    708.00     26.61
 17.57    695.89     26.38
 17.67    644.00     25.38
 17.77    654.81     25.59
 17.87    662.00     25.73
 17.97    692.20     26.31
 18.07    634.00     25.18
 18.17    599.00     24.47
 18.27    690.00     26.27
 18.37    680.00     26.08
 18.47    622.56     24.95
 18.57    657.40     25.64
 18.67    625.14     25.00
 18.77    670.00     25.88
 18.87    664.72     25.78
 18.97    660.00     25.69
 19.07    629.00     25.08
 19.17    669.07     25.87
 19.27    685.57     26.18
 19.37    617.00     24.84
 19.47    624.00     24.98
 19.57    620.35     24.91
 19.67    604.00     24.58
 19.77    619.00     24.88
 19.87    600.96     24.51
 19.97    608.00     24.66
 20.07    633.00     25.16
 20.17    648.73     25.47
 20.27    606.00     24.62
 20.37    641.00     25.32
 20.47    627.00     25.04
 20.57    623.56     24.97
 20.67    618.00     24.86
 20.77    635.00     25.20
 20.87    660.12     25.69
 20.97    633.00     25.16
 21.07    665.00     25.79
 21.17    608.00     24.66
 21.27    615.00     24.80
 21.37    599.10     24.48
 21.47    620.00     24.90
 21.57    629.00     25.08
 21.67    621.44     24.93
 21.77    589.00     24.27
 21.87    665.00     25.79
 21.97    594.37     24.38
 22.07    667.00     25.83
 22.17    615.35     24.81
 22.27    671.02     25.90
 22.37    603.00     24.56
 22.47    629.00     25.08
 22.57    613.48     24.77
 22.67    631.00     25.12
 22.77    660.00     25.69
 22.87    620.00     24.90
 22.97    632.00     25.14
 23.07    630.00     25.10
 23.17    613.27     24.76
 23.27    670.81     25.90
 23.37    597.69     24.45
 23.47    619.84     24.90
 23.57    635.00     25.20
 23.67    644.00     25.38
 23.77    625.51     25.01
 23.87    604.00     24.58
 23.97    610.00     24.70
 24.07    651.00     25.51
 24.17    595.00     24.39
 24.27    651.00     25.51
 24.37    627.99     25.06
 24.47    653.00     25.55
 24.57    673.00     25.94
 24.67    625.00     25.00
 24.77    706.00     26.57
 24.87    692.00     26.31
 24.97    730.12     27.02
 25.07    698.17     26.42
 25.17    785.00     28.02
 25.27    710.55     26.66
 25.37    630.32     25.11
 25.47    630.00     25.10
 25.57    618.00     24.86
 25.67    636.76     25.23
 25.77    654.00     25.57
 25.87    630.22     25.10
 25.97    618.50     24.87
 26.07    658.00     25.65
 26.17    641.00     25.32
 26.27    683.37     26.14
 26.37    676.00     26.00
 26.47    621.00     24.92
 26.57    668.73     25.86
 26.67    672.00     25.92
 26.77    675.00     25.98
 26.87    680.00     26.08
 26.97    625.00     25.00
 27.07    681.00     26.10
 27.17    715.25     26.74
 27.27    717.96     26.79
 27.37    763.00     27.62
 27.47    786.00     28.04
 27.57    792.00     28.14
 27.67    870.71     29.51
 27.77    919.00     30.32
 27.87   1039.60     32.24
 27.97   1388.26     37.26
 28.07   1985.00     44.55
 28.17   3299.00     57.44
 28.27   5560.55     74.57
 28.37   7564.00     86.97
 28.47   8747.00     93.53
 28.57   8201.00     90.56
 28.67   6214.10     78.83
 28.77   4429.00     66.55
 28.87   3782.00     61.50
 28.97   3792.00     61.58
 29.07   4555.73     67.50
 29.17   4923.61     70.17
 29.27   4527.00     67.28
 29.37   3498.00     59.14
 29.47   2335.00     48.32
 29.57   1629.00     40.36
 29.67   1322.00     36.36
 29.77   1078.00     32.83
 29.87    946.37     30.76
 29.97    838.00     28.95
 30.07    786.91     28.05
 30.17    773.00     27.80
 30.27    745.00     27.29
 30.37    781.00     27.95
 30.47    724.13     26.91
 30.57    730.40     27.03
 30.67    766.00     27.68
 30.77    689.72     26.26
 30.87    700.00     26.46
 30.97    745.71     27.31
 31.07    772.00     27.78
 31.17    819.00     28.62
 31.27    798.00     28.25
 31.37    740.00     27.20
 31.47    704.00     26.53
 31.57    758.00     27.53
 31.67    723.00     26.89
 31.77    628.37     25.07
 31.87    717.00     26.78
 31.97    623.06     24.96
 32.07    612.38     24.75
 32.17    677.00     26.02
 32.27    680.00     26.08
 32.37    623.00     24.96
 32.47    647.00     25.44
 32.57    641.00     25.32
 32.67    651.00     25.51
 32.77    642.00     25.34
 32.87    623.00     24.96
 32.97    580.02     24.08
 33.07    655.56     25.60
 33.17    613.21     24.76
 33.27    675.00     25.98
 33.37    667.00     25.83
 33.47    638.58     25.27
 33.57    692.00     26.31
 33.67    704.00     26.53
 33.77    667.19     25.83
 33.87    780.00     27.93
 33.97    871.00     29.51
 34.07    982.04     31.34
 34.17   1067.25     32.67
 34.27   1235.07     35.14
 34.37   1337.33     36.57
 34.47   1207.09     34.74
 34.57   1121.90     33.49
 34.67    906.00     30.10
 34.77    855.00     29.24
 34.87    714.00     26.72
 34.97    650.24     25.50
 35.07    710.00     26.65
 35.17    704.00     26.53
 35.27    655.93     25.61
 35.37    646.00     25.42
 35.47    648.00     25.46
 35.57    589.41     24.28
 35.67    602.01     24.54
 35.77    625.00     25.00
 35.87    588.85     24.27
 35.97    598.00     24.45
 36.07    619.00     24.88
 36.17    610.00     24.70
 36.27    563.15     23.73
 36.37    600.00     24.49
 36.47    600.00     24.49
 36.57    562.69     23.72
 36.67    587.00     24.23
 36.77    642.00     25.34
 36.87    632.00     25.14
 36.97    595.21     24.40
 37.07    613.00     24.76
 37.17    614.00     24.78
 37.27    622.00     24.94
 37.37    659.00     25.67
 37.47    589.00     24.27
 37.57    672.00     25.92
 37.67    608.00     24.66
 37.77    610.00     24.70
 37.87    675.00     25.98
 37.97    693.11     26.33
 38.07    740.02     27.20
 38.17    738.09     27.17
 38.27    790.58     28.12
 38.37    766.79     27.69
 38.47    811.65     28.49
 38.57    744.00     27.28
 38.67    671.08     25.91
 38.77    657.00     25.63
 38.87    631.00     25.12
 38.97    631.02     25.12
 39.07    597.00     24.43
 39.17    621.00     24.92
 39.27    586.00     24.21
 39.37    579.00     24.06
 39.47    618.00     24.86
 39.57    654.00     25.57
 39.67    611.00     24.72
 39.77    577.17     24.02
 39.87    641.00     25.32
 39.97    613.00     24.76
 40.07    610.31     24.70
 40.17    585.00     24.19
 40.27    623.00     24.96
 40.37    610.00     24.70
 40.47    613.00     24.76
 40.57    591.00     24.31
 40.67    593.00     24.35
 40.77    570.00     23.87
 40.87    594.00     24.37
 40.97    612.99     24.76
 41.07    574.00     23.96
 41.17    603.00     24.56
 41.27    638.37     25.27
 41.37    598.00     24.45
 41.47    605.00     24.60
 41.57    595.00     24.39
 41.67    646.01     25.42
 41.77    618.00     24.86
 41.87    618.00     24.86
 41.97    633.43     25.17
 42.07    600.00     24.49
 42.17    636.18     25.22
 42.27    622.00     24.94
 42.37    601.00     24.52
 42.47    627.00     25.04
 42.57    614.00     24.78
 42.67    655.00     25.59
 42.77    638.00     25.26
 42.87    703.77     26.53
 42.97    637.00     25.24
 43.07    681.00     26.10
 43.17    670.00     25.88
 43.27    710.89     26.66
 43.37    668.03     25.85
 43.47    633.00     25.16
 43.57    627.00     25.04
 43.67    640.00     25.30
 43.77    603.43     24.56
 43.87    582.85     24.14
 43.97    563.00     23.73
 44.07    601.00     24.52
 44.17    637.10     25.24
 44.27    598.00     24.45
 44.37    622.00     24.94
 44.47    630.00     25.10
 44.57    637.87     25.26
 44.67    612.00     24.74
 44.77    609.40     24.69
 44.87    597.00     24.43
 44.97    616.00     24.82
 45.07    650.00     25.50
 45.17    646.47     25.43
 45.27    631.00     25.12
 45.37    633.29     25.17
 45.47    565.00     23.77
 45.57    637.00     25.24
 45.67    654.00     25.57
 45.77    612.00     24.74
 45.87    612.00     24.74
 45.97    590.18     24.29
 46.07    589.00     24.27
 46.17    613.00     24.76
 46.27    626.00     25.02
 46.37    569.00     23.85
 46.47    593.00     24.35
 46.57    646.00     25.42
 46.67    641.18     25.32
 46.77    586.00     24.21
 46.87    639.00     25.28
 46.97    626.00     25.02
 47.07    601.90     24.53
 47.17    623.00     24.96
 47.27    597.31     24.44
 47.37    591.00     24.31
 47.47    591.00     24.31
 47.57    611.00     24.72
 47.67    611.96     24.74
 47.77    651.50     25.52
 47.87    657.00     25.63
 47.97    649.00     25.48
 48.07    718.88     26.81
 48.17    691.00     26.29
 48.27    723.87     26.90
 48.37    681.00     26.10
 48.47    688.06     26.23
 48.57    693.00     26.32
 48.67    667.00     25.83
 48.77    658.66     25.66
 48.87    627.68     25.05
 48.97    609.76     24.69
 49.07    636.00     25.22
 49.17    641.00     25.32
 49.27    603.00     24.56
 49.37    659.00     25.67
 49.47    672.00     25.92
 49.57    665.00     25.79
 49.67    679.69     26.07
 49.77    735.08     27.11
 49.87    854.73     29.24
 49.97    948.28     30.79
 50.07   1168.00     34.18
 50.17   1585.07     39.81
 50.27   1975.00     44.44
 50.37   2473.01     49.73
 50.47   2868.00     53.55
 50.57   3220.00     56.75
 50.67   3125.53     55.91
 50.77   2773.34     52.66
 50.87   2483.12     49.83
 50.97   1947.00     44.12
 51.07   1389.00     37.27
 51.17   1135.00     33.69
 51.27   1018.56     31.91
 51.37    807.45     28.42
 51.47    840.86     29.00
 51.57    736.51     27.14
 51.67    768.00     27.71
 51.77    775.00     27.84
 51.87    693.24     26.33
 51.97    723.00     26.89
 52.07    656.70     25.63
 52.17    656.71     25.63
 52.27    728.00     26.98
 52.37    685.00     26.17
 52.47    717.00     26.78
 52.57    696.00     26.38
 52.67    678.00     26.04
 52.77    685.00     26.17
 52.87    660.00     25.69
 52.97    658.83     25.67
 53.07    687.00     26.21
 53.17    729.40     27.01
 53.27    765.15     27.66
 53.37    811.00     28.48
 53.47    860.87     29.34
 53.57    921.90     30.36
 53.67   1059.65     32.55
 53.77   1090.32     33.02
 53.87   1219.00     34.91
 53.97   1374.85     37.08
 54.07   1281.00     35.79
 54.17   1259.10     35.48
 54.27   1155.00     33.99
 54.37   1011.13     31.80
 54.47    923.00     30.38
 54.57    890.00     29.83
 54.67    773.47     27.81
 54.77    780.28     27.93
 54.87    742.71     27.25
 54.97    713.00     26.70
 55.07    641.13     25.32
 55.17    636.00     25.22
 55.27    681.00     26.10
 55.37    719.00     26.81
 55.47    699.19     26.44
 55.57    642.01     25.34
 55.67    726.00     26.94
 55.77    734.67     27.10
 55.87    649.00     25.48
 55.97    689.09     26.25
 56.07    708.48     26.62
 56.17    674.00     25.96
 56.27    790.59     28.12
 56.37    753.27     27.45
 56.47    887.22     29.79
 56.57    890.63     29.84
 56.67   1027.88     32.06
 56.77   1298.41     36.03
 56.87   1427.00     37.78
 56.97   1744.00     41.76
 57.07   2064.00     45.43
 57.17   2453.23     49.53
 57.27   2547.00     50.47
 57.37   2793.00     52.85
 57.47   2633.00     51.31
 57.57   2414.00     49.13
 57.67   1991.15     44.62
 57.77   1802.00     42.45
 57.87   1403.64     37.47
 57.97   1253.15     35.40
 58.07   1045.00     32.33
 58.17    985.00     31.38
 58.27    895.00     29.92
 58.37    800.00     28.28
 58.47    785.00     28.02
 58.57    823.47     28.70
 58.67    856.00     29.26
 58.77    874.59     29.57
 58.87    954.00     30.89
 58.97   1058.00     32.53
 59.07   1192.83     34.54
 59.17   1197.00     34.60
 59.27   1261.16     35.51
 59.37   1293.62     35.97
 59.47   1362.96     36.92
 59.57   1307.00     36.15
 59.67   1325.80     36.41
 59.77   1385.00     37.22
 59.87   1268.00     35.61
 59.97   1305.05     36.13
 60.07   1250.26     35.36
 60.17   1241.66     35.24
 60.27   1364.00     36.93
 60.37   1446.00     38.03
 60.47   1483.00     38.51
 60.57   1598.01     39.98
 60.67   1657.00     40.71
 60.77   1592.34     39.90
 60.87   1516.00     38.94
 60.97   1474.00     38.39
 61.07   1329.55     36.46
 61.17   1197.00     34.60
 61.27   1068.00     32.68
 61.37    979.07     31.29
 61.47    857.00     29.27
 61.57    787.55     28.06
 61.67    825.00     28.72
 61.77    836.00     28.91
 61.87    836.00     28.91
 61.97    921.00     30.35
 62.07   1001.00     31.64
 62.17   1073.00     32.76
 62.27   1257.00     35.45
 62.37   1494.20     38.65
 62.47   1684.00     41.04
 62.57   1749.00     41.82
 62.67   1853.56     43.05
 62.77   1782.00     42.21
 62.87   1745.00     41.77
 62.97   1638.20     40.47
 63.07   1357.31     36.84
 63.17   1280.00     35.78
 63.27   1095.64     33.10
 63.37    918.00     30.30
 63.47    885.00     29.75
 63.57    773.00     27.80
 63.67    785.60     28.03
 63.77    737.83     27.16
 63.87    696.00     26.38
 63.97    722.00     26.87
 64.07    753.00     27.44
 64.17    749.00     27.37
 64.27    772.00     27.78
 64.37    801.00     28.30
 64.47    809.00     28.44
 64.57    932.00     30.53
 64.67   1017.00     31.89
 64.77   1080.36     32.87
 64.87   1304.00     36.11
 64.97   1418.59     37.66
 65.07   1503.75     38.78
 65.17   1583.00     39.79
 65.27   1655.00     40.68
 65.37   1611.00     40.14
 65.47   1505.00     38.79
 65.57   1513.00     38.90
 65.67   1332.00     36.50
 65.77   1147.00     33.87
 65.87   1065.00     32.63
 65.97    940.00     30.66
 66.07    953.00     30.87
 66.17    882.00     29.70
 66.27    771.00     27.77
 66.37    764.00     27.64
 66.47    713.00     26.70
 66.57    752.00     27.42
 66.67    735.30     27.12
 66.77    694.61     26.36
 66.87    691.00     26.29
 66.97    731.95     27.05
 67.07    699.00     26.44
 67.17    705.00     26.55
 67.27    717.00     26.78
 67.37    742.91     27.26
 67.47    787.00     28.05
 67.57    781.00     27.95
 67.67    850.00     29.15
 67.77    961.00     31.00
 67.87    962.00     31.02
 67.97   1075.00     32.79
 68.07   1296.00     36.00
 68.17   1516.00     38.94
 68.27   1822.00     42.68
 68.37   2046.00     45.23
 68.47   2223.99     47.16
 68.57   2412.14     49.11
 68.67   2540.00     50.40
 68.77   2548.00     50.48
 68.87   2350.08     48.48
 68.97   2289.00     47.84
 69.07   1959.00     44.26
 69.17   1755.00     41.89
 69.27   1556.00     39.45
 69.37   1358.00     36.85
 69.47   1139.00     33.75
 69.57   1032.21     32.13
 69.67    964.58     31.06
 69.77    935.00     30.58
 69.87    866.00     29.43
 69.97    806.00     28.39
 70.07    824.00     28.71
 70.17    765.00     27.66
 70.27    758.76     27.55
 70.37    720.00     26.83
 70.47    709.00     26.63
 70.57    666.62     25.82
 70.67    684.00     26.15
 70.77    651.01     25.51
 70.87    750.00     27.39
 70.97    705.00     26.55
 71.07    671.26     25.91
 71.17    708.37     26.62
 71.27    734.00     27.09
 71.37    733.44     27.08
 71.47    718.62     26.81
 71.57    842.87     29.03
 71.67    787.50     28.06
 71.77    878.00     29.63
 71.87   1042.00     32.28
 71.97   1091.00     33.03
 72.07   1287.00     35.87
 72.17   1428.57     37.80
 72.27   1609.47     40.12
 72.37   1717.00     41.44
 72.47   1912.60     43.73
 72.57   1922.26     43.84
 72.67   2075.05     45.55
 72.77   1977.66     44.47
 72.87   1894.00     43.52
 72.97   1733.59     41.64
 73.07   1666.00     40.82
 73.17   1465.00     38.28
 73.27   1328.00     36.44
 73.37   1158.28     34.03
 73.47    987.00     31.42
 73.57    978.97     31.29
 73.67    901.28     30.02
 73.77    841.76     29.01
 73.87    755.00     27.48
 73.97    770.37     27.76
 74.07    758.61     27.54
 74.17    710.67     26.66
 74.27    700.00     26.46
 74.37    658.88     25.67
 74.47    710.00     26.65
 74.57    645.20     25.40
 74.67    628.00     25.06
 74.77    641.00     25.32
 74.87    681.00     26.10
 74.97    692.15     26.31
 75.07    674.00     25.96
 75.17    722.00     26.87
 75.27    671.00     25.90
 75.37    713.00     26.70
 75.47    738.00     27.17
 75.57    702.00     26.50
 75.67    716.00     26.76
 75.77    637.34     25.25
 75.87    718.00     26.80
 75.97    707.25     26.59
 76.07    707.00     26.59
 76.17    717.00     26.78
 76.27    779.00     27.91
 76.37    683.48     26.14
 76.47    797.00     28.23
 76.57    769.00     27.73
 76.67    796.96     28.23
 76.77    855.37     29.25
 76.87    919.58     30.32
 76.97    918.00     30.30
 77.07   1013.00     31.83
 77.17   1079.00     32.85
 77.27   1025.00     32.02
 77.37   1088.00     32.98
 77.47   1025.01     32.02
 77.57    972.47     31.18
 77.67    899.00     29.98
 77.77    836.00     28.91
 77.87    814.93     28.55
 77.97    804.00     28.35
 78.07    815.40     28.56
 78.17    729.35     27.01
 78.27    688.27     26.23
 78.37    702.00     26.50
 78.47    666.00     25.81
 78.57    653.00     25.55
 78.67    682.00     26.12
 78.77    633.00     25.16
 78.87    648.62     25.47
 78.97    656.00     25.61
 79.07    679.96     26.08
 79.17    620.00     24.90
 79.27    615.00     24.80
 79.37    635.00     25.20
 79.47    633.00     25.16
 79.57    682.69     26.13
 79.67    615.50     24.81
 79.77    658.18     25.65
 79.87    666.00     25.81
 79.97    629.00     25.08
 80.07    608.00     24.66
 80.17    669.28     25.87
 80.27    665.45     25.80
 80.37    635.00     25.20
 80.47    705.00     26.55
 80.57    696.00     26.38
 80.67    767.00     27.69
 80.77    767.00     27.69
 80.87    810.02     28.46
 80.97    870.74     29.51
 81.07    984.00     31.37
 81.17   1064.00     32.62
 81.27   1147.00     33.87
 81.37   1286.00     35.86
 81.47   1360.00     36.88
 81.57   1368.00     36.99
 81.67   1425.46     37.76
 81.77   1377.78     37.12
 81.87   1563.00     39.53
 81.97   1559.00     39.48
 82.07   1491.00     38.61
 82.17   1424.00     37.74
 82.27   1358.00     36.85
 82.37   1285.00     35.85
 82.47   1177.09     34.31
 82.57   1063.73     32.61
 82.67   1024.54     32.01
 82.77    955.00     30.90
 82.87    887.10     29.78
 82.97    845.00     29.07
 83.07    791.00     28.12
 83.17    754.00     27.46
 83.27    726.11     26.95
 83.37    689.00     26.25
 83.47    719.00     26.81
 83.57    678.39     26.05
 83.67    727.95     26.98
 83.77    639.00     25.28
 83.87    703.01     26.51
 83.97    702.00     26.50
 84.07    632.13     25.14
 84.17    677.84     26.04
 84.27    655.00     25.59
 84.37    671.00     25.90
 84.47    644.00     25.38
 84.57    655.00     25.59
 84.67    636.00     25.22
 84.77    730.32     27.02
 84.87    625.00     25.00
 84.97    660.83     25.71
 85.07    639.00     25.28
 85.17    671.00     25.90
 85.27    647.62     25.45
 85.37    627.00     25.04
 85.47    647.00     25.44
 85.57    601.00     24.52
 85.67    607.00     24.64
 85.77    600.25     24.50
 85.87    594.08     24.37
 85.97    600.00     24.49
 86.07    625.00     25.00
 86.17    609.00     24.68
 86.27    632.00     25.14
 86.37    612.00     24.74
 86.47    621.00     24.92
 86.57    643.82     25.37
 86.67    628.50     25.07
 86.77    682.28     26.12
 86.87    628.00     25.06
 86.97    625.00     25.00
 87.07    664.00     25.77
 87.17    643.00     25.36
 87.27    692.13     26.31
 87.37    662.00     25.73
 87.47    677.94     26.04
 87.57    732.00     27.06
 87.67    703.00     26.51
 87.77    688.99     26.25
 87.87    682.00     26.12
 87.97    673.73     25.96
 88.07    679.05     26.06
 88.17    683.46     26.14
 88.27    718.33     26.80
 88.37    720.00     26.83
 88.47    773.30     27.81
 88.57    732.00     27.06
 88.67    752.00     27.42
 88.77    667.70     25.84
 88.87    692.00     26.31
 88.97    690.00     26.27
 89.07    671.83     25.92
 89.17    660.00     25.69
 89.27    705.00     26.55
 89.37    652.20     25.54
 89.47    624.52     24.99
 89.57    714.29     26.73
 89.67    672.00     25.92
 89.77    669.00     25.87
 89.87    712.98     26.70
 89.97    637.48     25.25
 90.07    709.00     26.63
 90.17    683.46     26.14
 90.27    739.00     27.18
 90.37    696.15     26.38
 90.47    700.00     26.46
 90.57    696.54     26.39
 90.67    620.00     24.90
 90.77    703.00     26.51
 90.87    661.00     25.71
 90.97    632.93     25.16
 91.07    594.01     24.37
 91.17    629.00     25.08
 91.27    590.88     24.31
 91.37    619.85     24.90
 91.47    626.00     25.02
 91.57    635.00     25.20
 91.67    640.48     25.31
 91.77    589.00     24.27
 91.87    638.00     25.26
 91.97    658.00     25.65
 92.07    611.00     24.72
 92.17    608.00     24.66
 92.27    640.00     25.30
 92.37    612.00     24.74
 92.47    587.14     24.23
 92.57    633.00     25.16
 92.67    666.00     25.81
 92.77    616.00     24.82
 92.87    664.89     25.79
 92.97    680.24     26.08
 93.07    699.00     26.44
 93.17    682.61     26.13
 93.27    656.00     25.61
 93.37    708.00     26.61
 93.47    729.61     27.01
 93.57    726.00     26.94
 93.67    789.00     28.09
 93.77    777.00     27.87
 93.87    763.79     27.64
 93.97    815.00     28.55
 94.07    776.58     27.87
 94.17    848.00     29.12
 94.27    874.45     29.57
 94.37    899.17     29.99
 94.47    842.00     29.02
 94.57    853.33     29.21
 94.67    923.37     30.39
 94.77   1029.00     32.08
 94.87    951.00     30.84
 94.97    988.00     31.43
 95.07    981.80     31.33
 95.17    984.00     31.37
 95.27   1024.00     32.00
 95.37   1021.00     31.95
 95.47   1042.00     32.28
 95.57   1107.00     33.27
 95.67   1095.00     33.09
 95.77   1131.00     33.63
 95.87   1057.00     32.51
 95.97   1051.52     32.43
 96.07   1024.00     32.00
 96.17    993.74     31.52
 96.27    958.58     30.96
 96.37    891.00     29.85
 96.47    937.00     30.61
 96.57    861.00     29.34
 96.67    926.00     30.43
 96.77    870.02     29.50
 96.87    820.00     28.64
 96.97    823.61     28.70
 97.07    892.00     29.87
 97.17    926.00     30.43
 97.27    925.01     30.41
 97.37    930.00     30.50
 97.47   1031.00     32.11
 97.57   1054.00     32.47
 97.67   1080.00     32.86
 97.77   1147.00     33.87
 97.87   1273.28     35.68
 97.97   1323.47     36.38
 98.07   1448.00     38.05
 98.17   1397.00     37.38
 98.27   1521.58     39.01
 98.37   1565.00     39.56
 98.47   1598.00     39.97
 98.57   1630.00     40.37
 98.67   1608.77     40.11
 98.77   1598.00     39.97
 98.87   1533.24     39.16
 98.97   1432.00     37.84
 99.07   1434.00     37.87
 99.17   1350.00     36.74
 99.27   1254.00     35.41
 99.37   1167.00     34.16
 99.47   1139.00     33.75
 99.57   1155.90     34.00
 99.67   1033.00     32.14
 99.77   1033.00     32.14
 99.87   1053.00     32.45
 99.97    998.00     31.59
100.07   1009.96     31.78
100.17    968.00     31.11
100.27   1044.00     32.31
100.37   1164.00     34.12
100.47   1157.78     34.03
100.57   1266.61     35.59
100.67   1388.10     37.26
100.77   1394.73     37.35
100.87   1537.00     39.20
100.97   1576.70     39.71
101.07   1690.00     41.11
101.17   1708.76     41.34
101.27   1931.12     43.94
101.37   2025.00     45.00
101.47   2047.41     45.25
101.57   2064.82     45.44
101.67   2051.00     45.29
101.77   2122.00     46.07
101.87   2174.25     46.63
101.97   2192.00     46.82
102.07   2128.91     46.14
102.17   2039.00     45.16
102.27   2011.26     44.85
102.37   1938.47     44.03
102.47   1896.16     43.54
102.57   1821.74     42.68
102.67   1702.28     41.26
102.77   1688.00     41.09
102.87   1654.24     40.67
102.97   1516.00     38.94
103.07   1496.49     38.68
103.17   1439.00     37.93
103.27   1430.00     37.82
103.37   1437.19     37.91
103.47   1358.00     36.85
103.57   1342.00     36.63
103.67   1317.88     36.30
103.77   1179.00     34.34
103.87   1190.00     34.50
103.97   1128.74     33.60
104.07   1123.64     33.52
104.17   1090.29     33.02
104.27   1024.00     32.00
104.37   1021.00     31.95
104.47    953.00     30.87
104.57    917.67     30.29
104.67    898.02     29.97
104.77    828.00     28.77
104.87    760.83     27.58
104.97    813.00     28.51
105.07    698.86     26.44
105.17    764.00     27.64
105.27    718.00     26.80
105.37    715.00     26.74
105.47    622.48     24.95
105.57    696.00     26.38
105.67    632.84     25.16
105.77    691.00     26.29
105.87    663.00     25.75
105.97    608.00     24.66
106.07    668.00     25.85
106.17    648.00     25.46
106.27    617.96     24.86
106.37    638.00     25.26
106.47    620.00     24.90
106.57    609.00     24.68
106.67    629.00     25.08
106.77    643.00     25.36
106.87    661.00     25.71
106.97    667.17     25.83
107.07    675.00     25.98
107.17    668.00     25.85
107.27    709.49     26.64
107.37    680.00     26.08
107.47    711.97     26.68
107.57    715.85     26.76
107.67    698.00     26.42
107.77    705.00     26.55
107.87    740.47     27.21
107.97    714.44     26.73
108.07    765.56     27.67
108.17    716.00     26.76
108.27    792.23     28.15
108.37    743.12     27.26
108.47    804.92     28.37
108.57    723.00     26.89
108.67    805.00     28.37
108.77    783.00     27.98
108.87    770.00     27.75
108.97    825.33     28.73
109.07    819.00     28.62
109.17    773.56     27.81
109.27    838.72     28.96
109.37    772.00     27.78
109.47    766.00     27.68
109.57    818.45     28.61
109.67    746.93     27.33
109.77    739.00     27.18
109.87    802.21     28.32
109.97    750.00     27.39
110.07    762.00     27.60
110.17    743.00     27.26
110.27    801.75     28.32
110.37    719.00     26.81
110.47    757.00     27.51
110.57    814.82     28.54
110.67    774.00     27.82
110.77    723.00     26.89
110.87    717.00     26.78
110.97    729.00     27.00
111.07    739.24     27.19
111.17    711.00     26.66
111.27    664.04     25.77
111.37    710.52     26.66
111.47    691.58     26.30
111.57    636.04     25.22
111.67    631.00     25.12
111.77    685.00     26.17
111.87    666.00     25.81
111.97    640.00     25.30
112.07    626.00     25.02
112.17    615.54     24.81
112.27    606.00     24.62
112.37    654.00     25.57
112.47    637.48     25.25
112.57    658.74     25.67
112.67    633.59     25.17
112.77    605.98     24.62
112.87    628.06     25.06
112.97    651.77     25.53
113.07    660.58     25.70
113.17    609.00     24.68
113.27    597.57     24.45
113.37    603.00     24.56
113.47    634.69     25.19
113.57    644.00     25.38
113.67    602.00     24.54
113.77    635.00     25.20
113.87    647.00     25.44
113.97    699.82     26.45
114.07    664.00     25.77
114.17    640.00     25.30
114.27    677.00     26.02
114.37    660.00     25.69
114.47    664.98     25.79
114.57    752.00     27.42
114.67    715.00     26.74
114.77    758.09     27.53
114.87    790.00     28.11
114.97    739.74     27.20
115.07    797.00     28.23
115.17    897.00     29.95
115.27    876.82     29.61
115.37    922.00     30.36
115.47   1040.00     32.25
115.57   1113.00     33.36
115.67   1298.00     36.03
115.77   1426.00     37.76
115.87   1471.44     38.36
115.97   1693.00     41.15
116.07   1923.00     43.85
116.17   2140.00     46.26
116.27   2351.00     48.49
116.37   2691.00     51.87
116.47   2991.00     54.69
116.57   3221.00     56.75
116.67   3529.00     59.41
116.77   3891.00     62.38
116.87   4395.00     66.29
116.97   4654.97     68.23
117.07   5287.28     72.71
117.17   5426.00     73.66
117.27   5802.47     76.17
117.37   6387.00     79.92
117.47   6831.00     82.65
117.57   6945.00     83.34
117.67   7362.00     85.80
117.77   7356.55     85.77
117.87   7533.00     86.79
117.97   7702.00     87.76
118.07   7498.00     86.59
118.17   7590.00     87.12
118.27   7400.00     86.02
118.37   7178.00     84.72
118.47   6836.23     82.68
118.57   6599.00     81.23
118.67   6411.62     80.07
118.77   5763.00     75.91
118.87   5478.00     74.01
118.97   5020.00     70.85
119.07   4787.58     69.19
119.17   4439.18     66.63
119.27   4022.53     63.42
119.37   3750.00     61.24
119.47   3581.00     59.84
119.57   3152.03     56.14
119.67   2718.52     52.14
119.77   2590.05     50.89
119.87   2316.00     48.12
119.97   2158.00     46.45
120.07   1866.38     43.20
120.17   1771.00     42.08
120.27   1612.00     40.15
120.37   1548.00     39.34
120.47   1396.00     37.36
120.57   1273.00     35.68
120.67   1160.00     34.06
120.77   1039.00     32.23
120.87   1047.00     32.36
120.97    991.00     31.48
121.07    949.00     30.81
121.17    840.39     28.99
121.27    876.00     29.60
121.37    833.81     28.88
121.47    857.00     29.27
121.57    703.00     26.51
121.67    728.00     26.98
121.77    790.00     28.11
121.87    717.00     26.78
121.97    708.00     26.61
122.07    717.00     26.78
122.17    678.71     26.05
122.27    692.00     26.31
122.37    709.32     26.63
122.47    747.00     27.33
122.57    733.35     27.08
122.67    705.14     26.55
122.77    717.00     26.78
122.87    766.00     27.68
122.97    729.00     27.00
123.07    673.00     25.94
123.17    771.30     27.77
123.27    763.00     27.62
123.37    656.00     25.61
123.47    710.80     26.66
123.57    744.00     27.28
123.67    690.00     26.27
123.77    748.00     27.35
123.87    794.00     28.18
123.97    817.11     28.59
124.07    752.11     27.42
124.17    808.00     28.43
124.27    795.31     28.20
124.37    784.00     28.00
124.47    833.00     28.86
124.57    836.00     28.91
124.67    810.00     28.46
124.77    788.29     28.08
124.87    832.00     28.84
124.97    808.00     28.43
