XYDATA



INTER 1.0 1.0 0 0
TEMP 794.037
  9.97    640.00     25.30
 10.07    633.57     25.17
 10.17    645.00     25.40
 10.27    663.00     25.75
 10.37    560.01     23.66
 10.47    596.60     24.43
 10.57    640.00     25.30
 10.67    600.84     24.51
 10.77    535.43     23.14
 10.87    610.00     24.70
 10.97    650.70     25.51
 11.07    624.00     24.98
 11.17    543.50     23.31
 11.27    592.00     24.33
 11.37    614.58     24.79
 11.47    642.27     25.34
 11.57    626.00     25.02
 11.67    646.00     25.42
 11.77    649.00     25.48
 11.87    700.00     26.46
 11.97    717.00     26.78
 12.07    721.00     26.85
 12.17    685.95     26.19
 12.27    729.00     27.00
 12.37    760.93     27.59
 12.47    654.00     25.57
 12.57    643.00     25.36
 12.67    613.33     24.77
 12.77    595.00     24.39
 12.87    666.82     25.82
 12.97    587.00     24.23
 13.07    597.00     24.43
 13.17    619.64     24.89
 13.27    659.31     25.68
 13.37    548.00     23.41
 13.47    643.24     25.36
 13.57    560.02     23.66
 13.67    584.00     24.17
 13.77    571.63     23.91
 13.87    649.00     25.48
 13.97    600.12     24.50
 14.07    615.00     24.80
 14.17    633.78     25.18
 14.27    553.79     23.53
 14.37    555.00     23.56
 14.47    607.00     24.64
 14.57    639.59     25.29
 14.67    549.47     23.44
 14.77    642.93     25.36
 14.87    580.00     24.08
 14.97    572.00     23.92
 15.07    556.50     23.59
 15.17    564.21     23.75
 15.27    569.00     23.85
 15.37    606.00     24.62
 15.47    565.00     23.77
 15.57    569.00     23.85
 15.67    576.00     24.00
 15.77    641.05     25.32
 15.87    565.00     23.77
 15.97    595.00     24.39
 16.07    612.06     24.74
 16.17    545.00     23.35
 16.27    577.76     24.04
 16.37    580.00     24.08
 16.47    597.00     24.43
 16.57    624.98     25.00
 16.67    592.00     24.33
 16.77    574.16     23.96
 16.87    562.15     23.71
 16.97    606.00     24.62
 17.07    578.33     24.05
 17.17    573.00     23.94
 17.27    614.00     24.78
 17.37    629.01     25.08
 17.47    619.00     24.88
 17.57    606.00     24.62
 17.67    571.00     23.90
 17.77    599.00     24.47
 17.87    571.00     23.90
 17.97    583.00     24.15
 18.07    577.63     24.03
 18.17    553.00     23.52
 18.27    566.33     23.80
 18.37    609.48     24.69
 18.47    594.00     24.37
 18.57    622.00     24.94
 18.67    554.00     23.54
 18.77    579.00     24.06
 18.87    585.22     24.19
 18.97    580.00     24.08
 19.07    574.00     23.96
 19.17    547.91     23.41
 19.27    573.00     23.94
 19.37    551.00     23.47
 19.47    609.00     24.68
 19.57    570.42     23.88
 19.67    585.00     24.19
 19.77    560.00     23.66
 19.87    581.01     24.10
 19.97    593.00     24.35
 20.07    594.09     24.37
 20.17    573.00     23.94
 20.27    560.00     23.66
 20.37    570.00     23.87
 20.47    590.00     24.29
 20.57    546.00     23.37
 20.67    601.00     24.52
 20.77    558.00     23.62
 20.87    547.74     23.40
 20.97    556.57     23.59
 21.07    603.00     24.56
 21.17    562.00     23.71
 21.27    599.00     24.47
 21.37    544.00     23.32
 21.47    600.00     24.49
 21.57    617.00     24.84
 21.67    599.90     24.49
 21.77    580.00     24.08
 21.87    584.00     24.17
 21.97    594.00     24.37
 22.07    652.10     25.54
 22.17    632.00     25.14
 22.27    635.11     25.20
 22.37    608.00     24.66
 22.47    579.00     24.06
 22.57    547.00     23.39
 22.67    585.59     24.20
 22.77    553.00     23.52
 22.87    578.00     24.04
 22.97    592.00     24.33
 23.07    545.00     23.35
 23.17    592.00     24.33
 23.27    607.00     24.64
 23.37    571.62     23.91
 23.47    595.00     24.39
 23.57    625.00     25.00
 23.67    613.00     24.76
 23.77    630.25     25.10
 23.87    568.00     23.83
 23.97    622.14     24.94
 24.07    641.50     25.33
 24.17    588.93     24.27
 24.27    631.24     25.12
 24.37    659.00     25.67
 24.47    660.00     25.69
 24.57    619.00     24.88
 24.67    657.00     25.63
 24.77    673.54     25.95
 24.87    698.00     26.42
 24.97    706.00     26.57
 25.07    664.00     25.77
 25.17    674.00     25.96
 25.27    647.00     25.44
 25.37    649.00     25.48
 25.47    548.97     23.43
 25.57    623.00     24.96
 25.67    567.32     23.82
 25.77    672.00     25.92
 25.87    594.00     24.37
 25.97    626.00     25.02
 26.07    600.00     24.49
 26.17    605.00     24.60
 26.27    602.00     24.54
 26.37    588.00     24.25
 26.47    619.00     24.88
 26.57    639.00     25.28
 26.67    626.01     25.02
 26.77    640.00     25.30
 26.87    606.00     24.62
 26.97    633.00     25.16
 27.07    621.00     24.92
 27.17    639.28     25.28
 27.27    605.00     24.60
 27.37    638.00     25.26
 27.47    642.00     25.34
 27.57    647.71     25.45
 27.67    701.00     26.48
 27.77    687.00     26.21
 27.87    620.20     24.90
 27.97    678.39     26.05
 28.07    750.12     27.39
 28.17    777.52     27.88
 28.27    902.00     30.03
 28.37    945.00     30.74
 28.47    910.28     30.17
 28.57    830.79     28.82
 28.67    789.83     28.10
 28.77    797.00     28.23
 28.87    764.14     27.64
 28.97    825.00     28.72
 29.07    888.00     29.80
 29.17    887.00     29.78
 29.27    821.00     28.65
 29.37    751.23     27.41
 29.47    663.00     25.75
 29.57    655.00     25.59
 29.67    616.51     24.83
 29.77    697.00     26.40
 29.87    681.00     26.10
 29.97    599.48     24.48
 30.07    541.18     23.26
 30.17    623.00     24.96
 30.27    641.00     25.32
 30.37    654.00     25.57
 30.47    595.77     24.41
 30.57    587.99     24.25
 30.67    642.00     25.34
 30.77    566.99     23.81
 30.87    683.00     26.13
 30.97    667.00     25.83
 31.07    656.00     25.61
 31.17    673.88     25.96
 31.27    671.00     25.90
 31.37    625.00     25.00
 31.47    619.47     24.89
 31.57    642.00     25.34
 31.67    618.00     24.86
 31.77    630.00     25.10
 31.87    601.00     24.52
 31.97    580.00     24.08
 32.07    545.00     23.35
 32.17    602.00     24.54
 32.27    617.30     24.85
 32.37    573.00     23.94
 32.47    575.00     23.98
 32.57    590.90     24.31
 32.67    568.91     23.85
 32.77    620.00     24.90
 32.87    572.00     23.92
 32.97    559.00     23.64
 33.07    556.00     23.58
 33.17    559.00     23.64
 33.27    595.00     24.39
 33.37    595.00     24.39
 33.47    615.29     24.81
 33.57    663.00     25.75
 33.67    615.00     24.80
 33.77    692.65     26.32
 33.87    816.47     28.57
 33.97    864.00     29.39
 34.07    932.00     30.53
 34.17   1079.00     32.85
 34.27   1051.48     32.43
 34.37    921.00     30.35
 34.47    827.00     28.76
 34.57    679.00     26.06
 34.67    653.85     25.57
 34.77    627.67     25.05
 34.87    604.39     24.58
 34.97    553.00     23.52
 35.07    564.00     23.75
 35.17    598.00     24.45
 35.27    552.36     23.50
 35.37    509.00     22.56
 35.47    570.00     23.87
 35.57    553.00     23.52
 35.67    539.00     23.22
 35.77    520.00     22.80
 35.87    468.00     21.63
 35.97    563.00     23.73
 36.07    531.00     23.04
 36.17    564.73     23.76
 36.27    566.02     23.79
 36.37    564.33     23.76
 36.47    483.00     21.98
 36.57    508.00     22.54
 36.67    555.00     23.56
 36.77    563.39     23.74
 36.87    485.00     22.02
 36.97    542.00     23.28
 37.07    528.00     22.98
 37.17    474.00     21.77
 37.27    497.00     22.29
 37.37    521.00     22.83
 37.47    527.00     22.96
 37.57    465.00     21.56
 37.67    553.00     23.52
 37.77    565.00     23.77
 37.87    558.31     23.63
 37.97    514.13     22.67
 38.07    514.00     22.67
 38.17    556.00     23.58
 38.27    515.00     22.69
 38.37    499.00     22.34
 38.47    532.01     23.07
 38.57    508.62     22.55
 38.67    520.00     22.80
 38.77    471.00     21.70
 38.87    503.00     22.43
 38.97    518.00     22.76
 39.07    490.00     22.14
 39.17    532.00     23.07
 39.27    504.00     22.45
 39.37    510.23     22.59
 39.47    476.59     21.83
 39.57    527.00     22.96
 39.67    524.00     22.89
 39.77    512.00     22.63
 39.87    476.46     21.83
 39.97    473.00     21.75
 40.07    526.00     22.93
 40.17    524.00     22.89
 40.27    525.00     22.91
 40.37    512.69     22.64
 40.47    572.55     23.93
 40.57    549.00     23.43
 40.67    518.00     22.76
 40.77    504.00     22.45
 40.87    498.00     22.32
 40.97    515.00     22.69
 41.07    536.00     23.15
 41.17    503.84     22.45
 41.27    526.00     22.93
 41.37    487.00     22.07
 41.47    563.64     23.74
 41.57    453.00     21.28
 41.67    543.37     23.31
 41.77    513.00     22.65
 41.87    536.00     23.15
 41.97    511.00     22.61
 42.07    530.00     23.02
 42.17    554.90     23.56
 42.27    531.54     23.06
 42.37    546.00     23.37
 42.47    535.00     23.13
 42.57    564.00     23.75
 42.67    622.00     24.94
 42.77    546.00     23.37
 42.87    687.74     26.22
 42.97    595.00     24.39
 43.07    545.00     23.35
 43.17    572.00     23.92
 43.27    585.00     24.19
 43.37    572.00     23.92
 43.47    500.00     22.36
 43.57    538.33     23.20
 43.67    482.00     21.95
 43.77    499.00     22.34
 43.87    499.98     22.36
 43.97    501.00     22.38
 44.07    511.00     22.61
 44.17    539.00     23.22
 44.27    523.00     22.87
 44.37    512.01     22.63
 44.47    557.36     23.61
 44.57    534.00     23.11
 44.67    468.45     21.64
 44.77    525.00     22.91
 44.87    488.36     22.10
 44.97    477.39     21.85
 45.07    530.00     23.02
 45.17    545.75     23.36
 45.27    494.47     22.24
 45.37    561.16     23.69
 45.47    535.00     23.13
 45.57    471.00     21.70
 45.67    508.00     22.54
 45.77    515.47     22.70
 45.87    535.71     23.15
 45.97    510.57     22.60
 46.07    517.00     22.74
 46.17    500.00     22.36
 46.27    495.69     22.26
 46.37    484.49     22.01
 46.47    512.00     22.63
 46.57    510.00     22.58
 46.67    490.16     22.14
 46.77    559.00     23.64
 46.87    497.00     22.29
 46.97    542.07     23.28
 47.07    508.00     22.54
 47.17    517.00     22.74
 47.27    502.00     22.41
 47.37    515.98     22.72
 47.47    534.00     23.11
 47.57    496.00     22.27
 47.67    504.70     22.47
 47.77    570.00     23.87
 47.87    620.00     24.90
 47.97    618.98     24.88
 48.07    615.00     24.80
 48.17    615.00     24.80
 48.27    603.78     24.57
 48.37    582.07     24.13
 48.47    561.00     23.69
 48.57    558.00     23.62
 48.67    599.00     24.47
 48.77    573.00     23.94
 48.87    532.00     23.07
 48.97    553.28     23.52
 49.07    502.00     22.41
 49.17    551.00     23.47
 49.27    533.00     23.09
 49.37    537.64     23.19
 49.47    590.00     24.29
 49.57    671.90     25.92
 49.67    687.04     26.21
 49.77    778.00     27.89
 49.87    968.50     31.12
 49.97   1203.47     34.69
 50.07   1584.00     39.80
 50.17   1869.03     43.23
 50.27   2232.00     47.24
 50.37   2228.40     47.21
 50.47   2346.73     48.44
 50.57   2002.00     44.74
 50.67   1629.00     40.36
 50.77   1281.00     35.79
 50.87   1022.00     31.97
 50.97    944.51     30.73
 51.07    736.00     27.13
 51.17    704.00     26.53
 51.27    668.00     25.85
 51.37    573.00     23.94
 51.47    599.00     24.47
 51.57    619.00     24.88
 51.67    596.41     24.42
 51.77    576.00     24.00
 51.87    592.42     24.34
 51.97    582.00     24.12
 52.07    631.00     25.12
 52.17    582.34     24.13
 52.27    532.63     23.08
 52.37    504.72     22.47
 52.47    613.00     24.76
 52.57    585.00     24.19
 52.67    583.00     24.15
 52.77    580.00     24.08
 52.87    556.83     23.60
 52.97    663.00     25.75
 53.07    669.81     25.88
 53.17    738.54     27.18
 53.27    756.00     27.50
 53.37    912.33     30.20
 53.47    976.00     31.24
 53.57   1061.79     32.59
 53.67   1107.56     33.28
 53.77   1282.09     35.81
 53.87   1214.28     34.85
 53.97   1043.54     32.30
 54.07    909.38     30.16
 54.17    904.46     30.07
 54.27    787.00     28.05
 54.37    706.00     26.57
 54.47    690.00     26.27
 54.57    613.00     24.76
 54.67    645.76     25.41
 54.77    576.00     24.00
 54.87    587.00     24.23
 54.97    612.00     24.74
 55.07    583.99     24.17
 55.17    593.00     24.35
 55.27    591.00     24.31
 55.37    608.00     24.66
 55.47    579.64     24.08
 55.57    584.00     24.17
 55.67    630.00     25.10
 55.77    593.00     24.35
 55.87    647.47     25.45
 55.97    626.41     25.03
 56.07    700.00     26.46
 56.17    746.00     27.31
 56.27    786.00     28.04
 56.37    916.71     30.28
 56.47   1013.00     31.83
 56.57   1208.00     34.76
 56.67   1436.00     37.89
 56.77   1841.66     42.91
 56.87   2128.66     46.14
 56.97   2454.00     49.54
 57.07   2615.00     51.14
 57.17   2506.00     50.06
 57.27   2277.00     47.72
 57.37   1991.61     44.63
 57.47   1642.00     40.52
 57.57   1506.48     38.81
 57.67   1147.00     33.87
 57.77    964.99     31.06
 57.87    825.00     28.72
 57.97    832.00     28.84
 58.07    743.17     27.26
 58.17    660.11     25.69
 58.27    748.00     27.35
 58.37    705.00     26.55
 58.47    770.00     27.75
 58.57    815.11     28.55
 58.67    938.00     30.63
 58.77    879.55     29.66
 58.87   1007.21     31.74
 58.97   1160.50     34.07
 59.07   1180.00     34.35
 59.17   1257.00     35.45
 59.27   1304.00     36.11
 59.37   1226.17     35.02
 59.47   1220.00     34.93
 59.57   1216.00     34.87
 59.67   1200.00     34.64
 59.77   1108.19     33.29
 59.87   1192.00     34.53
 59.97   1217.04     34.89
 60.07   1303.00     36.10
 60.17   1423.00     37.72
 60.27   1529.00     39.10
 60.37   1585.70     39.82
 60.47   1448.39     38.06
 60.57   1488.00     38.57
 60.67   1432.00     37.84
 60.77   1303.94     36.11
 60.87   1163.47     34.11
 60.97   1023.00     31.98
 61.07    886.00     29.77
 61.17    779.00     27.91
 61.27    723.00     26.89
 61.37    670.00     25.88
 61.47    732.00     27.06
 61.57    755.00     27.48
 61.67    748.00     27.35
 61.77    826.32     28.75
 61.87    878.42     29.64
 61.97    996.00     31.56
 62.07   1062.00     32.59
 62.17   1158.85     34.04
 62.27   1346.16     36.69
 62.37   1349.00     36.73
 62.47   1288.00     35.89
 62.57   1269.12     35.62
 62.67   1184.00     34.41
 62.77   1074.00     32.77
 62.87    893.00     29.88
 62.97    775.00     27.84
 63.07    745.00     27.29
 63.17    738.42     27.17
 63.27    623.17     24.96
 63.37    624.00     24.98
 63.47    611.92     24.74
 63.57    637.45     25.25
 63.67    643.67     25.37
 63.77    585.00     24.19
 63.87    622.00     24.94
 63.97    651.00     25.51
 64.07    582.01     24.12
 64.17    701.58     26.49
 64.27    739.67     27.20
 64.37    736.00     27.13
 64.47    889.00     29.82
 64.57    876.00     29.60
 64.67    956.00     30.92
 64.77   1005.00     31.70
 64.87   1034.00     32.16
 64.97   1093.95     33.07
 65.07   1006.74     31.73
 65.17    952.00     30.85
 65.27    898.97     29.98
 65.37    913.47     30.22
 65.47    806.87     28.41
 65.57    810.98     28.48
 65.67    741.51     27.23
 65.77    689.33     26.26
 65.87    619.00     24.88
 65.97    642.00     25.34
 66.07    612.00     24.74
 66.17    589.97     24.29
 66.27    598.00     24.45
 66.37    592.00     24.33
 66.47    574.00     23.96
 66.57    582.00     24.12
 66.67    606.00     24.62
 66.77    565.00     23.77
 66.87    615.00     24.80
 66.97    646.00     25.42
 67.07    623.00     24.96
 67.17    684.81     26.17
 67.27    715.00     26.74
 67.37    704.00     26.53
 67.47    895.65     29.93
 67.57   1006.74     31.73
 67.67   1057.61     32.52
 67.77   1215.00     34.86
 67.87   1529.70     39.11
 67.97   1668.29     40.84
 68.07   1979.00     44.49
 68.17   2178.82     46.68
 68.27   2313.00     48.09
 68.37   2269.55     47.64
 68.47   2265.00     47.59
 68.57   2126.71     46.12
 68.67   1993.00     44.64
 68.77   1777.00     42.15
 68.87   1576.00     39.70
 68.97   1272.00     35.67
 69.07   1135.86     33.70
 69.17    904.19     30.07
 69.27    866.00     29.43
 69.37    794.00     28.18
 69.47    709.55     26.64
 69.57    665.00     25.79
 69.67    621.38     24.93
 69.77    636.00     25.22
 69.87    631.00     25.12
 69.97    628.00     25.06
 70.07    593.00     24.35
 70.17    584.00     24.17
 70.27    578.00     24.04
 70.37    642.00     25.34
 70.47    609.00     24.68
 70.57    597.00     24.43
 70.67    635.31     25.21
 70.77    601.00     24.52
 70.87    600.00     24.49
 70.97    637.00     25.24
 71.07    610.00     24.70
 71.17    659.11     25.67
 71.27    697.53     26.41
 71.37    736.00     27.13
 71.47    849.09     29.14
 71.57   1000.52     31.63
 71.67   1004.00     31.69
 71.77   1169.00     34.19
 71.87   1282.00     35.81
 71.97   1483.00     38.51
 72.07   1654.00     40.67
 72.17   1784.00     42.24
 72.27   1798.35     42.41
 72.37   1775.63     42.14
 72.47   1778.00     42.17
 72.57   1730.00     41.59
 72.67   1574.00     39.67
 72.77   1343.18     36.65
 72.87   1295.00     35.99
 72.97   1026.79     32.04
 73.07   1008.00     31.75
 73.17    826.77     28.75
 73.27    755.00     27.48
 73.37    808.00     28.43
 73.47    712.00     26.68
 73.57    689.00     26.25
 73.67    659.00     25.67
 73.77    696.00     26.38
 73.87    642.54     25.35
 73.97    607.00     24.64
 74.07    614.00     24.78
 74.17    631.00     25.12
 74.27    600.62     24.51
 74.37    536.29     23.16
 74.47    518.13     22.76
 74.57    549.99     23.45
 74.67    640.00     25.30
 74.77    623.00     24.96
 74.87    642.00     25.34
 74.97    657.00     25.63
 75.07    523.85     22.89
 75.17    605.60     24.61
 75.27    608.46     24.67
 75.37    672.00     25.92
 75.47    579.00     24.06
 75.57    644.00     25.38
 75.67    578.00     24.04
 75.77    609.00     24.68
 75.87    580.00     24.08
 75.97    549.66     23.44
 76.07    606.00     24.62
 76.17    606.57     24.63
 76.27    566.92     23.81
 76.37    634.00     25.18
 76.47    678.36     26.05
 76.57    693.00     26.32
 76.67    699.10     26.44
 76.77    715.00     26.74
 76.87    719.00     26.81
 76.97    661.65     25.72
 77.07    669.57     25.88
 77.17    648.48     25.47
 77.27    627.53     25.05
 77.37    656.00     25.61
 77.47    641.82     25.33
 77.57    545.83     23.36
 77.67    599.05     24.48
 77.77    541.00     23.26
 77.87    550.00     23.45
 77.97    534.00     23.11
 78.07    535.00     23.13
 78.17    512.00     22.63
 78.27    562.00     23.71
 78.37    583.78     24.16
 78.47    472.78     21.74
 78.57    499.00     22.34
 78.67    543.00     23.30
 78.77    526.88     22.95
 78.87    516.00     22.72
 78.97    547.00     23.39
 79.07    488.00     22.09
 79.17    509.00     22.56
 79.27    548.00     23.41
 79.37    507.00     22.52
 79.47    507.00     22.52
 79.57    504.96     22.47
 79.67    570.84     23.89
 79.77    492.06     22.18
 79.87    540.70     23.25
 79.97    556.00     23.58
 80.07    573.00     23.94
 80.17    593.70     24.37
 80.27    517.00     22.74
 80.37    546.00     23.37
 80.47    569.00     23.85
 80.57    545.00     23.35
 80.67    550.11     23.45
 80.77    558.60     23.63
 80.87    653.00     25.55
 80.97    582.00     24.12
 81.07    629.00     25.08
 81.17    646.00     25.42
 81.27    754.03     27.46
 81.37    669.00     25.87
 81.47    684.84     26.17
 81.57    737.00     27.15
 81.67    715.88     26.76
 81.77    734.00     27.09
 81.87    730.00     27.02
 81.97    799.00     28.27
 82.07    736.00     27.13
 82.17    775.00     27.84
 82.27    667.00     25.83
 82.37    704.00     26.53
 82.47    738.54     27.18
 82.57    694.00     26.34
 82.67    691.41     26.29
 82.77    632.00     25.14
 82.87    625.00     25.00
 82.97    602.77     24.55
 83.07    577.25     24.03
 83.17    572.00     23.92
 83.27    570.00     23.87
 83.37    571.84     23.91
 83.47    600.52     24.51
 83.57    569.00     23.85
 83.67    540.86     23.26
 83.77    570.00     23.87
 83.87    550.00     23.45
 83.97    572.73     23.93
 84.07    592.00     24.33
 84.17    634.07     25.18
 84.27    586.00     24.21
 84.37    594.29     24.38
 84.47    568.00     23.83
 84.57    583.47     24.16
 84.67    560.00     23.66
 84.77    513.04     22.65
 84.87    542.25     23.29
 84.97    608.00     24.66
 85.07    556.00     23.58
 85.17    525.00     22.91
 85.27    555.34     23.57
 85.37    557.74     23.62
 85.47    536.00     23.15
 85.57    568.08     23.83
 85.67    524.00     22.89
 85.77    549.00     23.43
 85.87    476.98     21.84
 85.97    529.00     23.00
 86.07    518.00     22.76
 86.17    526.00     22.93
 86.27    518.00     22.76
 86.37    527.00     22.96
 86.47    564.00     23.75
 86.57    522.00     22.85
 86.67    542.00     23.28
 86.77    547.00     23.39
 86.87    558.00     23.62
 86.97    539.00     23.22
 87.07    524.36     22.90
 87.17    550.95     23.47
 87.27    609.00     24.68
 87.37    649.00     25.48
 87.47    590.00     24.29
 87.57    610.00     24.70
 87.67    629.32     25.09
 87.77    662.00     25.73
 87.87    687.30     26.22
 87.97    654.00     25.57
 88.07    599.93     24.49
 88.17    668.00     25.85
 88.27    601.95     24.53
 88.37    606.00     24.62
 88.47    607.87     24.66
 88.57    616.00     24.82
 88.67    601.00     24.52
 88.77    527.43     22.97
 88.87    542.00     23.28
 88.97    570.00     23.87
 89.07    566.00     23.79
 89.17    531.98     23.06
 89.27    612.00     24.74
 89.37    612.00     24.74
 89.47    639.52     25.29
 89.57    616.09     24.82
 89.67    624.73     24.99
 89.77    593.00     24.35
 89.87    571.00     23.90
 89.97    543.51     23.31
 90.07    549.40     23.44
 90.17    575.00     23.98
 90.27    527.00     22.96
 90.37    622.26     24.95
 90.47    593.54     24.36
 90.57    588.81     24.27
 90.67    549.00     23.43
 90.77    525.00     22.91
 90.87    552.39     23.50
 90.97    544.00     23.32
 91.07    573.41     23.95
 91.17    488.00     22.09
 91.27    479.90     21.91
 91.37    532.17     23.07
 91.47    500.04     22.36
 91.57    545.00     23.35
 91.67    494.00     22.23
 91.77    524.00     22.89
 91.87    553.00     23.52
 91.97    529.00     23.00
 92.07    549.00     23.43
 92.17    532.00     23.07
 92.27    579.00     24.06
 92.37    551.00     23.47
 92.47    567.00     23.81
 92.57    556.00     23.58
 92.67    567.00     23.81
 92.77    608.00     24.66
 92.87    591.00     24.31
 92.97    620.00     24.90
 93.07    666.00     25.81
 93.17    699.00     26.44
 93.27    666.00     25.81
 93.37    718.00     26.80
 93.47    676.00     26.00
 93.57    792.00     28.14
 93.67    820.00     28.64
 93.77    734.72     27.11
 93.87    826.15     28.74
 93.97    742.14     27.24
 94.07    867.70     29.46
 94.17    790.00     28.11
 94.27    779.49     27.92
 94.37    838.00     28.95
 94.47    827.00     28.76
 94.57    892.00     29.87
 94.67    807.16     28.41
 94.77    844.00     29.05
 94.87    914.00     30.23
 94.97    851.61     29.18
 95.07    935.00     30.58
 95.17    864.00     29.39
 95.27    923.00     30.38
 95.37    915.00     30.25
 95.47    874.00     29.56
 95.57    780.00     27.93
 95.67    804.00     28.35
 95.77    888.00     29.80
 95.87    743.00     27.26
 95.97    727.94     26.98
 96.07    735.00     27.11
 96.17    767.17     27.70
 96.27    700.00     26.46
 96.37    736.00     27.13
 96.47    725.23     26.93
 96.57    749.00     27.37
 96.67    764.00     27.64
 96.77    789.14     28.09
 96.87    766.00     27.68
 96.97    961.42     31.01
 97.07    905.00     30.08
 97.17    953.00     30.87
 97.27   1090.00     33.02
 97.37   1184.91     34.42
 97.47   1275.00     35.71
 97.57   1302.61     36.09
 97.67   1349.24     36.73
 97.77   1397.00     37.38
 97.87   1379.00     37.13
 97.97   1349.03     36.73
 98.07   1451.00     38.09
 98.17   1320.72     36.34
 98.27   1382.00     37.18
 98.37   1356.00     36.82
 98.47   1332.00     36.50
 98.57   1215.22     34.86
 98.67   1211.64     34.81
 98.77   1126.00     33.56
 98.87   1031.00     32.11
 98.97    962.84     31.03
 99.07   1050.00     32.40
 99.17    883.00     29.72
 99.27    879.00     29.65
 99.37    898.00     29.97
 99.47    918.94     30.31
 99.57    886.00     29.77
 99.67    960.00     30.98
 99.77    938.39     30.63
 99.87   1062.00     32.59
 99.97   1066.70     32.66
100.07   1157.00     34.01
100.17   1213.77     34.84
100.27   1396.78     37.37
100.37   1421.31     37.70
100.47   1662.00     40.77
100.57   1679.00     40.98
100.67   1708.00     41.33
100.77   1823.00     42.70
100.87   1900.24     43.59
100.97   1882.90     43.39
101.07   1923.49     43.86
101.17   1878.00     43.34
101.27   2016.37     44.90
101.37   1962.53     44.30
101.47   1986.00     44.56
101.57   1904.00     43.63
101.67   1893.20     43.51
101.77   1802.00     42.45
101.87   1646.84     40.58
101.97   1602.00     40.02
102.07   1538.00     39.22
102.17   1475.00     38.41
102.27   1351.00     36.76
102.37   1381.01     37.16
102.47   1304.00     36.11
102.57   1278.36     35.75
102.67   1235.85     35.15
102.77   1212.00     34.81
102.87   1192.88     34.54
102.97   1111.00     33.33
103.07   1094.50     33.08
103.17   1066.92     32.66
103.27   1053.00     32.45
103.37   1030.00     32.09
103.47   1067.90     32.68
103.57    925.02     30.41
103.67    872.49     29.54
103.77    897.00     29.95
103.87    847.00     29.10
103.97    862.00     29.36
104.07    756.00     27.50
104.17    771.00     27.77
104.27    725.00     26.93
104.37    679.00     26.06
104.47    694.00     26.34
104.57    640.00     25.30
104.67    554.14     23.54
104.77    582.56     24.14
104.87    594.00     24.37
104.97    581.00     24.10
105.07    565.00     23.77
105.17    598.00     24.45
105.27    579.00     24.06
105.37    515.38     22.70
105.47    514.00     22.67
105.57    567.00     23.81
105.67    561.00     23.69
105.77    536.00     23.15
105.87    522.00     22.85
105.97    606.37     24.62
106.07    500.87     22.38
106.17    549.01     23.43
106.27    580.00     24.08
106.37    584.38     24.17
106.47    593.00     24.35
106.57    531.68     23.06
106.67    579.00     24.06
106.77    632.00     25.14
106.87    619.00     24.88
106.97    668.21     25.85
107.07    610.00     24.70
107.17    685.00     26.17
107.27    701.17     26.48
107.37    739.00     27.18
107.47    685.00     26.17
107.57    658.00     25.65
107.67    733.69     27.09
107.77    695.84     26.38
107.87    660.18     25.69
107.97    664.45     25.78
108.07    704.00     26.53
108.17    686.00     26.19
108.27    749.12     27.37
108.37    652.83     25.55
108.47    750.60     27.40
108.57    696.14     26.38
108.67    730.03     27.02
108.77    756.74     27.51
108.87    686.00     26.19
108.97    706.50     26.58
109.07    745.37     27.30
109.17    707.00     26.59
109.27    701.00     26.48
109.37    712.00     26.68
109.47    675.00     25.98
109.57    750.92     27.40
109.67    743.00     27.26
109.77    654.00     25.57
109.87    733.28     27.08
109.97    706.11     26.57
110.07    720.42     26.84
110.17    691.00     26.29
110.27    627.00     25.04
110.37    619.00     24.88
110.47    654.75     25.59
110.57    618.00     24.86
110.67    674.00     25.96
110.77    605.00     24.60
110.87    599.03     24.48
110.97    587.00     24.23
111.07    635.00     25.20
111.17    573.00     23.94
111.27    577.00     24.02
111.37    571.62     23.91
111.47    599.59     24.49
111.57    560.00     23.66
111.67    537.31     23.18
111.77    557.00     23.60
111.87    576.00     24.00
111.97    586.00     24.21
112.07    563.00     23.73
112.17    522.38     22.86
112.27    500.00     22.36
112.37    528.00     22.98
112.47    575.65     23.99
112.57    583.00     24.15
112.67    504.85     22.47
112.77    554.00     23.54
112.87    600.00     24.49
112.97    582.00     24.12
113.07    604.00     24.58
113.17    602.84     24.55
113.27    644.00     25.38
113.37    618.00     24.86
113.47    540.35     23.25
113.57    619.00     24.88
113.67    652.08     25.54
113.77    625.00     25.00
113.87    681.00     26.10
113.97    649.93     25.49
114.07    648.00     25.46
114.17    702.00     26.50
114.27    742.00     27.24
114.37    770.00     27.75
114.47    766.91     27.69
114.57    779.00     27.91
114.67    937.00     30.61
114.77   1017.20     31.89
114.87    980.31     31.31
114.97   1176.00     34.29
115.07   1306.39     36.14
115.17   1446.00     38.03
115.27   1499.04     38.72
115.37   1677.86     40.96
115.47   2032.83     45.09
115.57   2171.57     46.60
115.67   2564.00     50.64
115.77   2739.05     52.34
115.87   3117.00     55.83
115.97   3542.00     59.51
116.07   3770.00     61.40
116.17   4034.00     63.51
116.27   4524.00     67.26
116.37   4982.00     70.58
116.47   5008.00     70.77
116.57   5514.98     74.26
116.67   5980.00     77.33
116.77   6106.17     78.14
116.87   6513.00     80.70
116.97   6611.72     81.31
117.07   6742.00     82.11
117.17   7100.46     84.26
117.27   6951.00     83.37
117.37   6919.00     83.18
117.47   6753.00     82.18
117.57   6665.67     81.64
117.67   6175.00     78.58
117.77   5966.45     77.24
117.87   5486.00     74.07
117.97   5585.04     74.73
118.07   4947.00     70.33
118.17   4679.00     68.40
118.27   4332.00     65.82
118.37   4036.00     63.53
118.47   3679.00     60.65
118.57   3513.00     59.27
118.67   3040.00     55.14
118.77   2757.83     52.52
118.87   2533.15     50.33
118.97   2331.94     48.29
119.07   1964.00     44.32
119.17   1806.85     42.51
119.27   1622.21     40.28
119.37   1459.00     38.20
119.47   1369.00     37.00
119.57   1212.00     34.81
119.67   1211.38     34.80
119.77   1087.00     32.97
119.87    992.00     31.50
119.97    940.00     30.66
120.07    872.00     29.53
120.17    812.00     28.50
120.27    834.00     28.88
120.37    695.00     26.36
120.47    767.62     27.71
120.57    673.00     25.94
120.67    628.80     25.08
120.77    617.75     24.85
120.87    640.00     25.30
120.97    671.44     25.91
121.07    662.81     25.75
121.17    654.48     25.58
121.27    574.00     23.96
121.37    592.00     24.33
121.47    605.00     24.60
121.57    574.00     23.96
121.67    587.10     24.23
121.77    589.12     24.27
121.87    590.00     24.29
121.97    649.78     25.49
122.07    599.52     24.49
122.17    570.00     23.87
122.27    657.01     25.63
122.37    572.37     23.92
122.47    672.91     25.94
122.57    575.00     23.98
122.67    567.63     23.82
122.77    622.38     24.95
122.87    607.00     24.64
122.97    633.00     25.16
123.07    621.00     24.92
123.17    693.00     26.32
123.27    700.00     26.46
123.37    605.35     24.60
123.47    649.00     25.48
123.57    599.00     24.47
123.67    665.58     25.80
123.77    578.42     24.05
123.87    632.00     25.14
123.97    652.00     25.53
124.07    585.46     24.20
124.17    623.00     24.96
124.27    677.79     26.03
124.37    654.00     25.57
124.47    665.00     25.79
124.57    599.00     24.47
124.67    590.86     24.31
124.77    633.00     25.16
124.87    652.00     25.53
124.97    627.00     25.04
