XYDATA



INTER 1.0 1.0 0 0
TEMP 519.093
  9.97    744.00     27.28
 10.07    743.00     27.26
 10.17    761.63     27.60
 10.27    749.00     27.37
 10.37    689.00     26.25
 10.47    749.00     27.37
 10.57    699.00     26.44
 10.67    708.00     26.61
 10.77    761.00     27.59
 10.87    726.00     26.94
 10.97    695.36     26.37
 11.07    706.00     26.57
 11.17    734.00     27.09
 11.27    744.15     27.28
 11.37    677.00     26.02
 11.47    783.00     27.98
 11.57    731.00     27.04
 11.67    798.00     28.25
 11.77    730.88     27.03
 11.87    706.00     26.57
 11.97    794.05     28.18
 12.07    843.00     29.03
 12.17    851.00     29.17
 12.27    840.00     28.98
 12.37    866.50     29.44
 12.47    762.24     27.61
 12.57    725.00     26.93
 12.67    790.79     28.12
 12.77    763.77     27.64
 12.87    685.06     26.17
 12.97    638.00     25.26
 13.07    675.00     25.98
 13.17    713.75     26.72
 13.27    692.31     26.31
 13.37    659.00     25.67
 13.47    679.00     26.06
 13.57    650.60     25.51
 13.67    706.03     26.57
 13.77    645.00     25.40
 13.87    637.23     25.24
 13.97    702.00     26.50
 14.07    641.78     25.33
 14.17    676.00     26.00
 14.27    693.00     26.32
 14.37    671.35     25.91
 14.47    698.00     26.42
 14.57    644.00     25.38
 14.67    646.00     25.42
 14.77    713.00     26.70
 14.87    708.38     26.62
 14.97    621.00     24.92
 15.07    697.76     26.42
 15.17    644.45     25.39
 15.27    667.01     25.83
 15.37    666.00     25.81
 15.47    687.11     26.21
 15.57    709.00     26.63
 15.67    668.30     25.85
 15.77    664.00     25.77
 15.87    652.78     25.55
 15.97    661.00     25.71
 16.07    637.00     25.24
 16.17    634.00     25.18
 16.27    700.25     26.46
 16.37    677.36     26.03
 16.47    646.00     25.42
 16.57    671.00     25.90
 16.67    700.00     26.46
 16.77    647.59     25.45
 16.87    642.00     25.34
 16.97    702.90     26.51
 17.07    635.75     25.21
 17.17    656.00     25.61
 17.27    688.12     26.23
 17.37    618.00     24.86
 17.47    567.00     23.81
 17.57    612.00     24.74
 17.67    677.00     26.02
 17.77    669.21     25.87
 17.87    677.00     26.02
 17.97    641.00     25.32
 18.07    644.88     25.39
 18.17    633.00     25.16
 18.27    665.50     25.80
 18.37    616.46     24.83
 18.47    659.63     25.68
 18.57    610.86     24.72
 18.67    618.34     24.87
 18.77    638.97     25.28
 18.87    595.54     24.40
 18.97    645.00     25.40
 19.07    629.00     25.08
 19.17    602.60     24.55
 19.27    685.17     26.18
 19.37    661.00     25.71
 19.47    627.00     25.04
 19.57    674.15     25.96
 19.67    630.00     25.10
 19.77    605.00     24.60
 19.87    603.64     24.57
 19.97    644.00     25.38
 20.07    582.00     24.12
 20.17    598.00     24.45
 20.27    635.00     25.20
 20.37    631.90     25.14
 20.47    598.00     24.45
 20.57    620.00     24.90
 20.67    639.64     25.29
 20.77    616.79     24.84
 20.87    615.00     24.80
 20.97    679.64     26.07
 21.07    636.00     25.22
 21.17    644.00     25.38
 21.27    620.93     24.92
 21.37    639.00     25.28
 21.47    630.00     25.10
 21.57    628.05     25.06
 21.67    596.00     24.41
 21.77    657.19     25.64
 21.87    642.50     25.35
 21.97    638.00     25.26
 22.07    666.00     25.81
 22.17    597.83     24.45
 22.27    621.00     24.92
 22.37    635.00     25.20
 22.47    647.00     25.44
 22.57    637.86     25.26
 22.67    643.00     25.36
 22.77    583.23     24.15
 22.87    627.00     25.04
 22.97    630.00     25.10
 23.07    629.00     25.08
 23.17    613.00     24.76
 23.27    598.00     24.45
 23.37    605.00     24.60
 23.47    653.00     25.55
 23.57    623.00     24.96
 23.67    622.00     24.94
 23.77    617.00     24.84
 23.87    618.06     24.86
 23.97    663.00     25.75
 24.07    630.00     25.10
 24.17    624.00     24.98
 24.27    622.34     24.95
 24.37    639.00     25.28
 24.47    592.00     24.33
 24.57    693.97     26.34
 24.67    668.00     25.85
 24.77    685.00     26.17
 24.87    698.00     26.42
 24.97    718.00     26.80
 25.07    745.00     27.29
 25.17    701.00     26.48
 25.27    706.00     26.57
 25.37    687.00     26.21
 25.47    638.32     25.26
 25.57    642.00     25.34
 25.67    603.77     24.57
 25.77    613.00     24.76
 25.87    682.71     26.13
 25.97    640.00     25.30
 26.07    632.84     25.16
 26.17    664.00     25.77
 26.27    625.24     25.00
 26.37    647.00     25.44
 26.47    647.83     25.45
 26.57    639.00     25.28
 26.67    647.00     25.44
 26.77    684.00     26.15
 26.87    689.00     26.25
 26.97    701.00     26.48
 27.07    683.00     26.13
 27.17    688.99     26.25
 27.27    718.00     26.80
 27.37    663.00     25.75
 27.47    768.00     27.71
 27.57    757.00     27.51
 27.67    828.00     28.77
 27.77    942.00     30.69
 27.87   1021.15     31.96
 27.97   1276.00     35.72
 28.07   2046.00     45.23
 28.17   3161.00     56.22
 28.27   5230.00     72.32
 28.37   7118.81     84.37
 28.47   8059.00     89.77
 28.57   7438.64     86.25
 28.67   5413.38     73.58
 28.77   3949.50     62.85
 28.87   3401.00     58.32
 28.97   3770.85     61.41
 29.07   4334.90     65.84
 29.17   4542.00     67.39
 29.27   4172.00     64.59
 29.37   3104.00     55.71
 29.47   2279.65     47.75
 29.57   1568.12     39.60
 29.67   1107.04     33.27
 29.77   1026.00     32.03
 29.87    868.00     29.46
 29.97    819.00     28.62
 30.07    783.64     27.99
 30.17    774.36     27.83
 30.27    775.00     27.84
 30.37    715.00     26.74
 30.47    716.94     26.78
 30.57    685.00     26.17
 30.67    699.00     26.44
 30.77    740.36     27.21
 30.87    690.00     26.27
 30.97    774.35     27.83
 31.07    716.12     26.76
 31.17    780.00     27.93
 31.27    764.25     27.65
 31.37    744.00     27.28
 31.47    656.68     25.63
 31.57    728.00     26.98
 31.67    688.00     26.23
 31.77    639.34     25.29
 31.87    689.00     26.25
 31.97    676.61     26.01
 32.07    574.88     23.98
 32.17    602.42     24.54
 32.27    606.00     24.62
 32.37    637.00     25.24
 32.47    687.00     26.21
 32.57    567.92     23.83
 32.67    624.88     25.00
 32.77    611.61     24.73
 32.87    664.00     25.77
 32.97    676.00     26.00
 33.07    613.69     24.77
 33.17    700.00     26.46
 33.27    638.00     25.26
 33.37    657.61     25.64
 33.47    593.82     24.37
 33.57    652.00     25.53
 33.67    683.00     26.13
 33.77    695.10     26.36
 33.87    756.00     27.50
 33.97    875.03     29.58
 34.07    950.00     30.82
 34.17   1187.00     34.45
 34.27   1186.00     34.44
 34.37   1313.35     36.24
 34.47   1240.00     35.21
 34.57   1025.00     32.02
 34.67    841.00     29.00
 34.77    836.00     28.91
 34.87    667.97     25.85
 34.97    724.00     26.91
 35.07    672.38     25.93
 35.17    667.00     25.83
 35.27    641.19     25.32
 35.37    677.00     26.02
 35.47    622.32     24.95
 35.57    635.00     25.20
 35.67    639.64     25.29
 35.77    596.57     24.42
 35.87    642.00     25.34
 35.97    594.00     24.37
 36.07    556.59     23.59
 36.17    581.35     24.11
 36.27    654.00     25.57
 36.37    585.97     24.21
 36.47    569.00     23.85
 36.57    560.83     23.68
 36.67    634.00     25.18
 36.77    596.00     24.41
 36.87    619.00     24.88
 36.97    641.75     25.33
 37.07    588.00     24.25
 37.17    602.72     24.55
 37.27    628.34     25.07
 37.37    636.00     25.22
 37.47    620.32     24.91
 37.57    606.38     24.62
 37.67    608.00     24.66
 37.77    599.60     24.49
 37.87    651.00     25.51
 37.97    640.62     25.31
 38.07    698.00     26.42
 38.17    707.00     26.59
 38.27    753.57     27.45
 38.37    694.00     26.34
 38.47    804.43     28.36
 38.57    682.00     26.12
 38.67    630.10     25.10
 38.77    658.76     25.67
 38.87    660.68     25.70
 38.97    575.00     23.98
 39.07    640.59     25.31
 39.17    616.04     24.82
 39.27    627.00     25.04
 39.37    616.00     24.82
 39.47    618.91     24.88
 39.57    596.00     24.41
 39.67    597.00     24.43
 39.77    633.00     25.16
 39.87    597.00     24.43
 39.97    563.00     23.73
 40.07    588.00     24.25
 40.17    568.00     23.83
 40.27    595.00     24.39
 40.37    611.00     24.72
 40.47    577.00     24.02
 40.57    608.00     24.66
 40.67    563.55     23.74
 40.77    591.00     24.31
 40.87    593.00     24.35
 40.97    629.75     25.09
 41.07    581.07     24.11
 41.17    589.00     24.27
 41.27    583.00     24.15
 41.37    601.00     24.52
 41.47    577.00     24.02
 41.57    570.00     23.87
 41.67    594.99     24.39
 41.77    596.00     24.41
 41.87    562.35     23.71
 41.97    595.00     24.39
 42.07    600.00     24.49
 42.17    607.00     24.64
 42.27    602.00     24.54
 42.37    572.59     23.93
 42.47    623.39     24.97
 42.57    626.67     25.03
 42.67    686.30     26.20
 42.77    659.66     25.68
 42.87    659.00     25.67
 42.97    652.00     25.53
 43.07    669.00     25.87
 43.17    722.25     26.87
 43.27    679.00     26.06
 43.37    637.00     25.24
 43.47    644.00     25.38
 43.57    619.00     24.88
 43.67    576.93     24.02
 43.77    573.00     23.94
 43.87    618.00     24.86
 43.97    626.33     25.03
 44.07    585.00     24.19
 44.17    631.94     25.14
 44.27    596.00     24.41
 44.37    597.00     24.43
 44.47    600.00     24.49
 44.57    600.00     24.49
 44.67    603.27     24.56
 44.77    560.24     23.67
 44.87    618.00     24.86
 44.97    549.92     23.45
 45.07    619.00     24.88
 45.17    626.00     25.02
 45.27    625.15     25.00
 45.37    593.00     24.35
 45.47    621.36     24.93
 45.57    606.00     24.62
 45.67    587.00     24.23
 45.77    550.33     23.46
 45.87    573.00     23.94
 45.97    622.00     24.94
 46.07    604.00     24.58
 46.17    600.46     24.50
 46.27    626.69     25.03
 46.37    617.00     24.84
 46.47    613.15     24.76
 46.57    581.00     24.10
 46.67    595.00     24.39
 46.77    568.14     23.84
 46.87    594.28     24.38
 46.97    579.48     24.07
 47.07    642.60     25.35
 47.17    569.00     23.85
 47.27    548.00     23.41
 47.37    632.35     25.15
 47.47    597.55     24.44
 47.57    590.00     24.29
 47.67    662.00     25.73
 47.77    618.00     24.86
 47.87    609.00     24.68
 47.97    670.00     25.88
 48.07    625.35     25.01
 48.17    693.00     26.32
 48.27    718.00     26.80
 48.37    677.00     26.02
 48.47    670.26     25.89
 48.57    680.00     26.08
 48.67    667.00     25.83
 48.77    638.00     25.26
 48.87    671.57     25.91
 48.97    647.00     25.44
 49.07    630.00     25.10
 49.17    645.00     25.40
 49.27    638.00     25.26
 49.37    629.00     25.08
 49.47    691.92     26.30
 49.57    665.94     25.81
 49.67    675.00     25.98
 49.77    767.00     27.69
 49.87    785.00     28.02
 49.97    963.00     31.03
 50.07   1246.24     35.30
 50.17   1527.00     39.08
 50.27   1953.00     44.19
 50.37   2552.00     50.52
 50.47   2972.00     54.52
 50.57   3140.00     56.04
 50.67   3070.00     55.41
 50.77   2735.37     52.30
 50.87   2290.00     47.85
 50.97   1795.00     42.37
 51.07   1302.00     36.08
 51.17   1069.00     32.70
 51.27    932.00     30.53
 51.37    840.00     28.98
 51.47    802.00     28.32
 51.57    712.57     26.69
 51.67    731.00     27.04
 51.77    796.00     28.21
 51.87    734.00     27.09
 51.97    683.00     26.13
 52.07    689.00     26.25
 52.17    641.52     25.33
 52.27    713.00     26.70
 52.37    686.00     26.19
 52.47    696.00     26.38
 52.57    668.00     25.85
 52.67    645.50     25.41
 52.77    645.23     25.40
 52.87    674.00     25.96
 52.97    712.00     26.68
 53.07    652.75     25.55
 53.17    694.00     26.34
 53.27    740.00     27.20
 53.37    769.00     27.73
 53.47    844.64     29.06
 53.57    948.00     30.79
 53.67   1025.66     32.03
 53.77   1143.79     33.82
 53.87   1298.00     36.03
 53.97   1313.00     36.24
 54.07   1242.86     35.25
 54.17   1175.66     34.29
 54.27   1135.00     33.69
 54.37    994.00     31.53
 54.47    919.00     30.32
 54.57    829.00     28.79
 54.67    773.00     27.80
 54.77    773.47     27.81
 54.87    635.00     25.20
 54.97    643.00     25.36
 55.07    654.00     25.57
 55.17    643.76     25.37
 55.27    651.00     25.51
 55.37    674.00     25.96
 55.47    684.00     26.15
 55.57    640.00     25.30
 55.67    623.38     24.97
 55.77    679.00     26.06
 55.87    712.59     26.69
 55.97    732.89     27.07
 56.07    699.00     26.44
 56.17    779.00     27.91
 56.27    677.00     26.02
 56.37    755.00     27.48
 56.47    791.94     28.14
 56.57    893.00     29.88
 56.67   1044.00     32.31
 56.77   1284.23     35.84
 56.87   1540.00     39.24
 56.97   1768.81     42.06
 57.07   2181.00     46.70
 57.17   2521.74     50.22
 57.27   2667.78     51.65
 57.37   2736.00     52.31
 57.47   2508.00     50.08
 57.57   2310.00     48.06
 57.67   2049.00     45.27
 57.77   1666.23     40.82
 57.87   1397.78     37.39
 57.97   1127.00     33.57
 58.07   1019.53     31.93
 58.17    874.00     29.56
 58.27    831.00     28.83
 58.37    775.00     27.84
 58.47    799.00     28.27
 58.57    815.00     28.55
 58.67    823.96     28.70
 58.77    905.00     30.08
 58.87    986.00     31.40
 58.97   1062.00     32.59
 59.07   1101.00     33.18
 59.17   1266.00     35.58
 59.27   1261.00     35.51
 59.37   1307.00     36.15
 59.47   1315.00     36.26
 59.57   1385.00     37.22
 59.67   1245.00     35.28
 59.77   1284.00     35.83
 59.87   1269.00     35.62
 59.97   1189.88     34.49
 60.07   1202.00     34.67
 60.17   1240.00     35.21
 60.27   1360.00     36.88
 60.37   1384.00     37.20
 60.47   1534.00     39.17
 60.57   1552.39     39.40
 60.67   1585.55     39.82
 60.77   1578.78     39.73
 60.87   1561.00     39.51
 60.97   1468.00     38.31
 61.07   1339.00     36.59
 61.17   1150.00     33.91
 61.27   1057.00     32.51
 61.37    930.00     30.50
 61.47    844.00     29.05
 61.57    819.00     28.62
 61.67    847.00     29.10
 61.77    850.10     29.16
 61.87    873.71     29.56
 61.97    907.00     30.12
 62.07   1027.00     32.05
 62.17   1108.00     33.29
 62.27   1265.00     35.57
 62.37   1502.00     38.76
 62.47   1580.04     39.75
 62.57   1695.00     41.17
 62.67   1798.00     42.40
 62.77   1829.83     42.78
 62.87   1637.00     40.46
 62.97   1487.00     38.56
 63.07   1345.76     36.68
 63.17   1180.04     34.35
 63.27    943.00     30.71
 63.37    926.00     30.43
 63.47    842.00     29.02
 63.57    758.91     27.55
 63.67    722.00     26.87
 63.77    718.68     26.81
 63.87    709.43     26.64
 63.97    690.55     26.28
 64.07    668.83     25.86
 64.17    732.00     27.06
 64.27    744.23     27.28
 64.37    796.00     28.21
 64.47    793.00     28.16
 64.57    915.00     30.25
 64.67   1020.00     31.94
 64.77   1081.00     32.88
 64.87   1192.93     34.54
 64.97   1373.00     37.05
 65.07   1469.00     38.33
 65.17   1588.00     39.85
 65.27   1562.00     39.52
 65.37   1581.71     39.77
 65.47   1429.77     37.81
 65.57   1297.00     36.01
 65.67   1186.35     34.44
 65.77   1082.00     32.89
 65.87   1012.00     31.81
 65.97    970.86     31.16
 66.07    877.00     29.61
 66.17    847.00     29.10
 66.27    761.00     27.59
 66.37    815.15     28.55
 66.47    719.00     26.81
 66.57    717.00     26.78
 66.67    688.00     26.23
 66.77    651.00     25.51
 66.87    622.00     24.94
 66.97    661.00     25.71
 67.07    702.00     26.50
 67.17    714.00     26.72
 67.27    719.00     26.81
 67.37    664.00     25.77
 67.47    770.38     27.76
 67.57    847.00     29.10
 67.67    812.00     28.50
 67.77    972.25     31.18
 67.87    996.00     31.56
 67.97   1174.00     34.26
 68.07   1368.00     36.99
 68.17   1568.97     39.61
 68.27   1792.00     42.33
 68.37   2166.00     46.54
 68.47   2342.00     48.39
 68.57   2570.12     50.70
 68.67   2591.00     50.90
 68.77   2565.00     50.65
 68.87   2346.00     48.44
 68.97   2175.00     46.64
 69.07   1883.78     43.40
 69.17   1746.00     41.79
 69.27   1502.00     38.76
 69.37   1268.72     35.62
 69.47   1163.00     34.10
 69.57   1006.00     31.72
 69.67    860.84     29.34
 69.77    852.00     29.19
 69.87    714.52     26.73
 69.97    769.00     27.73
 70.07    704.81     26.55
 70.17    747.00     27.33
 70.27    736.00     27.13
 70.37    701.00     26.48
 70.47    700.00     26.46
 70.57    642.99     25.36
 70.67    684.00     26.15
 70.77    730.00     27.02
 70.87    706.00     26.57
 70.97    733.00     27.07
 71.07    651.81     25.53
 71.17    707.00     26.59
 71.27    678.39     26.05
 71.37    682.51     26.12
 71.47    709.00     26.63
 71.57    764.00     27.64
 71.67    832.00     28.84
 71.77    890.38     29.84
 71.87    982.00     31.34
 71.97   1161.00     34.07
 72.07   1296.47     36.01
 72.17   1495.00     38.67
 72.27   1580.39     39.75
 72.37   1700.00     41.23
 72.47   1941.63     44.06
 72.57   1921.00     43.83
 72.67   2100.94     45.84
 72.77   2040.57     45.17
 72.87   1768.00     42.05
 72.97   1707.38     41.32
 73.07   1580.00     39.75
 73.17   1457.00     38.17
 73.27   1222.18     34.96
 73.37   1077.13     32.82
 73.47    920.00     30.33
 73.57    947.86     30.79
 73.67    754.00     27.46
 73.77    806.00     28.39
 73.87    766.57     27.69
 73.97    753.00     27.44
 74.07    696.56     26.39
 74.17    679.45     26.07
 74.27    696.35     26.39
 74.37    698.00     26.42
 74.47    717.13     26.78
 74.57    632.00     25.14
 74.67    684.00     26.15
 74.77    681.00     26.10
 74.87    627.00     25.04
 74.97    668.00     25.85
 75.07    686.00     26.19
 75.17    698.00     26.42
 75.27    636.86     25.24
 75.37    731.00     27.04
 75.47    626.06     25.02
 75.57    710.00     26.65
 75.67    720.53     26.84
 75.77    683.43     26.14
 75.87    713.00     26.70
 75.97    707.00     26.59
 76.07    626.00     25.02
 76.17    682.25     26.12
 76.27    675.00     25.98
 76.37    703.00     26.51
 76.47    697.92     26.42
 76.57    744.37     27.28
 76.67    837.00     28.93
 76.77    909.80     30.16
 76.87    906.65     30.11
 76.97    970.00     31.14
 77.07   1036.63     32.20
 77.17   1011.00     31.80
 77.27   1018.85     31.92
 77.37    966.00     31.08
 77.47    971.00     31.16
 77.57    910.00     30.17
 77.67    937.00     30.61
 77.77    855.00     29.24
 77.87    768.00     27.71
 77.97    823.75     28.70
 78.07    702.00     26.50
 78.17    684.74     26.17
 78.27    708.32     26.61
 78.37    691.15     26.29
 78.47    658.38     25.66
 78.57    610.49     24.71
 78.67    653.00     25.55
 78.77    675.18     25.98
 78.87    590.97     24.31
 78.97    635.00     25.20
 79.07    601.00     24.52
 79.17    622.42     24.95
 79.27    572.00     23.92
 79.37    668.11     25.85
 79.47    601.00     24.52
 79.57    644.00     25.38
 79.67    575.08     23.98
 79.77    614.59     24.79
 79.87    567.00     23.81
 79.97    667.24     25.83
 80.07    647.65     25.45
 80.17    671.00     25.90
 80.27    670.62     25.90
 80.37    633.00     25.16
 80.47    717.00     26.78
 80.57    681.13     26.10
 80.67    717.00     26.78
 80.77    751.00     27.40
 80.87    813.97     28.53
 80.97    882.00     29.70
 81.07    978.00     31.27
 81.17   1004.08     31.69
 81.27   1039.02     32.23
 81.37   1158.73     34.04
 81.47   1295.00     35.99
 81.57   1294.00     35.97
 81.67   1418.00     37.66
 81.77   1414.02     37.60
 81.87   1477.00     38.43
 81.97   1358.42     36.86
 82.07   1445.00     38.01
 82.17   1280.00     35.78
 82.27   1270.25     35.64
 82.37   1142.72     33.80
 82.47   1125.00     33.54
 82.57   1035.00     32.17
 82.67   1019.00     31.92
 82.77    925.00     30.41
 82.87    851.73     29.18
 82.97    782.00     27.96
 83.07    828.25     28.78
 83.17    745.00     27.29
 83.27    652.00     25.53
 83.37    657.00     25.63
 83.47    639.00     25.28
 83.57    659.00     25.67
 83.67    621.97     24.94
 83.77    646.00     25.42
 83.87    607.00     24.64
 83.97    570.00     23.87
 84.07    683.00     26.13
 84.17    606.00     24.62
 84.27    718.17     26.80
 84.37    720.48     26.84
 84.47    697.00     26.40
 84.57    669.99     25.88
 84.67    637.00     25.24
 84.77    669.40     25.87
 84.87    648.00     25.46
 84.97    645.00     25.40
 85.07    638.00     25.26
 85.17    665.04     25.79
 85.27    562.00     23.71
 85.37    617.00     24.84
 85.47    632.00     25.14
 85.57    639.00     25.28
 85.67    662.60     25.74
 85.77    640.10     25.30
 85.87    616.00     24.82
 85.97    599.64     24.49
 86.07    579.14     24.07
 86.17    591.44     24.32
 86.27    589.00     24.27
 86.37    662.00     25.73
 86.47    591.00     24.31
 86.57    595.00     24.39
 86.67    612.92     24.76
 86.77    606.00     24.62
 86.87    607.58     24.65
 86.97    658.00     25.65
 87.07    666.00     25.81
 87.17    697.00     26.40
 87.27    725.00     26.93
 87.37    687.61     26.22
 87.47    715.00     26.74
 87.57    735.00     27.11
 87.67    713.00     26.70
 87.77    768.00     27.71
 87.87    710.07     26.65
 87.97    650.66     25.51
 88.07    734.00     27.09
 88.17    773.00     27.80
 88.27    707.11     26.59
 88.37    775.00     27.84
 88.47    749.34     27.37
 88.57    682.00     26.12
 88.67    647.86     25.45
 88.77    649.00     25.48
 88.87    626.25     25.02
 88.97    700.00     26.46
 89.07    646.00     25.42
 89.17    687.59     26.22
 89.27    669.76     25.88
 89.37    661.00     25.71
 89.47    648.79     25.47
 89.57    605.06     24.60
 89.67    700.92     26.47
 89.77    670.00     25.88
 89.87    668.00     25.85
 89.97    690.00     26.27
 90.07    625.41     25.01
 90.17    632.49     25.15
 90.27    648.07     25.46
 90.37    657.00     25.63
 90.47    681.00     26.10
 90.57    657.00     25.63
 90.67    606.05     24.62
 90.77    602.00     24.54
 90.87    664.18     25.77
 90.97    656.00     25.61
 91.07    610.00     24.70
 91.17    617.00     24.84
 91.27    612.00     24.74
 91.37    618.00     24.86
 91.47    597.00     24.43
 91.57    598.00     24.45
 91.67    564.67     23.76
 91.77    559.00     23.64
 91.87    623.00     24.96
 91.97    629.58     25.09
 92.07    649.00     25.48
 92.17    601.00     24.52
 92.27    592.29     24.34
 92.37    589.77     24.29
 92.47    567.43     23.82
 92.57    609.00     24.68
 92.67    635.79     25.21
 92.77    641.00     25.32
 92.87    623.00     24.96
 92.97    622.00     24.94
 93.07    667.00     25.83
 93.17    640.31     25.30
 93.27    647.00     25.44
 93.37    726.90     26.96
 93.47    674.22     25.97
 93.57    686.00     26.19
 93.67    769.00     27.73
 93.77    814.78     28.54
 93.87    838.00     28.95
 93.97    759.41     27.56
 94.07    809.00     28.44
 94.17    829.00     28.79
 94.27    871.00     29.51
 94.37    876.28     29.60
 94.47    940.00     30.66
 94.57    934.00     30.56
 94.67    861.39     29.35
 94.77    891.84     29.86
 94.87    957.00     30.94
 94.97    950.00     30.82
 95.07    947.00     30.77
 95.17   1006.00     31.72
 95.27   1032.00     32.12
 95.37   1048.00     32.37
 95.47   1045.22     32.33
 95.57   1038.34     32.22
 95.67   1074.00     32.77
 95.77   1090.00     33.02
 95.87   1055.00     32.48
 95.97   1041.32     32.27
 96.07    948.00     30.79
 96.17    905.00     30.08
 96.27    905.95     30.10
 96.37    887.00     29.78
 96.47    909.56     30.16
 96.57    822.00     28.67
 96.67    756.61     27.51
 96.77    815.00     28.55
 96.87    839.00     28.97
 96.97    751.64     27.42
 97.07    839.00     28.97
 97.17    860.00     29.33
 97.27    944.81     30.74
 97.37   1028.00     32.06
 97.47   1006.00     31.72
 97.57   1014.00     31.84
 97.67   1156.96     34.01
 97.77   1214.00     34.84
 97.87   1307.00     36.15
 97.97   1306.00     36.14
 98.07   1461.00     38.22
 98.17   1491.00     38.61
 98.27   1567.00     39.59
 98.37   1559.00     39.48
 98.47   1657.22     40.71
 98.57   1670.00     40.87
 98.67   1557.00     39.46
 98.77   1604.06     40.05
 98.87   1472.00     38.37
 98.97   1383.00     37.19
 99.07   1394.00     37.34
 99.17   1336.00     36.55
 99.27   1270.08     35.64
 99.37   1149.30     33.90
 99.47   1072.96     32.76
 99.57   1111.00     33.33
 99.67   1036.00     32.19
 99.77    999.00     31.61
 99.87    982.00     31.34
 99.97    990.00     31.46
100.07   1001.00     31.64
100.17   1095.00     33.09
100.27   1067.00     32.66
100.37   1145.00     33.84
100.47   1161.87     34.09
100.57   1302.00     36.08
100.67   1376.00     37.09
100.77   1467.00     38.30
100.87   1589.00     39.86
100.97   1749.00     41.82
101.07   1642.14     40.52
101.17   1841.00     42.91
101.27   1933.34     43.97
101.37   1959.00     44.26
101.47   2124.00     46.09
101.57   2096.00     45.78
101.67   2076.00     45.56
101.77   2179.80     46.69
101.87   2127.00     46.12
101.97   2144.00     46.30
102.07   2171.28     46.60
102.17   1972.35     44.41
102.27   1917.00     43.78
102.37   1853.08     43.05
102.47   1775.88     42.14
102.57   1820.53     42.67
102.67   1632.33     40.40
102.77   1568.00     39.60
102.87   1489.00     38.59
102.97   1568.67     39.61
103.07   1430.00     37.82
103.17   1409.44     37.54
103.27   1312.00     36.22
103.37   1336.00     36.55
103.47   1285.23     35.85
103.57   1208.00     34.76
103.67   1274.11     35.69
103.77   1233.00     35.11
103.87   1239.03     35.20
103.97   1108.00     33.29
104.07   1116.00     33.41
104.17   1099.72     33.16
104.27    982.00     31.34
104.37    990.00     31.46
104.47    902.96     30.05
104.57    888.00     29.80
104.67    837.00     28.93
104.77    839.00     28.97
104.87    808.35     28.43
104.97    732.25     27.06
105.07    759.00     27.55
105.17    699.00     26.44
105.27    726.11     26.95
105.37    618.72     24.87
105.47    678.00     26.04
105.57    614.29     24.78
105.67    656.87     25.63
105.77    578.39     24.05
105.87    602.00     24.54
105.97    609.00     24.68
106.07    634.22     25.18
106.17    608.15     24.66
106.27    632.89     25.16
106.37    626.00     25.02
106.47    584.54     24.18
106.57    642.32     25.34
106.67    657.00     25.63
106.77    644.92     25.40
106.87    605.08     24.60
106.97    628.00     25.06
107.07    606.00     24.62
107.17    684.00     26.15
107.27    685.03     26.17
107.37    662.00     25.73
107.47    674.00     25.96
107.57    753.72     27.45
107.67    692.00     26.31
107.77    729.00     27.00
107.87    734.83     27.11
107.97    713.42     26.71
108.07    760.00     27.57
108.17    794.00     28.18
108.27    835.83     28.91
108.37    756.00     27.50
108.47    783.00     27.98
108.57    770.00     27.75
108.67    812.68     28.51
108.77    757.60     27.52
108.87    808.00     28.43
108.97    785.00     28.02
109.07    779.00     27.91
109.17    765.73     27.67
109.27    810.51     28.47
109.37    798.48     28.26
109.47    748.00     27.35
109.57    786.00     28.04
109.67    745.79     27.31
109.77    753.26     27.45
109.87    772.00     27.78
109.97    760.00     27.57
110.07    731.00     27.04
110.17    765.00     27.66
110.27    768.00     27.71
110.37    754.00     27.46
110.47    777.00     27.87
110.57    742.00     27.24
110.67    748.00     27.35
110.77    713.00     26.70
110.87    662.00     25.73
110.97    732.00     27.06
111.07    696.00     26.38
111.17    729.00     27.00
111.27    658.50     25.66
111.37    705.76     26.57
111.47    668.00     25.85
111.57    660.00     25.69
111.67    635.00     25.20
111.77    654.00     25.57
111.87    672.22     25.93
111.97    612.00     24.74
112.07    618.00     24.86
112.17    611.00     24.72
112.27    629.00     25.08
112.37    609.14     24.68
112.47    639.00     25.28
112.57    585.00     24.19
112.67    597.55     24.44
112.77    619.00     24.88
112.87    633.00     25.16
112.97    606.63     24.63
113.07    571.13     23.90
113.17    610.00     24.70
113.27    646.00     25.42
113.37    628.00     25.06
113.47    667.83     25.84
113.57    587.00     24.23
113.67    624.00     24.98
113.77    643.54     25.37
113.87    685.10     26.17
113.97    637.00     25.24
114.07    630.00     25.10
114.17    644.02     25.38
114.27    622.00     24.94
114.37    698.00     26.42
114.47    689.00     26.25
114.57    700.00     26.46
114.67    735.09     27.11
114.77    709.00     26.63
114.87    726.13     26.95
114.97    820.16     28.64
115.07    769.00     27.73
115.17    907.12     30.12
115.27    916.00     30.27
115.37   1073.01     32.76
115.47   1103.00     33.21
115.57   1195.00     34.57
115.67   1313.00     36.24
115.77   1416.00     37.63
115.87   1625.00     40.31
115.97   1838.94     42.88
116.07   1983.09     44.53
116.17   2275.00     47.70
116.27   2474.00     49.74
116.37   2802.00     52.93
116.47   3037.00     55.11
116.57   3466.00     58.87
116.67   3642.00     60.35
116.77   4240.90     65.12
116.87   4559.70     67.53
116.97   4792.00     69.22
117.07   5221.00     72.26
117.17   5819.00     76.28
117.27   5939.00     77.06
117.37   6615.49     81.34
117.47   6639.00     81.48
117.57   7009.61     83.72
117.67   7356.00     85.77
117.77   7269.50     85.26
117.87   7602.00     87.19
117.97   7595.00     87.15
118.07   7421.98     86.15
118.17   7498.92     86.60
118.27   7225.00     85.00
118.37   7048.00     83.95
118.47   6562.00     81.01
118.57   6471.82     80.45
118.67   5985.00     77.36
118.77   5548.17     74.49
118.87   5337.60     73.06
118.97   5009.70     70.78
119.07   4483.73     66.96
119.17   4152.00     64.44
119.27   3750.89     61.24
119.37   3310.27     57.53
119.47   3211.00     56.67
119.57   2866.39     53.54
119.67   2554.40     50.54
119.77   2273.42     47.68
119.87   2073.55     45.54
119.97   1921.00     43.83
120.07   1700.49     41.24
120.17   1649.00     40.61
120.27   1460.00     38.21
120.37   1286.96     35.87
120.47   1317.00     36.29
120.57   1185.00     34.42
120.67   1153.00     33.96
120.77   1047.00     32.36
120.87   1009.00     31.76
120.97    928.43     30.47
121.07    912.58     30.21
121.17    799.92     28.28
121.27    794.00     28.18
121.37    876.00     29.60
121.47    732.81     27.07
121.57    803.15     28.34
121.67    782.00     27.96
121.77    740.00     27.20
121.87    692.00     26.31
121.97    690.00     26.27
122.07    745.70     27.31
122.17    677.00     26.02
122.27    659.80     25.69
122.37    706.00     26.57
122.47    689.00     26.25
122.57    705.00     26.55
122.67    675.00     25.98
122.77    742.00     27.24
122.87    674.00     25.96
122.97    679.00     26.06
123.07    694.00     26.34
123.17    681.00     26.10
123.27    766.40     27.68
123.37    696.52     26.39
123.47    712.00     26.68
123.57    788.35     28.08
123.67    732.00     27.06
123.77    771.00     27.77
123.87    803.00     28.34
123.97    755.00     27.48
124.07    774.00     27.82
124.17    747.00     27.33
124.27    781.00     27.95
124.37    787.00     28.05
124.47    724.58     26.92
124.57    739.04     27.19
124.67    827.00     28.76
124.77    827.00     28.76
124.87    807.29     28.41
124.97    794.00     28.18
