XYDATA



INTER 1.0 1.0 0 0
TEMP 938.005
  9.97    582.44     24.13
 10.07    566.00     23.79
 10.17    592.00     24.33
 10.27    596.85     24.43
 10.37    584.00     24.17
 10.47    579.47     24.07
 10.57    587.96     24.25
 10.67    556.50     23.59
 10.77    596.00     24.41
 10.87    514.57     22.68
 10.97    569.75     23.87
 11.07    558.00     23.62
 11.17    584.67     24.18
 11.27    597.00     24.43
 11.37    575.80     24.00
 11.47    595.00     24.39
 11.57    629.00     25.08
 11.67    595.00     24.39
 11.77    594.00     24.37
 11.87    629.00     25.08
 11.97    611.02     24.72
 12.07    636.00     25.22
 12.17    657.67     25.65
 12.27    653.00     25.55
 12.37    635.00     25.20
 12.47    666.72     25.82
 12.57    639.00     25.28
 12.67    571.00     23.90
 12.77    572.00     23.92
 12.87    565.00     23.77
 12.97    548.01     23.41
 13.07    557.00     23.60
 13.17    546.00     23.37
 13.27    537.00     23.17
 13.37    551.00     23.47
 13.47    583.00     24.15
 13.57    604.52     24.59
 13.67    533.00     23.09
 13.77    536.00     23.15
 13.87    525.47     22.92
 13.97    548.00     23.41
 14.07    574.00     23.96
 14.17    540.00     23.24
 14.27    564.00     23.75
 14.37    548.00     23.41
 14.47    602.00     24.54
 14.57    571.00     23.90
 14.67    499.00     22.34
 14.77    563.00     23.73
 14.87    606.40     24.63
 14.97    537.00     23.17
 15.07    515.00     22.69
 15.17    561.00     23.69
 15.27    554.00     23.54
 15.37    549.31     23.44
 15.47    559.00     23.64
 15.57    549.00     23.43
 15.67    552.00     23.49
 15.77    478.00     21.86
 15.87    511.00     22.61
 15.97    549.78     23.45
 16.07    540.00     23.24
 16.17    593.14     24.35
 16.27    574.37     23.97
 16.37    599.52     24.49
 16.47    555.81     23.58
 16.57    534.69     23.12
 16.67    589.85     24.29
 16.77    577.93     24.04
 16.87    576.99     24.02
 16.97    531.00     23.04
 17.07    539.00     23.22
 17.17    582.00     24.12
 17.27    592.11     24.33
 17.37    538.98     23.22
 17.47    541.08     23.26
 17.57    566.87     23.81
 17.67    561.00     23.69
 17.77    562.00     23.71
 17.87    528.00     22.98
 17.97    555.09     23.56
 18.07    529.39     23.01
 18.17    530.00     23.02
 18.27    572.00     23.92
 18.37    594.42     24.38
 18.47    600.00     24.49
 18.57    565.67     23.78
 18.67    576.00     24.00
 18.77    512.49     22.64
 18.87    566.00     23.79
 18.97    548.00     23.41
 19.07    547.25     23.39
 19.17    546.00     23.37
 19.27    513.05     22.65
 19.37    532.69     23.08
 19.47    579.29     24.07
 19.57    558.00     23.62
 19.67    540.00     23.24
 19.77    521.27     22.83
 19.87    570.00     23.87
 19.97    528.00     22.98
 20.07    553.00     23.52
 20.17    554.00     23.54
 20.27    603.00     24.56
 20.37    519.00     22.78
 20.47    524.74     22.91
 20.57    570.47     23.88
 20.67    542.00     23.28
 20.77    580.51     24.09
 20.87    579.00     24.06
 20.97    578.89     24.06
 21.07    549.00     23.43
 21.17    523.16     22.87
 21.27    517.00     22.74
 21.37    598.48     24.46
 21.47    521.00     22.83
 21.57    548.00     23.41
 21.67    509.80     22.58
 21.77    552.00     23.49
 21.87    577.10     24.02
 21.97    575.38     23.99
 22.07    579.10     24.06
 22.17    551.00     23.47
 22.27    546.00     23.37
 22.37    524.00     22.89
 22.47    530.00     23.02
 22.57    527.00     22.96
 22.67    569.07     23.86
 22.77    589.50     24.28
 22.87    538.00     23.19
 22.97    546.00     23.37
 23.07    519.00     22.78
 23.17    562.00     23.71
 23.27    516.00     22.72
 23.37    593.63     24.36
 23.47    548.00     23.41
 23.57    555.00     23.56
 23.67    526.81     22.95
 23.77    537.00     23.17
 23.87    541.09     23.26
 23.97    564.68     23.76
 24.07    568.00     23.83
 24.17    536.00     23.15
 24.27    553.91     23.54
 24.37    529.96     23.02
 24.47    618.81     24.88
 24.57    565.00     23.77
 24.67    611.00     24.72
 24.77    654.00     25.57
 24.87    602.59     24.55
 24.97    585.00     24.19
 25.07    613.00     24.76
 25.17    544.00     23.32
 25.27    527.84     22.97
 25.37    604.00     24.58
 25.47    560.00     23.66
 25.57    570.87     23.89
 25.67    581.10     24.11
 25.77    566.00     23.79
 25.87    556.00     23.58
 25.97    590.00     24.29
 26.07    574.00     23.96
 26.17    578.35     24.05
 26.27    571.14     23.90
 26.37    583.00     24.15
 26.47    562.00     23.71
 26.57    544.00     23.32
 26.67    560.62     23.68
 26.77    562.00     23.71
 26.87    587.97     24.25
 26.97    575.00     23.98
 27.07    585.15     24.19
 27.17    546.00     23.37
 27.27    518.52     22.77
 27.37    576.00     24.00
 27.47    542.88     23.30
 27.57    572.00     23.92
 27.67    592.00     24.33
 27.77    522.29     22.85
 27.87    622.00     24.94
 27.97    677.00     26.02
 28.07    738.00     27.17
 28.17    866.95     29.44
 28.27    891.00     29.85
 28.37    870.38     29.50
 28.47    841.00     29.00
 28.57    787.00     28.05
 28.67    723.80     26.90
 28.77    756.00     27.50
 28.87    791.00     28.12
 28.97    824.00     28.71
 29.07    827.00     28.76
 29.17    711.00     26.66
 29.27    665.00     25.79
 29.37    571.12     23.90
 29.47    573.97     23.96
 29.57    548.00     23.41
 29.67    657.00     25.63
 29.77    510.54     22.60
 29.87    543.00     23.30
 29.97    590.79     24.31
 30.07    608.00     24.66
 30.17    567.00     23.81
 30.27    584.18     24.17
 30.37    517.00     22.74
 30.47    502.23     22.41
 30.57    547.00     23.39
 30.67    550.00     23.45
 30.77    615.11     24.80
 30.87    584.76     24.18
 30.97    582.00     24.12
 31.07    623.77     24.98
 31.17    586.00     24.21
 31.27    549.49     23.44
 31.37    543.00     23.30
 31.47    584.40     24.17
 31.57    509.00     22.56
 31.67    518.00     22.76
 31.77    538.88     23.21
 31.87    489.17     22.12
 31.97    532.48     23.08
 32.07    547.00     23.39
 32.17    553.00     23.52
 32.27    538.00     23.19
 32.37    522.00     22.85
 32.47    509.96     22.58
 32.57    524.00     22.89
 32.67    548.00     23.41
 32.77    508.09     22.54
 32.87    563.00     23.73
 32.97    523.26     22.87
 33.07    568.00     23.83
 33.17    488.93     22.11
 33.27    532.00     23.07
 33.37    571.00     23.90
 33.47    569.83     23.87
 33.57    581.95     24.12
 33.67    622.97     24.96
 33.77    740.28     27.21
 33.87    825.00     28.72
 33.97    900.72     30.01
 34.07   1005.44     31.71
 34.17   1001.00     31.64
 34.27    947.00     30.77
 34.37    807.64     28.42
 34.47    691.00     26.29
 34.57    628.89     25.08
 34.67    652.00     25.53
 34.77    561.00     23.69
 34.87    552.00     23.49
 34.97    537.85     23.19
 35.07    508.40     22.55
 35.17    532.00     23.07
 35.27    508.00     22.54
 35.37    529.98     23.02
 35.47    516.00     22.72
 35.57    500.00     22.36
 35.67    550.00     23.45
 35.77    447.00     21.14
 35.87    499.39     22.35
 35.97    500.00     22.36
 36.07    519.00     22.78
 36.17    505.00     22.47
 36.27    475.00     21.79
 36.37    528.34     22.99
 36.47    475.00     21.79
 36.57    497.00     22.29
 36.67    482.89     21.97
 36.77    510.36     22.59
 36.87    512.00     22.63
 36.97    509.00     22.56
 37.07    524.00     22.89
 37.17    494.00     22.23
 37.27    494.47     22.24
 37.37    494.00     22.23
 37.47    522.00     22.85
 37.57    494.00     22.23
 37.67    519.92     22.80
 37.77    495.00     22.25
 37.87    519.00     22.78
 37.97    526.00     22.93
 38.07    492.00     22.18
 38.17    460.00     21.45
 38.27    498.00     22.32
 38.37    482.89     21.97
 38.47    507.06     22.52
 38.57    500.00     22.36
 38.67    501.00     22.38
 38.77    522.00     22.85
 38.87    489.00     22.11
 38.97    473.00     21.75
 39.07    462.03     21.49
 39.17    539.82     23.23
 39.27    470.00     21.68
 39.37    488.00     22.09
 39.47    514.56     22.68
 39.57    453.64     21.30
 39.67    467.00     21.61
 39.77    458.00     21.40
 39.87    489.61     22.13
 39.97    451.49     21.25
 40.07    501.76     22.40
 40.17    455.40     21.34
 40.27    509.64     22.58
 40.37    531.72     23.06
 40.47    481.00     21.93
 40.57    462.00     21.49
 40.67    474.00     21.77
 40.77    530.24     23.03
 40.87    478.00     21.86
 40.97    507.25     22.52
 41.07    475.00     21.79
 41.17    493.00     22.20
 41.27    479.00     21.89
 41.37    451.39     21.25
 41.47    507.00     22.52
 41.57    489.20     22.12
 41.67    483.74     21.99
 41.77    456.00     21.35
 41.87    521.92     22.85
 41.97    456.00     21.35
 42.07    461.24     21.48
 42.17    521.23     22.83
 42.27    512.00     22.63
 42.37    524.00     22.89
 42.47    545.00     23.35
 42.57    591.25     24.32
 42.67    601.00     24.52
 42.77    646.00     25.42
 42.87    623.51     24.97
 42.97    571.00     23.90
 43.07    604.25     24.58
 43.17    542.43     23.29
 43.27    513.00     22.65
 43.37    526.33     22.94
 43.47    536.26     23.16
 43.57    481.00     21.93
 43.67    500.00     22.36
 43.77    467.00     21.61
 43.87    501.00     22.38
 43.97    492.00     22.18
 44.07    449.88     21.21
 44.17    522.00     22.85
 44.27    471.00     21.70
 44.37    535.00     23.13
 44.47    517.00     22.74
 44.57    467.00     21.61
 44.67    511.00     22.61
 44.77    522.00     22.85
 44.87    496.59     22.28
 44.97    475.00     21.79
 45.07    503.08     22.43
 45.17    494.00     22.23
 45.27    486.00     22.05
 45.37    565.00     23.77
 45.47    471.00     21.70
 45.57    452.00     21.26
 45.67    510.00     22.58
 45.77    514.00     22.67
 45.87    507.64     22.53
 45.97    485.00     22.02
 46.07    511.00     22.61
 46.17    502.12     22.41
 46.27    502.00     22.41
 46.37    480.00     21.91
 46.47    488.00     22.09
 46.57    497.00     22.29
 46.67    526.00     22.93
 46.77    503.00     22.43
 46.87    492.32     22.19
 46.97    499.00     22.34
 47.07    493.00     22.20
 47.17    509.00     22.56
 47.27    509.00     22.56
 47.37    502.00     22.41
 47.47    535.00     23.13
 47.57    523.00     22.87
 47.67    535.00     23.13
 47.77    568.93     23.85
 47.87    558.00     23.62
 47.97    584.00     24.17
 48.07    518.00     22.76
 48.17    581.00     24.10
 48.27    539.38     23.22
 48.37    526.00     22.93
 48.47    538.00     23.19
 48.57    562.53     23.72
 48.67    540.00     23.24
 48.77    509.07     22.56
 48.87    544.00     23.32
 48.97    527.40     22.97
 49.07    529.00     23.00
 49.17    570.67     23.89
 49.27    556.06     23.58
 49.37    576.00     24.00
 49.47    564.74     23.76
 49.57    678.00     26.04
 49.67    745.86     27.31
 49.77    980.00     31.30
 49.87   1209.00     34.77
 49.97   1452.00     38.11
 50.07   1889.09     43.46
 50.17   2248.17     47.41
 50.27   2363.00     48.61
 50.37   2279.00     47.74
 50.47   2082.00     45.63
 50.57   1628.00     40.35
 50.67   1273.73     35.69
 50.77   1022.00     31.97
 50.87    832.90     28.86
 50.97    716.82     26.77
 51.07    616.08     24.82
 51.17    656.00     25.61
 51.27    612.77     24.75
 51.37    612.00     24.74
 51.47    582.07     24.13
 51.57    575.00     23.98
 51.67    591.77     24.33
 51.77    545.00     23.35
 51.87    579.63     24.08
 51.97    564.00     23.75
 52.07    556.17     23.58
 52.17    548.00     23.41
 52.27    582.00     24.12
 52.37    533.00     23.09
 52.47    582.00     24.12
 52.57    611.00     24.72
 52.67    586.00     24.21
 52.77    556.61     23.59
 52.87    561.66     23.70
 52.97    657.00     25.63
 53.07    725.00     26.93
 53.17    823.00     28.69
 53.27    929.00     30.48
 53.37   1000.00     31.62
 53.47   1088.84     33.00
 53.57   1192.00     34.53
 53.67   1119.84     33.46
 53.77   1100.00     33.17
 53.87   1017.00     31.89
 53.97    871.00     29.51
 54.07    740.57     27.21
 54.17    675.40     25.99
 54.27    618.00     24.86
 54.37    598.00     24.45
 54.47    592.99     24.35
 54.57    582.00     24.12
 54.67    571.00     23.90
 54.77    506.00     22.49
 54.87    590.07     24.29
 54.97    550.11     23.45
 55.07    559.00     23.64
 55.17    616.00     24.82
 55.27    556.00     23.58
 55.37    570.75     23.89
 55.47    555.00     23.56
 55.57    581.21     24.11
 55.67    583.00     24.15
 55.77    583.00     24.15
 55.87    626.00     25.02
 55.97    654.66     25.59
 56.07    617.00     24.84
 56.17    731.00     27.04
 56.27    916.24     30.27
 56.37   1000.00     31.62
 56.47   1318.10     36.31
 56.57   1578.46     39.73
 56.67   1869.00     43.23
 56.77   2141.79     46.28
 56.87   2516.77     50.17
 56.97   2532.00     50.32
 57.07   2489.32     49.89
 57.17   2329.00     48.26
 57.27   1980.00     44.50
 57.37   1607.00     40.09
 57.47   1314.39     36.25
 57.57   1085.00     32.94
 57.67    888.49     29.81
 57.77    749.00     27.37
 57.87    739.00     27.18
 57.97    720.00     26.83
 58.07    696.00     26.38
 58.17    722.00     26.87
 58.27    763.00     27.62
 58.37    757.00     27.51
 58.47    811.00     28.48
 58.57    904.00     30.07
 58.67    957.61     30.95
 58.77   1020.60     31.95
 58.87   1172.00     34.23
 58.97   1236.72     35.17
 59.07   1325.00     36.40
 59.17   1403.00     37.46
 59.27   1329.00     36.46
 59.37   1306.00     36.14
 59.47   1166.09     34.15
 59.57   1242.00     35.24
 59.67   1159.53     34.05
 59.77   1230.00     35.07
 59.87   1230.49     35.08
 59.97   1349.00     36.73
 60.07   1360.00     36.88
 60.17   1429.00     37.80
 60.27   1481.00     38.48
 60.37   1575.00     39.69
 60.47   1518.00     38.96
 60.57   1369.00     37.00
 60.67   1233.29     35.12
 60.77   1099.00     33.15
 60.87    894.00     29.90
 60.97    831.52     28.84
 61.07    741.00     27.22
 61.17    708.00     26.61
 61.27    726.00     26.94
 61.37    654.00     25.57
 61.47    671.00     25.90
 61.57    731.00     27.04
 61.67    779.00     27.91
 61.77    910.00     30.17
 61.87   1023.00     31.98
 61.97   1093.00     33.06
 62.07   1236.57     35.16
 62.17   1285.90     35.86
 62.27   1312.00     36.22
 62.37   1365.00     36.95
 62.47   1216.00     34.87
 62.57   1131.00     33.63
 62.67    984.00     31.37
 62.77    861.00     29.34
 62.87    769.00     27.73
 62.97    722.00     26.87
 63.07    605.00     24.60
 63.17    635.34     25.21
 63.27    627.65     25.05
 63.37    533.19     23.09
 63.47    557.00     23.60
 63.57    547.00     23.39
 63.67    535.54     23.14
 63.77    613.00     24.76
 63.87    552.55     23.51
 63.97    655.00     25.59
 64.07    657.00     25.63
 64.17    743.00     27.26
 64.27    799.26     28.27
 64.37    814.00     28.53
 64.47    866.57     29.44
 64.57    926.17     30.43
 64.67   1033.00     32.14
 64.77   1034.00     32.16
 64.87   1046.36     32.35
 64.97    919.00     30.32
 65.07    870.00     29.50
 65.17    833.00     28.86
 65.27    782.26     27.97
 65.37    729.00     27.00
 65.47    726.00     26.94
 65.57    624.97     25.00
 65.67    661.00     25.71
 65.77    607.00     24.64
 65.87    587.94     24.25
 65.97    576.00     24.00
 66.07    563.00     23.73
 66.17    582.00     24.12
 66.27    549.00     23.43
 66.37    578.74     24.06
 66.47    549.00     23.43
 66.57    530.00     23.02
 66.67    614.12     24.78
 66.77    610.00     24.70
 66.87    555.00     23.56
 66.97    621.00     24.92
 67.07    633.00     25.16
 67.17    663.00     25.75
 67.27    692.81     26.32
 67.37    774.54     27.83
 67.47    924.13     30.40
 67.57   1084.00     32.92
 67.67   1338.00     36.58
 67.77   1548.00     39.34
 67.87   1741.58     41.73
 67.97   1970.20     44.39
 68.07   2285.00     47.80
 68.17   2324.00     48.21
 68.27   2284.80     47.80
 68.37   2311.00     48.07
 68.47   2073.00     45.53
 68.57   1770.13     42.07
 68.67   1600.23     40.00
 68.77   1364.00     36.93
 68.87   1066.16     32.65
 68.97    947.42     30.78
 69.07    820.00     28.64
 69.17    762.00     27.60
 69.27    657.58     25.64
 69.37    666.00     25.81
 69.47    634.00     25.18
 69.57    601.00     24.52
 69.67    596.00     24.41
 69.77    622.42     24.95
 69.87    569.00     23.85
 69.97    559.00     23.64
 70.07    548.00     23.41
 70.17    580.00     24.08
 70.27    584.00     24.17
 70.37    554.00     23.54
 70.47    599.96     24.49
 70.57    579.06     24.06
 70.67    542.00     23.28
 70.77    606.00     24.62
 70.87    619.64     24.89
 70.97    612.24     24.74
 71.07    667.12     25.83
 71.17    677.00     26.02
 71.27    739.00     27.18
 71.37    850.59     29.16
 71.47    966.00     31.08
 71.57   1007.00     31.73
 71.67   1272.00     35.67
 71.77   1392.26     37.31
 71.87   1599.00     39.99
 71.97   1684.00     41.04
 72.07   1910.91     43.71
 72.17   1816.00     42.61
 72.27   1814.00     42.59
 72.37   1654.08     40.67
 72.47   1684.00     41.04
 72.57   1417.06     37.64
 72.67   1269.00     35.62
 72.77   1126.00     33.56
 72.87    968.00     31.11
 72.97    870.18     29.50
 73.07    812.53     28.50
 73.17    683.00     26.13
 73.27    678.65     26.05
 73.37    669.47     25.87
 73.47    622.99     24.96
 73.57    655.82     25.61
 73.67    611.68     24.73
 73.77    603.00     24.56
 73.87    559.66     23.66
 73.97    559.81     23.66
 74.07    526.00     22.93
 74.17    591.89     24.33
 74.27    584.00     24.17
 74.37    575.00     23.98
 74.47    669.00     25.87
 74.57    541.09     23.26
 74.67    651.00     25.51
 74.77    595.00     24.39
 74.87    616.00     24.82
 74.97    666.00     25.81
 75.07    600.00     24.49
 75.17    560.40     23.67
 75.27    502.71     22.42
 75.37    527.54     22.97
 75.47    507.37     22.52
 75.57    521.00     22.83
 75.67    520.63     22.82
 75.77    560.00     23.66
 75.87    598.73     24.47
 75.97    604.00     24.58
 76.07    564.01     23.75
 76.17    653.55     25.56
 76.27    660.00     25.69
 76.37    613.00     24.76
 76.47    662.00     25.73
 76.57    675.43     25.99
 76.67    658.00     25.65
 76.77    695.55     26.37
 76.87    708.26     26.61
 76.97    674.00     25.96
 77.07    646.00     25.42
 77.17    621.00     24.92
 77.27    632.00     25.14
 77.37    580.65     24.10
 77.47    575.00     23.98
 77.57    523.43     22.88
 77.67    555.00     23.56
 77.77    559.00     23.64
 77.87    524.00     22.89
 77.97    511.87     22.62
 78.07    463.00     21.52
 78.17    485.00     22.02
 78.27    498.00     22.32
 78.37    508.00     22.54
 78.47    554.19     23.54
 78.57    503.00     22.43
 78.67    495.00     22.25
 78.77    522.85     22.87
 78.87    496.00     22.27
 78.97    498.00     22.32
 79.07    502.00     22.41
 79.17    467.00     21.61
 79.27    481.00     21.93
 79.37    550.73     23.47
 79.47    500.00     22.36
 79.57    499.68     22.35
 79.67    519.00     22.78
 79.77    494.00     22.23
 79.87    513.00     22.65
 79.97    556.11     23.58
 80.07    519.00     22.78
 80.17    513.65     22.66
 80.27    572.62     23.93
 80.37    552.00     23.49
 80.47    603.84     24.57
 80.57    550.00     23.45
 80.67    592.31     24.34
 80.77    586.00     24.21
 80.87    613.00     24.76
 80.97    696.00     26.38
 81.07    694.00     26.34
 81.17    698.00     26.42
 81.27    692.00     26.31
 81.37    752.00     27.42
 81.47    699.56     26.45
 81.57    746.42     27.32
 81.67    748.00     27.35
 81.77    753.00     27.44
 81.87    692.00     26.31
 81.97    710.82     26.66
 82.07    688.41     26.24
 82.17    681.00     26.10
 82.27    679.00     26.06
 82.37    647.00     25.44
 82.47    626.50     25.03
 82.57    555.00     23.56
 82.67    575.77     24.00
 82.77    600.29     24.50
 82.87    539.00     23.22
 82.97    549.00     23.43
 83.07    586.52     24.22
 83.17    569.00     23.85
 83.27    542.82     23.30
 83.37    493.00     22.20
 83.47    517.65     22.75
 83.57    490.00     22.14
 83.67    524.40     22.90
 83.77    545.00     23.35
 83.87    589.93     24.29
 83.97    587.96     24.25
 84.07    521.00     22.83
 84.17    529.00     23.00
 84.27    554.00     23.54
 84.37    554.00     23.54
 84.47    595.00     24.39
 84.57    534.32     23.12
 84.67    539.00     23.22
 84.77    546.00     23.37
 84.87    486.00     22.05
 84.97    534.00     23.11
 85.07    532.00     23.07
 85.17    526.00     22.93
 85.27    474.38     21.78
 85.37    496.71     22.29
 85.47    535.00     23.13
 85.57    540.51     23.25
 85.67    541.63     23.27
 85.77    519.00     22.78
 85.87    505.00     22.47
 85.97    486.00     22.05
 86.07    515.00     22.69
 86.17    501.41     22.39
 86.27    484.00     22.00
 86.37    513.05     22.65
 86.47    492.00     22.18
 86.57    487.88     22.09
 86.67    520.00     22.80
 86.77    559.00     23.64
 86.87    538.68     23.21
 86.97    575.46     23.99
 87.07    537.74     23.19
 87.17    602.00     24.54
 87.27    636.75     25.23
 87.37    576.00     24.00
 87.47    640.00     25.30
 87.57    619.00     24.88
 87.67    635.00     25.20
 87.77    621.00     24.92
 87.87    646.21     25.42
 87.97    578.15     24.04
 88.07    617.00     24.84
 88.17    613.38     24.77
 88.27    639.00     25.28
 88.37    555.00     23.56
 88.47    596.00     24.41
 88.57    568.00     23.83
 88.67    530.55     23.03
 88.77    615.00     24.80
 88.87    598.00     24.45
 88.97    537.00     23.17
 89.07    543.00     23.30
 89.17    572.95     23.94
 89.27    601.00     24.52
 89.37    614.00     24.78
 89.47    620.00     24.90
 89.57    573.50     23.95
 89.67    618.00     24.86
 89.77    602.79     24.55
 89.87    531.96     23.06
 89.97    552.00     23.49
 90.07    553.00     23.52
 90.17    547.00     23.39
 90.27    535.00     23.13
 90.37    534.43     23.12
 90.47    480.00     21.91
 90.57    525.00     22.91
 90.67    479.00     21.89
 90.77    509.00     22.56
 90.87    472.00     21.73
 90.97    480.00     21.91
 91.07    502.00     22.41
 91.17    499.12     22.34
 91.27    522.00     22.85
 91.37    495.91     22.27
 91.47    529.87     23.02
 91.57    510.00     22.58
 91.67    490.00     22.14
 91.77    489.00     22.11
 91.87    527.00     22.96
 91.97    479.00     21.89
 92.07    522.31     22.85
 92.17    498.00     22.32
 92.27    547.36     23.40
 92.37    571.00     23.90
 92.47    517.00     22.74
 92.57    605.00     24.60
 92.67    606.00     24.62
 92.77    600.00     24.49
 92.87    690.00     26.27
 92.97    649.00     25.48
 93.07    672.00     25.92
 93.17    726.00     26.94
 93.27    677.69     26.03
 93.37    767.00     27.69
 93.47    746.60     27.32
 93.57    752.00     27.42
 93.67    716.00     26.76
 93.77    798.00     28.25
 93.87    827.18     28.76
 93.97    799.00     28.27
 94.07    871.00     29.51
 94.17    851.00     29.17
 94.27    879.57     29.66
 94.37    862.00     29.36
 94.47    865.00     29.41
 94.57    900.02     30.00
 94.67    945.00     30.74
 94.77    897.00     29.95
 94.87    942.00     30.69
 94.97    952.00     30.85
 95.07    811.85     28.49
 95.17    883.64     29.73
 95.27    892.00     29.87
 95.37    896.00     29.93
 95.47    832.00     28.84
 95.57    774.00     27.82
 95.67    721.00     26.85
 95.77    682.38     26.12
 95.87    719.67     26.83
 95.97    722.00     26.87
 96.07    730.04     27.02
 96.17    668.56     25.86
 96.27    706.00     26.57
 96.37    711.00     26.66
 96.47    779.00     27.91
 96.57    804.00     28.35
 96.67    784.53     28.01
 96.77    928.70     30.47
 96.87    930.00     30.50
 96.97   1059.19     32.55
 97.07   1047.00     32.36
 97.17   1103.00     33.21
 97.27   1237.57     35.18
 97.37   1316.00     36.28
 97.47   1395.00     37.35
 97.57   1350.00     36.74
 97.67   1407.00     37.51
 97.77   1384.33     37.21
 97.87   1354.38     36.80
 97.97   1344.00     36.66
 98.07   1332.26     36.50
 98.17   1263.00     35.54
 98.27   1285.00     35.85
 98.37   1167.00     34.16
 98.47   1093.00     33.06
 98.57    974.00     31.21
 98.67   1040.02     32.25
 98.77    941.50     30.68
 98.87    909.00     30.15
 98.97    856.00     29.26
 99.07    841.00     29.00
 99.17    860.00     29.33
 99.27    843.47     29.04
 99.37    918.00     30.30
 99.47    947.00     30.77
 99.57   1014.00     31.84
 99.67   1053.00     32.45
 99.77   1103.00     33.21
 99.87   1172.43     34.24
 99.97   1278.29     35.75
100.07   1465.54     38.28
100.17   1577.70     39.72
100.27   1627.00     40.34
100.37   1797.00     42.39
100.47   1759.85     41.95
100.57   1908.18     43.68
100.67   1918.00     43.79
100.77   1977.00     44.46
100.87   2030.00     45.06
100.97   1979.00     44.49
101.07   2017.00     44.91
101.17   1868.20     43.22
101.27   1833.00     42.81
101.37   1843.00     42.93
101.47   1730.00     41.59
101.57   1666.00     40.82
101.67   1541.00     39.26
101.77   1572.00     39.65
101.87   1506.58     38.81
101.97   1451.00     38.09
102.07   1342.00     36.63
102.17   1271.00     35.65
102.27   1225.00     35.00
102.37   1291.00     35.93
102.47   1239.94     35.21
102.57   1212.40     34.82
102.67   1178.72     34.33
102.77   1143.00     33.81
102.87   1058.80     32.54
102.97   1073.08     32.76
103.07   1017.01     31.89
103.17    984.91     31.38
103.27    926.00     30.43
103.37    929.00     30.48
103.47    853.00     29.21
103.57    784.98     28.02
103.67    795.00     28.20
103.77    745.54     27.30
103.87    715.00     26.74
103.97    725.37     26.93
104.07    624.79     25.00
104.17    624.38     24.99
104.27    637.00     25.24
104.37    626.97     25.04
104.47    522.58     22.86
104.57    517.99     22.76
104.67    533.75     23.10
104.77    572.62     23.93
104.87    557.10     23.60
104.97    502.06     22.41
105.07    513.00     22.65
105.17    506.95     22.52
105.27    613.00     24.76
105.37    478.00     21.86
105.47    486.07     22.05
105.57    507.00     22.52
105.67    557.00     23.60
105.77    481.13     21.93
105.87    560.00     23.66
105.97    555.00     23.56
106.07    539.00     23.22
106.17    539.00     23.22
106.27    555.36     23.57
106.37    534.00     23.11
106.47    557.78     23.62
106.57    565.00     23.77
106.67    586.48     24.22
106.77    606.20     24.62
106.87    610.00     24.70
106.97    660.19     25.69
107.07    655.00     25.59
107.17    684.55     26.16
107.27    631.65     25.13
107.37    649.28     25.48
107.47    708.68     26.62
107.57    689.00     26.25
107.67    676.00     26.00
107.77    688.00     26.23
107.87    647.68     25.45
107.97    645.00     25.40
108.07    648.00     25.46
108.17    639.00     25.28
108.27    698.00     26.42
108.37    703.00     26.51
108.47    689.00     26.25
108.57    648.00     25.46
108.67    694.00     26.34
108.77    689.00     26.25
108.87    664.00     25.77
108.97    661.00     25.71
109.07    704.47     26.54
109.17    676.00     26.00
109.27    729.00     27.00
109.37    658.23     25.66
109.47    658.00     25.65
109.57    635.30     25.21
109.67    643.00     25.36
109.77    679.00     26.06
109.87    596.22     24.42
109.97    591.00     24.31
110.07    589.00     24.27
110.17    618.00     24.86
110.27    619.00     24.88
110.37    556.00     23.58
110.47    620.00     24.90
110.57    592.00     24.33
110.67    562.00     23.71
110.77    528.00     22.98
110.87    578.86     24.06
110.97    552.07     23.50
111.07    495.00     22.25
111.17    575.00     23.98
111.27    512.00     22.63
111.37    530.37     23.03
111.47    561.00     23.69
111.57    565.12     23.77
111.67    518.26     22.77
111.77    522.00     22.85
111.87    534.11     23.11
111.97    516.00     22.72
112.07    568.98     23.85
112.17    534.31     23.12
112.27    575.49     23.99
112.37    553.00     23.52
112.47    576.00     24.00
112.57    555.00     23.56
112.67    566.10     23.79
112.77    627.23     25.04
112.87    621.99     24.94
112.97    539.00     23.22
113.07    597.00     24.43
113.17    606.85     24.63
113.27    594.00     24.37
113.37    609.00     24.68
113.47    599.00     24.47
113.57    648.68     25.47
113.67    677.00     26.02
113.77    649.00     25.48
113.87    697.07     26.40
113.97    759.00     27.55
114.07    723.00     26.89
114.17    844.88     29.07
114.27    878.24     29.64
114.37    863.00     29.38
114.47    988.31     31.44
114.57   1047.00     32.36
114.67   1188.50     34.47
114.77   1321.89     36.36
114.87   1416.00     37.63
114.97   1598.06     39.98
115.07   1840.00     42.90
115.17   1990.00     44.61
115.27   2144.75     46.31
115.37   2536.00     50.36
115.47   2770.00     52.63
115.57   3002.46     54.79
115.67   3485.09     59.03
115.77   3661.25     60.51
115.87   4042.31     63.58
115.97   4461.00     66.79
116.07   4775.13     69.10
116.17   5212.00     72.19
116.27   5468.00     73.95
116.37   5990.00     77.40
116.47   6181.00     78.62
116.57   6526.00     80.78
116.67   6630.00     81.42
116.77   6692.00     81.80
116.87   6752.57     82.17
116.97   6980.53     83.55
117.07   6687.26     81.78
117.17   6598.00     81.23
117.27   6567.10     81.04
117.37   6152.00     78.43
117.47   5918.05     76.93
117.57   5423.00     73.64
117.67   5176.28     71.95
117.77   4763.00     69.01
117.87   4541.00     67.39
117.97   4108.00     64.09
118.07   3848.00     62.03
118.17   3488.00     59.06
118.27   3169.33     56.30
118.37   2788.00     52.80
118.47   2388.88     48.88
118.57   2249.00     47.42
118.67   1962.33     44.30
118.77   1735.00     41.65
118.87   1589.00     39.86
118.97   1454.00     38.13
119.07   1294.00     35.97
119.17   1155.00     33.99
119.27   1123.00     33.51
119.37   1013.62     31.84
119.47    886.37     29.77
119.57    869.47     29.49
119.67    824.00     28.71
119.77    754.00     27.46
119.87    759.00     27.55
119.97    676.00     26.00
120.07    713.78     26.72
120.17    646.00     25.42
120.27    658.00     25.65
120.37    616.00     24.82
120.47    654.07     25.57
120.57    631.00     25.12
120.67    575.00     23.98
120.77    607.35     24.64
120.87    565.00     23.77
120.97    565.00     23.77
121.07    572.00     23.92
121.17    563.00     23.73
121.27    601.31     24.52
121.37    619.58     24.89
121.47    542.00     23.28
121.57    536.23     23.16
121.67    593.00     24.35
121.77    568.00     23.83
121.87    548.85     23.43
121.97    561.10     23.69
122.07    635.00     25.20
122.17    578.00     24.04
122.27    616.00     24.82
122.37    598.90     24.47
122.47    655.00     25.59
122.57    589.00     24.27
122.67    642.00     25.34
122.77    595.19     24.40
122.87    639.00     25.28
122.97    667.00     25.83
123.07    622.35     24.95
123.17    602.00     24.54
123.27    636.30     25.23
123.37    657.00     25.63
123.47    664.00     25.77
123.57    657.00     25.63
123.67    607.00     24.64
123.77    627.00     25.04
123.87    650.93     25.51
123.97    664.00     25.77
124.07    625.46     25.01
124.17    632.00     25.14
124.27    600.00     24.49
124.37    603.00     24.56
124.47    580.38     24.09
124.57    577.00     24.02
124.67    602.88     24.55
124.77    561.00     23.69
124.87    595.00     24.39
124.97    536.49     23.16
