XYDATA



INTER 1.0 1.0 0 0
TEMP 661.566
  9.97    704.00     26.53
 10.07    710.00     26.65
 10.17    691.00     26.29
 10.27    627.95     25.06
 10.37    738.00     27.17
 10.47    681.95     26.11
 10.57    623.53     24.97
 10.67    639.64     25.29
 10.77    692.61     26.32
 10.87    721.00     26.85
 10.97    697.00     26.40
 11.07    689.66     26.26
 11.17    615.04     24.80
 11.27    682.00     26.12
 11.37    633.00     25.16
 11.47    657.00     25.63
 11.57    681.09     26.10
 11.67    687.00     26.21
 11.77    703.53     26.52
 11.87    763.00     27.62
 11.97    717.83     26.79
 12.07    694.93     26.36
 12.17    796.00     28.21
 12.27    818.00     28.60
 12.37    778.00     27.89
 12.47    772.00     27.78
 12.57    681.00     26.10
 12.67    735.48     27.12
 12.77    665.00     25.79
 12.87    627.00     25.04
 12.97    629.00     25.08
 13.07    655.00     25.59
 13.17    680.44     26.09
 13.27    629.00     25.08
 13.37    617.00     24.84
 13.47    629.50     25.09
 13.57    644.00     25.38
 13.67    640.00     25.30
 13.77    598.41     24.46
 13.87    594.00     24.37
 13.97    642.00     25.34
 14.07    615.00     24.80
 14.17    616.00     24.82
 14.27    680.35     26.08
 14.37    617.82     24.86
 14.47    653.00     25.55
 14.57    635.92     25.22
 14.67    634.00     25.18
 14.77    616.00     24.82
 14.87    619.00     24.88
 14.97    605.00     24.60
 15.07    613.47     24.77
 15.17    654.00     25.57
 15.27    596.20     24.42
 15.37    610.00     24.70
 15.47    590.00     24.29
 15.57    606.00     24.62
 15.67    614.81     24.80
 15.77    611.00     24.72
 15.87    636.00     25.22
 15.97    622.00     24.94
 16.07    577.00     24.02
 16.17    600.29     24.50
 16.27    623.00     24.96
 16.37    620.00     24.90
 16.47    636.21     25.22
 16.57    634.00     25.18
 16.67    588.31     24.26
 16.77    623.17     24.96
 16.87    628.00     25.06
 16.97    656.76     25.63
 17.07    581.00     24.10
 17.17    617.00     24.84
 17.27    596.00     24.41
 17.37    627.66     25.05
 17.47    642.45     25.35
 17.57    577.00     24.02
 17.67    600.94     24.51
 17.77    587.00     24.23
 17.87    601.00     24.52
 17.97    609.00     24.68
 18.07    626.52     25.03
 18.17    630.00     25.10
 18.27    627.86     25.06
 18.37    607.61     24.65
 18.47    652.00     25.53
 18.57    595.00     24.39
 18.67    586.00     24.21
 18.77    622.00     24.94
 18.87    609.80     24.69
 18.97    632.00     25.14
 19.07    594.00     24.37
 19.17    599.00     24.47
 19.27    603.00     24.56
 19.37    605.00     24.60
 19.47    598.30     24.46
 19.57    647.00     25.44
 19.67    650.86     25.51
 19.77    596.05     24.41
 19.87    589.00     24.27
 19.97    625.00     25.00
 20.07    569.36     23.86
 20.17    593.00     24.35
 20.27    567.00     23.81
 20.37    601.65     24.53
 20.47    608.00     24.66
 20.57    600.00     24.49
 20.67    617.00     24.84
 20.77    597.31     24.44
 20.87    594.00     24.37
 20.97    585.41     24.20
 21.07    654.30     25.58
 21.17    574.00     23.96
 21.27    597.00     24.43
 21.37    581.00     24.10
 21.47    632.83     25.16
 21.57    566.00     23.79
 21.67    613.81     24.78
 21.77    604.24     24.58
 21.87    582.00     24.12
 21.97    606.02     24.62
 22.07    608.00     24.66
 22.17    595.00     24.39
 22.27    564.44     23.76
 22.37    612.00     24.74
 22.47    634.00     25.18
 22.57    620.64     24.91
 22.67    583.00     24.15
 22.77    606.00     24.62
 22.87    632.96     25.16
 22.97    605.00     24.60
 23.07    594.00     24.37
 23.17    632.00     25.14
 23.27    594.00     24.37
 23.37    548.58     23.42
 23.47    648.59     25.47
 23.57    605.00     24.60
 23.67    621.72     24.93
 23.77    595.00     24.39
 23.87    623.00     24.96
 23.97    644.70     25.39
 24.07    650.00     25.50
 24.17    634.33     25.19
 24.27    619.00     24.88
 24.37    587.21     24.23
 24.47    663.19     25.75
 24.57    681.00     26.10
 24.67    581.73     24.12
 24.77    657.59     25.64
 24.87    721.00     26.85
 24.97    705.00     26.55
 25.07    685.00     26.17
 25.17    617.64     24.85
 25.27    641.00     25.32
 25.37    640.62     25.31
 25.47    620.23     24.90
 25.57    616.00     24.82
 25.67    643.00     25.36
 25.77    562.34     23.71
 25.87    610.00     24.70
 25.97    643.00     25.36
 26.07    574.70     23.97
 26.17    559.09     23.64
 26.27    634.00     25.18
 26.37    616.00     24.82
 26.47    671.00     25.90
 26.57    630.00     25.10
 26.67    673.00     25.94
 26.77    665.61     25.80
 26.87    622.05     24.94
 26.97    653.00     25.55
 27.07    597.29     24.44
 27.17    660.00     25.69
 27.27    655.00     25.59
 27.37    724.00     26.91
 27.47    703.00     26.51
 27.57    669.70     25.88
 27.67    689.57     26.26
 27.77    828.98     28.79
 27.87    863.00     29.38
 27.97   1162.00     34.09
 28.07   1677.00     40.95
 28.17   2544.00     50.44
 28.27   3631.20     60.26
 28.37   4484.39     66.97
 28.47   4383.00     66.20
 28.57   3694.00     60.78
 28.67   2648.00     51.46
 28.77   2116.00     46.00
 28.87   2234.09     47.27
 28.97   2418.66     49.18
 29.07   2616.00     51.15
 29.17   2572.91     50.72
 29.27   2232.00     47.24
 29.37   1685.00     41.05
 29.47   1222.00     34.96
 29.57   1029.00     32.08
 29.67    824.00     28.71
 29.77    782.00     27.96
 29.87    775.00     27.84
 29.97    769.00     27.73
 30.07    762.00     27.60
 30.17    698.00     26.42
 30.27    698.00     26.42
 30.37    583.56     24.16
 30.47    682.00     26.12
 30.57    688.00     26.23
 30.67    652.05     25.54
 30.77    710.00     26.65
 30.87    668.43     25.85
 30.97    693.00     26.32
 31.07    736.00     27.13
 31.17    718.00     26.80
 31.27    713.00     26.70
 31.37    688.00     26.23
 31.47    682.00     26.12
 31.57    625.98     25.02
 31.67    634.00     25.18
 31.77    583.00     24.15
 31.87    614.00     24.78
 31.97    570.00     23.87
 32.07    606.00     24.62
 32.17    617.49     24.85
 32.27    600.00     24.49
 32.37    589.13     24.27
 32.47    595.00     24.39
 32.57    566.00     23.79
 32.67    592.89     24.35
 32.77    585.00     24.19
 32.87    604.50     24.59
 32.97    576.00     24.00
 33.07    627.00     25.04
 33.17    608.00     24.66
 33.27    607.00     24.64
 33.37    571.21     23.90
 33.47    616.00     24.82
 33.57    575.11     23.98
 33.67    657.60     25.64
 33.77    670.00     25.88
 33.87    711.00     26.66
 33.97    828.79     28.79
 34.07    985.88     31.40
 34.17   1113.00     33.36
 34.27   1109.00     33.30
 34.37   1088.00     32.98
 34.47    946.00     30.76
 34.57    831.00     28.83
 34.67    728.00     26.98
 34.77    612.00     24.74
 34.87    631.00     25.12
 34.97    608.76     24.67
 35.07    583.00     24.15
 35.17    617.00     24.84
 35.27    617.95     24.86
 35.37    591.00     24.31
 35.47    518.00     22.76
 35.57    591.83     24.33
 35.67    572.72     23.93
 35.77    567.00     23.81
 35.87    524.00     22.89
 35.97    578.00     24.04
 36.07    606.00     24.62
 36.17    536.00     23.15
 36.27    537.23     23.18
 36.37    544.00     23.32
 36.47    531.00     23.04
 36.57    538.00     23.19
 36.67    505.00     22.47
 36.77    587.00     24.23
 36.87    566.61     23.80
 36.97    564.00     23.75
 37.07    539.00     23.22
 37.17    606.42     24.63
 37.27    534.00     23.11
 37.37    524.00     22.89
 37.47    539.00     23.22
 37.57    573.33     23.94
 37.67    561.00     23.69
 37.77    551.00     23.47
 37.87    642.00     25.34
 37.97    621.00     24.92
 38.07    667.00     25.83
 38.17    627.60     25.05
 38.27    649.37     25.48
 38.37    642.84     25.35
 38.47    617.16     24.84
 38.57    636.00     25.22
 38.67    614.00     24.78
 38.77    616.07     24.82
 38.87    595.46     24.40
 38.97    582.00     24.12
 39.07    570.00     23.87
 39.17    626.00     25.02
 39.27    521.00     22.83
 39.37    527.00     22.96
 39.47    571.00     23.90
 39.57    573.00     23.94
 39.67    531.00     23.04
 39.77    518.00     22.76
 39.87    543.41     23.31
 39.97    543.00     23.30
 40.07    593.24     24.36
 40.17    538.00     23.19
 40.27    569.22     23.86
 40.37    550.00     23.45
 40.47    526.70     22.95
 40.57    555.00     23.56
 40.67    557.00     23.60
 40.77    522.00     22.85
 40.87    542.83     23.30
 40.97    551.00     23.47
 41.07    574.81     23.98
 41.17    553.23     23.52
 41.27    590.23     24.29
 41.37    504.63     22.46
 41.47    562.00     23.71
 41.57    556.00     23.58
 41.67    517.00     22.74
 41.77    561.85     23.70
 41.87    526.74     22.95
 41.97    587.33     24.23
 42.07    587.00     24.23
 42.17    541.00     23.26
 42.27    536.00     23.15
 42.37    574.00     23.96
 42.47    540.00     23.24
 42.57    552.00     23.49
 42.67    624.00     24.98
 42.77    633.00     25.16
 42.87    621.00     24.92
 42.97    686.72     26.21
 43.07    607.00     24.64
 43.17    648.00     25.46
 43.27    590.21     24.29
 43.37    617.00     24.84
 43.47    551.96     23.49
 43.57    595.00     24.39
 43.67    558.00     23.62
 43.77    588.18     24.25
 43.87    581.47     24.11
 43.97    517.00     22.74
 44.07    597.64     24.45
 44.17    556.82     23.60
 44.27    516.59     22.73
 44.37    534.00     23.11
 44.47    507.61     22.53
 44.57    525.00     22.91
 44.67    568.00     23.83
 44.77    548.00     23.41
 44.87    531.00     23.04
 44.97    531.00     23.04
 45.07    542.05     23.28
 45.17    564.00     23.75
 45.27    588.00     24.25
 45.37    542.00     23.28
 45.47    569.00     23.85
 45.57    605.00     24.60
 45.67    525.00     22.91
 45.77    544.00     23.32
 45.87    561.58     23.70
 45.97    529.00     23.00
 46.07    551.84     23.49
 46.17    571.00     23.90
 46.27    506.39     22.50
 46.37    530.95     23.04
 46.47    527.00     22.96
 46.57    559.27     23.65
 46.67    546.00     23.37
 46.77    581.00     24.10
 46.87    521.00     22.83
 46.97    545.00     23.35
 47.07    575.96     24.00
 47.17    553.00     23.52
 47.27    536.00     23.15
 47.37    570.00     23.87
 47.47    542.67     23.30
 47.57    583.07     24.15
 47.67    648.00     25.46
 47.77    561.00     23.69
 47.87    551.00     23.47
 47.97    644.00     25.38
 48.07    656.19     25.62
 48.17    663.56     25.76
 48.27    663.00     25.75
 48.37    699.00     26.44
 48.47    657.14     25.63
 48.57    579.65     24.08
 48.67    605.00     24.60
 48.77    641.73     25.33
 48.87    582.00     24.12
 48.97    559.00     23.64
 49.07    631.00     25.12
 49.17    551.86     23.49
 49.27    592.77     24.35
 49.37    586.35     24.21
 49.47    620.00     24.90
 49.57    630.00     25.10
 49.67    671.43     25.91
 49.77    791.77     28.14
 49.87    869.71     29.49
 49.97   1141.00     33.78
 50.07   1449.62     38.07
 50.17   1739.00     41.70
 50.27   2268.05     47.62
 50.37   2492.00     49.92
 50.47   2700.89     51.97
 50.57   2721.49     52.17
 50.67   2354.00     48.52
 50.77   1974.00     44.43
 50.87   1504.00     38.78
 50.97   1185.28     34.43
 51.07   1052.10     32.44
 51.17    786.09     28.04
 51.27    707.15     26.59
 51.37    695.18     26.37
 51.47    667.31     25.83
 51.57    676.00     26.00
 51.67    618.00     24.86
 51.77    648.00     25.46
 51.87    605.00     24.60
 51.97    657.72     25.65
 52.07    606.00     24.62
 52.17    604.00     24.58
 52.27    626.00     25.02
 52.37    656.00     25.61
 52.47    632.76     25.15
 52.57    676.00     26.00
 52.67    630.00     25.10
 52.77    631.00     25.12
 52.87    649.00     25.48
 52.97    623.00     24.96
 53.07    618.52     24.87
 53.17    713.84     26.72
 53.27    796.00     28.21
 53.37    873.00     29.55
 53.47    984.00     31.37
 53.57   1031.00     32.11
 53.67   1132.00     33.65
 53.77   1229.00     35.06
 53.87   1195.00     34.57
 53.97   1169.00     34.19
 54.07   1112.00     33.35
 54.17   1039.49     32.24
 54.27    922.00     30.36
 54.37    889.57     29.83
 54.47    780.82     27.94
 54.57    698.10     26.42
 54.67    656.00     25.61
 54.77    625.00     25.00
 54.87    647.00     25.44
 54.97    583.86     24.16
 55.07    593.00     24.35
 55.17    619.63     24.89
 55.27    644.00     25.38
 55.37    636.29     25.22
 55.47    644.16     25.38
 55.57    598.00     24.45
 55.67    581.05     24.11
 55.77    643.00     25.36
 55.87    624.80     25.00
 55.97    700.00     26.46
 56.07    694.03     26.34
 56.17    701.00     26.48
 56.27    684.00     26.15
 56.37    749.40     27.38
 56.47    839.00     28.97
 56.57   1047.00     32.36
 56.67   1326.54     36.42
 56.77   1485.00     38.54
 56.87   1893.00     43.51
 56.97   2136.51     46.22
 57.07   2397.00     48.96
 57.17   2654.78     51.52
 57.27   2694.00     51.90
 57.37   2418.00     49.17
 57.47   2122.00     46.07
 57.57   1794.00     42.36
 57.67   1482.00     38.50
 57.77   1343.03     36.65
 57.87   1022.00     31.97
 57.97    881.10     29.68
 58.07    853.00     29.21
 58.17    793.02     28.16
 58.27    743.00     27.26
 58.37    801.24     28.31
 58.47    809.00     28.44
 58.57    791.97     28.14
 58.67    830.00     28.81
 58.77    925.00     30.41
 58.87   1051.00     32.42
 58.97   1061.47     32.58
 59.07   1222.00     34.96
 59.17   1260.00     35.50
 59.27   1237.82     35.18
 59.37   1266.00     35.58
 59.47   1258.42     35.47
 59.57   1288.00     35.89
 59.67   1205.00     34.71
 59.77   1241.00     35.23
 59.87   1098.71     33.15
 59.97   1118.00     33.44
 60.07   1261.00     35.51
 60.17   1316.00     36.28
 60.27   1268.39     35.61
 60.37   1474.00     38.39
 60.47   1438.02     37.92
 60.57   1576.00     39.70
 60.67   1612.46     40.16
 60.77   1551.00     39.38
 60.87   1396.00     37.36
 60.97   1243.00     35.26
 61.07   1074.00     32.77
 61.17    958.00     30.95
 61.27    882.00     29.70
 61.37    800.96     28.30
 61.47    786.88     28.05
 61.57    788.00     28.07
 61.67    741.00     27.22
 61.77    834.12     28.88
 61.87    882.00     29.70
 61.97    897.68     29.96
 62.07   1104.09     33.23
 62.17   1144.00     33.82
 62.27   1284.00     35.83
 62.37   1420.35     37.69
 62.47   1560.62     39.50
 62.57   1484.00     38.52
 62.67   1437.00     37.91
 62.77   1316.00     36.28
 62.87   1199.00     34.63
 62.97   1116.00     33.41
 63.07   1006.27     31.72
 63.17    874.74     29.58
 63.27    796.00     28.21
 63.37    726.00     26.94
 63.47    649.00     25.48
 63.57    657.00     25.63
 63.67    655.00     25.59
 63.77    637.00     25.24
 63.87    660.00     25.69
 63.97    704.61     26.54
 64.07    674.89     25.98
 64.17    733.19     27.08
 64.27    679.18     26.06
 64.37    841.00     29.00
 64.47    881.00     29.68
 64.57    917.00     30.28
 64.67   1011.00     31.80
 64.77   1021.44     31.96
 64.87   1217.00     34.89
 64.97   1307.00     36.15
 65.07   1250.36     35.36
 65.17   1205.35     34.72
 65.27   1208.17     34.76
 65.37   1134.84     33.69
 65.47   1129.84     33.61
 65.57    970.00     31.14
 65.67    935.00     30.58
 65.77    837.00     28.93
 65.87    749.00     27.37
 65.97    747.00     27.33
 66.07    714.87     26.74
 66.17    671.92     25.92
 66.27    712.00     26.68
 66.37    689.00     26.25
 66.47    638.00     25.26
 66.57    658.00     25.65
 66.67    625.00     25.00
 66.77    655.41     25.60
 66.87    625.00     25.00
 66.97    631.00     25.12
 67.07    622.00     24.94
 67.17    712.00     26.68
 67.27    738.84     27.18
 67.37    709.00     26.63
 67.47    735.00     27.11
 67.57    862.00     29.36
 67.67    902.00     30.03
 67.77    987.00     31.42
 67.87   1244.40     35.28
 67.97   1420.00     37.68
 68.07   1673.00     40.90
 68.17   1919.00     43.81
 68.27   2057.00     45.35
 68.37   2334.09     48.31
 68.47   2484.00     49.84
 68.57   2430.00     49.30
 68.67   2418.00     49.17
 68.77   2146.00     46.32
 68.87   2072.00     45.52
 68.97   1646.05     40.57
 69.07   1543.88     39.29
 69.17   1235.00     35.14
 69.27   1050.00     32.40
 69.37    950.00     30.82
 69.47    918.00     30.30
 69.57    772.00     27.78
 69.67    694.74     26.36
 69.77    727.00     26.96
 69.87    677.00     26.02
 69.97    691.00     26.29
 70.07    688.04     26.23
 70.17    663.00     25.75
 70.27    598.76     24.47
 70.37    656.00     25.61
 70.47    666.70     25.82
 70.57    632.00     25.14
 70.67    688.52     26.24
 70.77    658.00     25.65
 70.87    686.52     26.20
 70.97    635.00     25.20
 71.07    675.00     25.98
 71.17    682.50     26.12
 71.27    673.60     25.95
 71.37    757.00     27.51
 71.47    782.63     27.98
 71.57    807.00     28.41
 71.67    882.00     29.70
 71.77    964.01     31.05
 71.87   1161.00     34.07
 71.97   1308.00     36.17
 72.07   1492.00     38.63
 72.17   1677.00     40.95
 72.27   1838.12     42.87
 72.37   1806.09     42.50
 72.47   1950.00     44.16
 72.57   1947.00     44.12
 72.67   1812.00     42.57
 72.77   1735.30     41.66
 72.87   1606.00     40.07
 72.97   1471.00     38.35
 73.07   1171.00     34.22
 73.17   1049.92     32.40
 73.27    971.00     31.16
 73.37    856.00     29.26
 73.47    807.00     28.41
 73.57    732.00     27.06
 73.67    708.81     26.62
 73.77    695.00     26.36
 73.87    680.00     26.08
 73.97    649.00     25.48
 74.07    616.00     24.82
 74.17    572.00     23.92
 74.27    592.00     24.33
 74.37    612.00     24.74
 74.47    615.16     24.80
 74.57    633.84     25.18
 74.67    617.00     24.84
 74.77    648.00     25.46
 74.87    651.00     25.51
 74.97    688.00     26.23
 75.07    697.00     26.40
 75.17    699.00     26.44
 75.27    700.00     26.46
 75.37    672.61     25.93
 75.47    682.00     26.12
 75.57    596.52     24.42
 75.67    693.00     26.32
 75.77    621.00     24.92
 75.87    652.00     25.53
 75.97    591.55     24.32
 76.07    663.00     25.75
 76.17    606.44     24.63
 76.27    645.68     25.41
 76.37    692.00     26.31
 76.47    692.00     26.31
 76.57    733.00     27.07
 76.67    818.00     28.60
 76.77    834.83     28.89
 76.87    760.93     27.59
 76.97    855.00     29.24
 77.07    855.00     29.24
 77.17    823.00     28.69
 77.27    789.00     28.09
 77.37    773.49     27.81
 77.47    744.00     27.28
 77.57    709.00     26.63
 77.67    711.00     26.66
 77.77    628.00     25.06
 77.87    650.19     25.50
 77.97    636.18     25.22
 78.07    626.00     25.02
 78.17    515.00     22.69
 78.27    565.00     23.77
 78.37    568.40     23.84
 78.47    590.92     24.31
 78.57    561.81     23.70
 78.67    586.00     24.21
 78.77    543.86     23.32
 78.87    517.00     22.74
 78.97    564.00     23.75
 79.07    599.00     24.47
 79.17    626.00     25.02
 79.27    602.71     24.55
 79.37    528.36     22.99
 79.47    554.00     23.54
 79.57    561.12     23.69
 79.67    572.00     23.92
 79.77    594.00     24.37
 79.87    550.00     23.45
 79.97    549.88     23.45
 80.07    581.00     24.10
 80.17    558.00     23.62
 80.27    639.78     25.29
 80.37    616.00     24.82
 80.47    599.00     24.47
 80.57    639.00     25.28
 80.67    724.00     26.91
 80.77    710.00     26.65
 80.87    761.00     27.59
 80.97    782.00     27.96
 81.07    852.27     29.19
 81.17    857.00     29.27
 81.27    964.21     31.05
 81.37    957.00     30.94
 81.47   1053.90     32.46
 81.57   1030.13     32.10
 81.67   1078.25     32.84
 81.77   1093.00     33.06
 81.87   1028.46     32.07
 81.97   1017.00     31.89
 82.07    950.00     30.82
 82.17    975.00     31.22
 82.27    938.02     30.63
 82.37    822.00     28.67
 82.47    793.00     28.16
 82.57    821.46     28.66
 82.67    728.00     26.98
 82.77    688.00     26.23
 82.87    667.00     25.83
 82.97    648.00     25.46
 83.07    708.76     26.62
 83.17    676.62     26.01
 83.27    605.00     24.60
 83.37    563.00     23.73
 83.47    596.00     24.41
 83.57    661.49     25.72
 83.67    600.39     24.50
 83.77    652.01     25.53
 83.87    569.16     23.86
 83.97    656.52     25.62
 84.07    567.00     23.81
 84.17    600.00     24.49
 84.27    657.19     25.64
 84.37    634.69     25.19
 84.47    614.00     24.78
 84.57    588.00     24.25
 84.67    591.00     24.31
 84.77    610.00     24.70
 84.87    661.63     25.72
 84.97    587.24     24.23
 85.07    582.00     24.12
 85.17    609.00     24.68
 85.27    565.00     23.77
 85.37    595.10     24.39
 85.47    624.13     24.98
 85.57    610.49     24.71
 85.67    587.98     24.25
 85.77    603.65     24.57
 85.87    552.00     23.49
 85.97    588.00     24.25
 86.07    584.22     24.17
 86.17    579.00     24.06
 86.27    567.00     23.81
 86.37    612.00     24.74
 86.47    563.00     23.73
 86.57    560.00     23.66
 86.67    596.00     24.41
 86.77    636.09     25.22
 86.87    614.54     24.79
 86.97    621.00     24.92
 87.07    631.14     25.12
 87.17    589.84     24.29
 87.27    598.00     24.45
 87.37    657.00     25.63
 87.47    632.00     25.14
 87.57    604.51     24.59
 87.67    705.00     26.55
 87.77    708.50     26.62
 87.87    682.00     26.12
 87.97    710.00     26.65
 88.07    710.42     26.65
 88.17    687.42     26.22
 88.27    667.87     25.84
 88.37    621.00     24.92
 88.47    682.00     26.12
 88.57    673.00     25.94
 88.67    639.00     25.28
 88.77    647.00     25.44
 88.87    639.00     25.28
 88.97    613.95     24.78
 89.07    587.99     24.25
 89.17    627.00     25.04
 89.27    589.00     24.27
 89.37    613.89     24.78
 89.47    586.00     24.21
 89.57    615.51     24.81
 89.67    669.00     25.87
 89.77    611.26     24.72
 89.87    626.20     25.02
 89.97    605.96     24.62
 90.07    630.32     25.11
 90.17    651.00     25.51
 90.27    617.48     24.85
 90.37    577.00     24.02
 90.47    603.12     24.56
 90.57    576.57     24.01
 90.67    609.00     24.68
 90.77    543.00     23.30
 90.87    563.00     23.73
 90.97    552.37     23.50
 91.07    589.00     24.27
 91.17    574.00     23.96
 91.27    569.98     23.87
 91.37    548.00     23.41
 91.47    546.00     23.37
 91.57    540.00     23.24
 91.67    577.00     24.02
 91.77    532.00     23.07
 91.87    552.00     23.49
 91.97    572.00     23.92
 92.07    558.00     23.62
 92.17    551.00     23.47
 92.27    551.42     23.48
 92.37    569.21     23.86
 92.47    563.00     23.73
 92.57    628.12     25.06
 92.67    587.00     24.23
 92.77    639.00     25.28
 92.87    594.00     24.37
 92.97    605.00     24.60
 93.07    634.00     25.18
 93.17    640.00     25.30
 93.27    662.00     25.73
 93.37    682.00     26.12
 93.47    697.00     26.40
 93.57    737.00     27.15
 93.67    682.00     26.12
 93.77    803.00     28.34
 93.87    762.00     27.60
 93.97    822.00     28.67
 94.07    766.85     27.69
 94.17    852.00     29.19
 94.27    863.00     29.38
 94.37    913.11     30.22
 94.47    877.00     29.61
 94.57    913.40     30.22
 94.67    957.00     30.94
 94.77    897.00     29.95
 94.87    949.00     30.81
 94.97    917.00     30.28
 95.07    977.00     31.26
 95.17    985.00     31.38
 95.27    960.99     31.00
 95.37    985.00     31.38
 95.47    957.00     30.94
 95.57   1013.00     31.83
 95.67    876.10     29.60
 95.77    999.00     31.61
 95.87    885.64     29.76
 95.97    851.12     29.17
 96.07    793.56     28.17
 96.17    852.00     29.19
 96.27    796.00     28.21
 96.37    810.00     28.46
 96.47    742.64     27.25
 96.57    786.00     28.04
 96.67    746.00     27.31
 96.77    776.00     27.86
 96.87    821.00     28.65
 96.97    875.00     29.58
 97.07    836.00     28.91
 97.17    948.00     30.79
 97.27   1019.00     31.92
 97.37   1021.66     31.96
 97.47   1102.32     33.20
 97.57   1263.00     35.54
 97.67   1230.49     35.08
 97.77   1302.00     36.08
 97.87   1416.00     37.63
 97.97   1490.00     38.60
 98.07   1597.00     39.96
 98.17   1585.00     39.81
 98.27   1460.77     38.22
 98.37   1460.00     38.21
 98.47   1471.66     38.36
 98.57   1410.00     37.55
 98.67   1467.06     38.30
 98.77   1320.00     36.33
 98.87   1268.00     35.61
 98.97   1218.81     34.91
 99.07   1199.33     34.63
 99.17   1047.76     32.37
 99.27   1101.81     33.19
 99.37   1031.32     32.11
 99.47   1020.31     31.94
 99.57   1012.00     31.81
 99.67    885.00     29.75
 99.77    966.00     31.08
 99.87   1045.95     32.34
 99.97   1013.00     31.83
100.07   1078.56     32.84
100.17   1060.63     32.57
100.27   1208.00     34.76
100.37   1337.36     36.57
100.47   1399.38     37.41
100.57   1524.00     39.04
100.67   1560.00     39.50
100.77   1670.00     40.87
100.87   1775.00     42.13
100.97   1764.33     42.00
101.07   1827.00     42.74
101.17   2076.00     45.56
101.27   1985.00     44.55
101.37   1980.00     44.50
101.47   2048.63     45.26
101.57   2035.00     45.11
101.67   2051.00     45.29
101.77   2011.00     44.84
101.87   1898.00     43.57
101.97   1908.00     43.68
102.07   1778.10     42.17
102.17   1665.00     40.80
102.27   1631.00     40.39
102.37   1544.00     39.29
102.47   1468.00     38.31
102.57   1495.13     38.67
102.67   1384.00     37.20
102.77   1352.61     36.78
102.87   1269.00     35.62
102.97   1273.00     35.68
103.07   1239.61     35.21
103.17   1212.00     34.81
103.27   1152.00     33.94
103.37   1135.00     33.69
103.47   1178.26     34.33
103.57   1072.00     32.74
103.67   1082.00     32.89
103.77   1038.12     32.22
103.87    997.57     31.58
103.97   1005.00     31.70
104.07    883.42     29.72
104.17    896.00     29.93
104.27    903.00     30.05
104.37    768.63     27.72
104.47    797.00     28.23
104.57    779.00     27.91
104.67    747.00     27.33
104.77    715.00     26.74
104.87    699.00     26.44
104.97    683.00     26.13
105.07    610.00     24.70
105.17    579.88     24.08
105.27    642.00     25.34
105.37    537.02     23.17
105.47    591.00     24.31
105.57    588.00     24.25
105.67    607.00     24.64
105.77    609.78     24.69
105.87    534.11     23.11
105.97    589.61     24.28
106.07    580.00     24.08
106.17    584.00     24.17
106.27    576.00     24.00
106.37    544.34     23.33
106.47    643.00     25.36
106.57    583.07     24.15
106.67    633.00     25.16
106.77    638.05     25.26
106.87    592.00     24.33
106.97    632.00     25.14
107.07    680.80     26.09
107.17    653.00     25.55
107.27    686.91     26.21
107.37    716.00     26.76
107.47    703.22     26.52
107.57    645.63     25.41
107.67    700.87     26.47
107.77    711.91     26.68
107.87    698.00     26.42
107.97    761.08     27.59
108.07    692.00     26.31
108.17    769.00     27.73
108.27    781.22     27.95
108.37    752.00     27.42
108.47    792.31     28.15
108.57    678.00     26.04
108.67    704.00     26.53
108.77    769.00     27.73
108.87    671.00     25.90
108.97    788.16     28.07
109.07    704.00     26.53
109.17    710.00     26.65
109.27    735.00     27.11
109.37    689.00     26.25
109.47    757.00     27.51
109.57    779.00     27.91
109.67    688.00     26.23
109.77    722.00     26.87
109.87    712.00     26.68
109.97    759.09     27.55
110.07    745.22     27.30
110.17    701.00     26.48
110.27    733.00     27.07
110.37    687.00     26.21
110.47    699.00     26.44
110.57    677.25     26.02
110.67    621.77     24.94
110.77    670.00     25.88
110.87    629.00     25.08
110.97    626.00     25.02
111.07    651.25     25.52
111.17    576.20     24.00
111.27    556.00     23.58
111.37    621.00     24.92
111.47    557.00     23.60
111.57    559.39     23.65
111.67    588.00     24.25
111.77    624.22     24.98
111.87    578.00     24.04
111.97    589.00     24.27
112.07    540.00     23.24
112.17    590.00     24.29
112.27    592.59     24.34
112.37    604.00     24.58
112.47    577.00     24.02
112.57    570.87     23.89
112.67    551.00     23.47
112.77    575.00     23.98
112.87    577.01     24.02
112.97    635.00     25.20
113.07    595.15     24.40
113.17    608.21     24.66
113.27    623.00     24.96
113.37    628.22     25.06
113.47    616.00     24.82
113.57    603.00     24.56
113.67    644.83     25.39
113.77    649.00     25.48
113.87    663.39     25.76
113.97    597.00     24.43
114.07    662.59     25.74
114.17    610.74     24.71
114.27    690.00     26.27
114.37    674.00     25.96
114.47    681.00     26.10
114.57    786.54     28.05
114.67    804.11     28.36
114.77    824.93     28.72
114.87    797.00     28.23
114.97    870.60     29.51
115.07    960.00     30.98
115.17   1081.00     32.88
115.27   1084.00     32.92
115.37   1305.60     36.13
115.47   1462.00     38.24
115.57   1641.00     40.51
115.67   1751.00     41.84
115.77   2026.33     45.01
115.87   2275.00     47.70
115.97   2516.34     50.16
116.07   2715.00     52.11
116.17   3132.00     55.96
116.27   3479.00     58.98
116.37   3847.00     62.02
116.47   4158.00     64.48
116.57   4611.00     67.90
116.67   4948.34     70.34
116.77   5458.10     73.88
116.87   5825.64     76.33
116.97   6114.92     78.20
117.07   6401.00     80.01
117.17   6625.00     81.39
117.27   6834.60     82.67
117.37   7101.00     84.27
117.47   7315.01     85.53
117.57   7286.00     85.36
117.67   7222.00     84.98
117.77   7250.00     85.15
117.87   7142.57     84.51
117.97   6737.00     82.08
118.07   6498.00     80.61
118.17   6221.38     78.88
118.27   6071.25     77.92
118.37   5707.71     75.55
118.47   5250.88     72.46
118.57   4678.00     68.40
118.67   4543.00     67.40
118.77   4182.18     64.67
118.87   3705.93     60.88
118.97   3370.00     58.05
119.07   3074.00     55.44
119.17   2831.00     53.21
119.27   2544.37     50.44
119.37   2275.06     47.70
119.47   2017.00     44.91
119.57   1857.00     43.09
119.67   1614.49     40.18
119.77   1533.85     39.16
119.87   1325.00     36.40
119.97   1264.00     35.55
120.07   1132.20     33.65
120.17   1020.93     31.95
120.27   1073.14     32.76
120.37    996.40     31.57
120.47    927.86     30.46
120.57    849.00     29.14
120.67    799.83     28.28
120.77    797.68     28.24
120.87    751.00     27.40
120.97    726.83     26.96
121.07    769.14     27.73
121.17    687.00     26.21
121.27    715.03     26.74
121.37    704.27     26.54
121.47    671.09     25.91
121.57    636.63     25.23
121.67    666.00     25.81
121.77    698.40     26.43
121.87    609.38     24.69
121.97    701.00     26.48
122.07    663.71     25.76
122.17    630.00     25.10
122.27    650.16     25.50
122.37    662.00     25.73
122.47    638.00     25.26
122.57    638.00     25.26
122.67    701.00     26.48
122.77    698.36     26.43
122.87    693.00     26.32
122.97    686.00     26.19
123.07    710.09     26.65
123.17    657.21     25.64
123.27    702.85     26.51
123.37    702.16     26.50
123.47    694.00     26.34
123.57    707.00     26.59
123.67    712.00     26.68
123.77    691.96     26.31
123.87    671.00     25.90
123.97    804.00     28.35
124.07    736.00     27.13
124.17    660.96     25.71
124.27    679.62     26.07
124.37    720.00     26.83
124.47    716.00     26.76
124.57    694.90     26.36
124.67    711.00     26.66
124.77    735.65     27.12
124.87    712.00     26.68
124.97    743.00     27.26
