XYDATA



INTER 1.0 1.0 0 0
TEMP 1074.0
  9.97    602.00     24.54
 10.07    576.00     24.00
 10.17    592.00     24.33
 10.27    567.16     23.82
 10.37    526.53     22.95
 10.47    604.00     24.58
 10.57    570.62     23.89
 10.67    538.43     23.20
 10.77    563.47     23.74
 10.87    557.70     23.62
 10.97    528.93     23.00
 11.07    577.00     24.02
 11.17    577.50     24.03
 11.27    604.00     24.58
 11.37    577.00     24.02
 11.47    530.14     23.02
 11.57    575.00     23.98
 11.67    592.00     24.33
 11.77    624.00     24.98
 11.87    646.47     25.43
 11.97    606.76     24.63
 12.07    662.47     25.74
 12.17    709.08     26.63
 12.27    673.00     25.94
 12.37    640.00     25.30
 12.47    629.14     25.08
 12.57    595.45     24.40
 12.67    609.00     24.68
 12.77    578.00     24.04
 12.87    581.03     24.10
 12.97    564.03     23.75
 13.07    555.00     23.56
 13.17    548.00     23.41
 13.27    558.42     23.63
 13.37    615.98     24.82
 13.47    563.00     23.73
 13.57    564.00     23.75
 13.67    569.00     23.85
 13.77    620.00     24.90
 13.87    568.22     23.84
 13.97    615.33     24.81
 14.07    597.00     24.43
 14.17    532.00     23.07
 14.27    568.00     23.83
 14.37    552.96     23.51
 14.47    557.15     23.60
 14.57    557.00     23.60
 14.67    547.80     23.41
 14.77    588.00     24.25
 14.87    572.00     23.92
 14.97    561.65     23.70
 15.07    528.00     22.98
 15.17    558.00     23.62
 15.27    557.00     23.60
 15.37    589.00     24.27
 15.47    557.91     23.62
 15.57    547.14     23.39
 15.67    566.35     23.80
 15.77    547.00     23.39
 15.87    559.00     23.64
 15.97    529.00     23.00
 16.07    582.00     24.12
 16.17    533.00     23.09
 16.27    561.00     23.69
 16.37    553.00     23.52
 16.47    571.34     23.90
 16.57    532.74     23.08
 16.67    586.00     24.21
 16.77    589.56     24.28
 16.87    576.00     24.00
 16.97    529.00     23.00
 17.07    558.10     23.62
 17.17    554.00     23.54
 17.27    558.00     23.62
 17.37    562.10     23.71
 17.47    559.99     23.66
 17.57    520.00     22.80
 17.67    564.00     23.75
 17.77    532.00     23.07
 17.87    563.00     23.73
 17.97    515.42     22.70
 18.07    594.00     24.37
 18.17    548.45     23.42
 18.27    592.00     24.33
 18.37    583.00     24.15
 18.47    601.00     24.52
 18.57    577.00     24.02
 18.67    602.99     24.56
 18.77    547.00     23.39
 18.87    513.36     22.66
 18.97    520.98     22.82
 19.07    496.00     22.27
 19.17    515.56     22.71
 19.27    565.00     23.77
 19.37    558.00     23.62
 19.47    526.56     22.95
 19.57    512.00     22.63
 19.67    535.00     23.13
 19.77    518.29     22.77
 19.87    519.71     22.80
 19.97    535.00     23.13
 20.07    560.87     23.68
 20.17    556.43     23.59
 20.27    560.00     23.66
 20.37    523.00     22.87
 20.47    542.00     23.28
 20.57    530.00     23.02
 20.67    542.11     23.28
 20.77    557.00     23.60
 20.87    528.18     22.98
 20.97    574.00     23.96
 21.07    519.00     22.78
 21.17    531.00     23.04
 21.27    551.00     23.47
 21.37    593.15     24.35
 21.47    545.00     23.35
 21.57    516.23     22.72
 21.67    559.25     23.65
 21.77    550.00     23.45
 21.87    563.25     23.73
 21.97    549.00     23.43
 22.07    574.00     23.96
 22.17    563.00     23.73
 22.27    579.00     24.06
 22.37    516.50     22.73
 22.47    561.00     23.69
 22.57    558.00     23.62
 22.67    563.35     23.74
 22.77    553.00     23.52
 22.87    535.00     23.13
 22.97    547.99     23.41
 23.07    535.00     23.13
 23.17    580.00     24.08
 23.27    536.70     23.17
 23.37    532.00     23.07
 23.47    548.00     23.41
 23.57    558.00     23.62
 23.67    542.00     23.28
 23.77    552.00     23.49
 23.87    524.00     22.89
 23.97    578.76     24.06
 24.07    579.35     24.07
 24.17    579.91     24.08
 24.27    522.00     22.85
 24.37    510.27     22.59
 24.47    530.00     23.02
 24.57    601.00     24.52
 24.67    559.87     23.66
 24.77    581.00     24.10
 24.87    593.73     24.37
 24.97    574.57     23.97
 25.07    593.00     24.35
 25.17    548.00     23.41
 25.27    591.00     24.31
 25.37    563.33     23.73
 25.47    557.00     23.60
 25.57    528.00     22.98
 25.67    522.05     22.85
 25.77    580.00     24.08
 25.87    575.00     23.98
 25.97    511.41     22.61
 26.07    558.51     23.63
 26.17    524.76     22.91
 26.27    551.89     23.49
 26.37    562.68     23.72
 26.47    554.00     23.54
 26.57    545.00     23.35
 26.67    505.00     22.47
 26.77    531.05     23.04
 26.87    563.00     23.73
 26.97    561.00     23.69
 27.07    565.00     23.77
 27.17    517.00     22.74
 27.27    511.00     22.61
 27.37    578.71     24.06
 27.47    504.00     22.45
 27.57    553.00     23.52
 27.67    544.00     23.32
 27.77    536.00     23.15
 27.87    570.50     23.89
 27.97    703.96     26.53
 28.07    774.00     27.82
 28.17    863.00     29.38
 28.27    930.00     30.50
 28.37    934.00     30.56
 28.47    794.16     28.18
 28.57    642.00     25.34
 28.67    646.15     25.42
 28.77    781.28     27.95
 28.87    759.00     27.55
 28.97    767.00     27.69
 29.07    796.00     28.21
 29.17    660.16     25.69
 29.27    669.00     25.87
 29.37    606.00     24.62
 29.47    592.38     24.34
 29.57    621.00     24.92
 29.67    532.95     23.09
 29.77    585.00     24.19
 29.87    580.00     24.08
 29.97    598.00     24.45
 30.07    512.78     22.64
 30.17    550.00     23.45
 30.27    558.00     23.62
 30.37    490.82     22.15
 30.47    536.00     23.15
 30.57    556.00     23.58
 30.67    570.00     23.87
 30.77    622.00     24.94
 30.87    611.00     24.72
 30.97    610.00     24.70
 31.07    595.50     24.40
 31.17    544.00     23.32
 31.27    508.39     22.55
 31.37    516.00     22.72
 31.47    576.00     24.00
 31.57    522.85     22.87
 31.67    562.00     23.71
 31.77    481.00     21.93
 31.87    533.00     23.09
 31.97    508.00     22.54
 32.07    558.00     23.62
 32.17    563.00     23.73
 32.27    562.94     23.73
 32.37    543.50     23.31
 32.47    537.12     23.18
 32.57    528.00     22.98
 32.67    548.25     23.41
 32.77    552.14     23.50
 32.87    560.10     23.67
 32.97    488.16     22.09
 33.07    511.00     22.61
 33.17    541.00     23.26
 33.27    512.00     22.63
 33.37    564.58     23.76
 33.47    537.00     23.17
 33.57    548.54     23.42
 33.67    675.00     25.98
 33.77    767.73     27.71
 33.87    891.17     29.85
 33.97    980.00     31.30
 34.07   1039.00     32.23
 34.17   1059.82     32.55
 34.27    863.00     29.38
 34.37    781.00     27.95
 34.47    617.00     24.84
 34.57    611.41     24.73
 34.67    520.60     22.82
 34.77    541.00     23.26
 34.87    505.37     22.48
 34.97    488.91     22.11
 35.07    531.42     23.05
 35.17    490.77     22.15
 35.27    543.00     23.30
 35.37    540.79     23.25
 35.47    539.61     23.23
 35.57    550.00     23.45
 35.67    509.00     22.56
 35.77    496.00     22.27
 35.87    525.63     22.93
 35.97    520.00     22.80
 36.07    519.00     22.78
 36.17    484.00     22.00
 36.27    471.38     21.71
 36.37    499.33     22.35
 36.47    517.00     22.74
 36.57    478.00     21.86
 36.67    539.85     23.23
 36.77    504.00     22.45
 36.87    504.00     22.45
 36.97    494.83     22.24
 37.07    532.41     23.07
 37.17    473.00     21.75
 37.27    505.18     22.48
 37.37    470.00     21.68
 37.47    509.00     22.56
 37.57    524.00     22.89
 37.67    532.00     23.07
 37.77    520.00     22.80
 37.87    542.00     23.28
 37.97    533.00     23.09
 38.07    518.54     22.77
 38.17    541.97     23.28
 38.27    522.00     22.85
 38.37    469.00     21.66
 38.47    513.15     22.65
 38.57    468.00     21.63
 38.67    523.00     22.87
 38.77    545.00     23.35
 38.87    482.00     21.95
 38.97    495.00     22.25
 39.07    480.53     21.92
 39.17    515.00     22.69
 39.27    497.40     22.30
 39.37    499.00     22.34
 39.47    503.00     22.43
 39.57    511.71     22.62
 39.67    508.00     22.54
 39.77    509.00     22.56
 39.87    473.00     21.75
 39.97    506.48     22.51
 40.07    518.00     22.76
 40.17    495.00     22.25
 40.27    499.00     22.34
 40.37    508.00     22.54
 40.47    495.00     22.25
 40.57    478.67     21.88
 40.67    522.00     22.85
 40.77    470.00     21.68
 40.87    524.99     22.91
 40.97    518.00     22.76
 41.07    460.00     21.45
 41.17    531.62     23.06
 41.27    462.44     21.50
 41.37    534.49     23.12
 41.47    544.00     23.32
 41.57    487.33     22.08
 41.67    524.00     22.89
 41.77    525.43     22.92
 41.87    508.74     22.56
 41.97    466.23     21.59
 42.07    551.00     23.47
 42.17    510.94     22.60
 42.27    574.50     23.97
 42.37    540.00     23.24
 42.47    582.00     24.12
 42.57    622.48     24.95
 42.67    630.00     25.10
 42.77    575.00     23.98
 42.87    590.00     24.29
 42.97    545.00     23.35
 43.07    521.75     22.84
 43.17    520.00     22.80
 43.27    478.00     21.86
 43.37    539.29     23.22
 43.47    519.83     22.80
 43.57    521.00     22.83
 43.67    478.65     21.88
 43.77    504.00     22.45
 43.87    490.00     22.14
 43.97    499.00     22.34
 44.07    469.58     21.67
 44.17    477.00     21.84
 44.27    498.00     22.32
 44.37    487.98     22.09
 44.47    543.73     23.32
 44.57    479.00     21.89
 44.67    518.00     22.76
 44.77    481.00     21.93
 44.87    528.78     23.00
 44.97    483.00     21.98
 45.07    478.91     21.88
 45.17    485.73     22.04
 45.27    532.74     23.08
 45.37    494.00     22.23
 45.47    478.00     21.86
 45.57    531.00     23.04
 45.67    469.00     21.66
 45.77    484.00     22.00
 45.87    494.00     22.23
 45.97    546.74     23.38
 46.07    472.00     21.73
 46.17    542.74     23.30
 46.27    527.09     22.96
 46.37    485.00     22.02
 46.47    530.92     23.04
 46.57    516.00     22.72
 46.67    504.00     22.45
 46.77    482.00     21.95
 46.87    531.25     23.05
 46.97    513.00     22.65
 47.07    483.00     21.98
 47.17    504.00     22.45
 47.27    523.00     22.87
 47.37    543.21     23.31
 47.47    548.00     23.41
 47.57    541.00     23.26
 47.67    559.00     23.64
 47.77    633.00     25.16
 47.87    600.88     24.51
 47.97    608.00     24.66
 48.07    599.00     24.47
 48.17    552.67     23.51
 48.27    549.00     23.43
 48.37    575.20     23.98
 48.47    577.54     24.03
 48.57    542.92     23.30
 48.67    561.00     23.69
 48.77    532.00     23.07
 48.87    502.53     22.42
 48.97    554.00     23.54
 49.07    580.00     24.08
 49.17    575.00     23.98
 49.27    630.52     25.11
 49.37    580.00     24.08
 49.47    704.00     26.53
 49.57    731.00     27.04
 49.67    862.00     29.36
 49.77   1085.00     32.94
 49.87   1481.19     38.49
 49.97   1810.57     42.55
 50.07   2187.00     46.77
 50.17   2434.00     49.34
 50.27   2464.00     49.64
 50.37   2228.00     47.20
 50.47   1798.00     42.40
 50.57   1422.00     37.71
 50.67    988.00     31.43
 50.77    820.00     28.64
 50.87    772.21     27.79
 50.97    702.06     26.50
 51.07    637.00     25.24
 51.17    630.56     25.11
 51.27    621.00     24.92
 51.37    587.64     24.24
 51.47    552.85     23.51
 51.57    538.00     23.19
 51.67    560.62     23.68
 51.77    544.00     23.32
 51.87    502.63     22.42
 51.97    569.00     23.85
 52.07    534.00     23.11
 52.17    547.72     23.40
 52.27    572.86     23.93
 52.37    587.00     24.23
 52.47    526.00     22.93
 52.57    564.00     23.75
 52.67    555.66     23.57
 52.77    633.82     25.18
 52.87    656.00     25.61
 52.97    748.91     27.37
 53.07    839.00     28.97
 53.17    887.34     29.79
 53.27   1063.00     32.60
 53.37   1085.00     32.94
 53.47   1158.00     34.03
 53.57   1165.00     34.13
 53.67   1127.00     33.57
 53.77    953.73     30.88
 53.87    845.98     29.09
 53.97    743.94     27.28
 54.07    667.00     25.83
 54.17    620.00     24.90
 54.27    585.00     24.19
 54.37    591.00     24.31
 54.47    548.22     23.41
 54.57    586.00     24.21
 54.67    551.00     23.47
 54.77    562.00     23.71
 54.87    512.00     22.63
 54.97    566.78     23.81
 55.07    534.75     23.12
 55.17    562.00     23.71
 55.27    573.04     23.94
 55.37    540.00     23.24
 55.47    592.95     24.35
 55.57    562.02     23.71
 55.67    543.00     23.30
 55.77    552.00     23.49
 55.87    603.00     24.56
 55.97    641.00     25.32
 56.07    728.47     26.99
 56.17    722.03     26.87
 56.27    894.00     29.90
 56.37   1146.00     33.85
 56.47   1527.06     39.08
 56.57   1801.00     42.44
 56.67   2198.00     46.88
 56.77   2513.00     50.13
 56.87   2668.00     51.65
 56.97   2560.00     50.60
 57.07   2332.00     48.29
 57.17   1994.13     44.66
 57.27   1649.09     40.61
 57.37   1337.00     36.57
 57.47   1057.23     32.52
 57.57    900.00     30.00
 57.67    728.00     26.98
 57.77    708.31     26.61
 57.87    657.97     25.65
 57.97    718.00     26.80
 58.07    653.00     25.55
 58.17    722.00     26.87
 58.27    726.63     26.96
 58.37    815.00     28.55
 58.47    876.00     29.60
 58.57    987.06     31.42
 58.67   1226.30     35.02
 58.77   1309.90     36.19
 58.87   1407.00     37.51
 58.97   1423.16     37.72
 59.07   1428.40     37.79
 59.17   1481.00     38.48
 59.27   1444.00     38.00
 59.37   1195.58     34.58
 59.47   1211.00     34.80
 59.57   1194.00     34.55
 59.67   1143.00     33.81
 59.77   1176.29     34.30
 59.87   1209.00     34.77
 59.97   1316.00     36.28
 60.07   1478.00     38.44
 60.17   1510.00     38.86
 60.27   1611.76     40.15
 60.37   1530.77     39.13
 60.47   1424.00     37.74
 60.57   1276.00     35.72
 60.67   1042.95     32.29
 60.77    910.27     30.17
 60.87    833.27     28.87
 60.97    736.01     27.13
 61.07    657.00     25.63
 61.17    620.00     24.90
 61.27    579.64     24.08
 61.37    655.00     25.59
 61.47    728.00     26.98
 61.57    741.00     27.22
 61.67    859.69     29.32
 61.77    974.00     31.21
 61.87   1112.00     33.35
 61.97   1267.00     35.59
 62.07   1403.93     37.47
 62.17   1392.36     37.31
 62.27   1355.00     36.81
 62.37   1317.00     36.29
 62.47   1176.00     34.29
 62.57   1083.45     32.92
 62.67    895.60     29.93
 62.77    732.00     27.06
 62.87    704.00     26.53
 62.97    661.00     25.71
 63.07    651.01     25.51
 63.17    593.57     24.36
 63.27    570.00     23.87
 63.37    558.00     23.62
 63.47    591.00     24.31
 63.57    579.00     24.06
 63.67    649.00     25.48
 63.77    597.00     24.43
 63.87    642.00     25.34
 63.97    685.00     26.17
 64.07    698.53     26.43
 64.17    784.00     28.00
 64.27    854.00     29.22
 64.37    926.00     30.43
 64.47    989.00     31.45
 64.57    970.90     31.16
 64.67   1012.00     31.81
 64.77   1049.00     32.39
 64.87    935.00     30.58
 64.97    903.00     30.05
 65.07    829.00     28.79
 65.17    842.61     29.03
 65.27    707.00     26.59
 65.37    666.00     25.81
 65.47    670.00     25.88
 65.57    617.00     24.84
 65.67    632.01     25.14
 65.77    573.00     23.94
 65.87    629.63     25.09
 65.97    562.00     23.71
 66.07    531.00     23.04
 66.17    609.83     24.69
 66.27    527.00     22.96
 66.37    532.00     23.07
 66.47    520.00     22.80
 66.57    589.00     24.27
 66.67    543.00     23.30
 66.77    561.00     23.69
 66.87    557.00     23.60
 66.97    599.00     24.47
 67.07    650.77     25.51
 67.17    670.00     25.88
 67.27    757.00     27.51
 67.37    865.71     29.42
 67.47   1096.00     33.11
 67.57   1235.54     35.15
 67.67   1581.00     39.76
 67.77   1854.00     43.06
 67.87   1994.00     44.65
 67.97   2271.00     47.66
 68.07   2373.47     48.72
 68.17   2301.24     47.97
 68.27   2309.00     48.05
 68.37   2109.07     45.92
 68.47   1807.04     42.51
 68.57   1521.00     39.00
 68.67   1311.00     36.21
 68.77   1063.00     32.60
 68.87    943.56     30.72
 68.97    801.72     28.31
 69.07    693.17     26.33
 69.17    620.30     24.91
 69.27    649.00     25.48
 69.37    598.00     24.45
 69.47    621.06     24.92
 69.57    588.11     24.25
 69.67    561.00     23.69
 69.77    546.01     23.37
 69.87    550.00     23.45
 69.97    566.00     23.79
 70.07    575.00     23.98
 70.17    607.00     24.64
 70.27    547.58     23.40
 70.37    526.67     22.95
 70.47    548.00     23.41
 70.57    594.00     24.37
 70.67    576.00     24.00
 70.77    569.00     23.85
 70.87    593.16     24.35
 70.97    634.00     25.18
 71.07    676.10     26.00
 71.17    704.00     26.53
 71.27    835.00     28.90
 71.37    958.03     30.95
 71.47   1050.00     32.40
 71.57   1261.20     35.51
 71.67   1452.00     38.11
 71.77   1657.00     40.71
 71.87   1853.06     43.05
 71.97   1860.00     43.13
 72.07   1989.96     44.61
 72.17   1782.33     42.22
 72.27   1698.61     41.21
 72.37   1583.00     39.79
 72.47   1466.00     38.29
 72.57   1295.00     35.99
 72.67   1142.00     33.79
 72.77   1008.00     31.75
 72.87    919.24     30.32
 72.97    910.51     30.17
 73.07    839.39     28.97
 73.17    780.50     27.94
 73.27    613.00     24.76
 73.37    685.00     26.17
 73.47    672.63     25.94
 73.57    661.03     25.71
 73.67    601.00     24.52
 73.77    604.00     24.58
 73.87    595.99     24.41
 73.97    569.00     23.85
 74.07    610.00     24.70
 74.17    591.00     24.31
 74.27    653.00     25.55
 74.37    558.92     23.64
 74.47    539.16     23.22
 74.57    655.00     25.59
 74.67    549.33     23.44
 74.77    605.00     24.60
 74.87    545.55     23.36
 74.97    525.33     22.92
 75.07    531.00     23.04
 75.17    604.00     24.58
 75.27    516.40     22.72
 75.37    539.00     23.22
 75.47    524.80     22.91
 75.57    556.00     23.58
 75.67    567.00     23.81
 75.77    529.00     23.00
 75.87    583.00     24.15
 75.97    581.00     24.10
 76.07    658.00     25.65
 76.17    628.00     25.06
 76.27    644.00     25.38
 76.37    684.00     26.15
 76.47    708.00     26.61
 76.57    725.74     26.94
 76.67    674.00     25.96
 76.77    697.00     26.40
 76.87    628.00     25.06
 76.97    601.96     24.53
 77.07    572.00     23.92
 77.17    589.12     24.27
 77.27    578.00     24.04
 77.37    586.48     24.22
 77.47    574.00     23.96
 77.57    506.00     22.49
 77.67    521.98     22.85
 77.77    537.71     23.19
 77.87    491.00     22.16
 77.97    543.49     23.31
 78.07    540.00     23.24
 78.17    505.58     22.49
 78.27    519.00     22.78
 78.37    472.00     21.73
 78.47    530.04     23.02
 78.57    486.40     22.05
 78.67    546.08     23.37
 78.77    520.00     22.80
 78.87    514.00     22.67
 78.97    485.00     22.02
 79.07    518.00     22.76
 79.17    508.00     22.54
 79.27    527.00     22.96
 79.37    555.00     23.56
 79.47    522.00     22.85
 79.57    521.00     22.83
 79.67    526.00     22.93
 79.77    548.00     23.41
 79.87    578.65     24.06
 79.97    522.00     22.85
 80.07    540.00     23.24
 80.17    541.00     23.26
 80.27    610.00     24.70
 80.37    543.00     23.30
 80.47    635.21     25.20
 80.57    649.99     25.49
 80.67    607.00     24.64
 80.77    670.00     25.88
 80.87    663.00     25.75
 80.97    697.00     26.40
 81.07    660.00     25.69
 81.17    687.08     26.21
 81.27    783.00     27.98
 81.37    741.00     27.22
 81.47    703.12     26.52
 81.57    746.51     27.32
 81.67    781.00     27.95
 81.77    758.00     27.53
 81.87    654.55     25.58
 81.97    694.00     26.34
 82.07    678.00     26.04
 82.17    611.12     24.72
 82.27    679.81     26.07
 82.37    602.00     24.54
 82.47    624.00     24.98
 82.57    597.00     24.43
 82.67    576.32     24.01
 82.77    551.00     23.47
 82.87    553.00     23.52
 82.97    615.00     24.80
 83.07    527.69     22.97
 83.17    543.22     23.31
 83.27    596.94     24.43
 83.37    586.40     24.22
 83.47    513.09     22.65
 83.57    522.00     22.85
 83.67    577.82     24.04
 83.77    573.00     23.94
 83.87    598.26     24.46
 83.97    572.31     23.92
 84.07    577.00     24.02
 84.17    545.72     23.36
 84.27    527.00     22.96
 84.37    559.00     23.64
 84.47    578.00     24.04
 84.57    564.00     23.75
 84.67    514.00     22.67
 84.77    519.02     22.78
 84.87    487.00     22.07
 84.97    581.94     24.12
 85.07    572.61     23.93
 85.17    553.00     23.52
 85.27    516.00     22.72
 85.37    574.00     23.96
 85.47    521.00     22.83
 85.57    561.00     23.69
 85.67    519.35     22.79
 85.77    507.17     22.52
 85.87    569.00     23.85
 85.97    556.00     23.58
 86.07    544.00     23.32
 86.17    559.00     23.64
 86.27    549.00     23.43
 86.37    498.00     22.32
 86.47    534.00     23.11
 86.57    598.00     24.45
 86.67    567.00     23.81
 86.77    599.00     24.47
 86.87    603.00     24.56
 86.97    592.69     24.35
 87.07    602.76     24.55
 87.17    665.00     25.79
 87.27    581.50     24.11
 87.37    584.96     24.19
 87.47    616.62     24.83
 87.57    632.08     25.14
 87.67    598.00     24.45
 87.77    663.00     25.75
 87.87    641.00     25.32
 87.97    648.00     25.46
 88.07    639.00     25.28
 88.17    597.68     24.45
 88.27    564.00     23.75
 88.37    521.00     22.83
 88.47    552.64     23.51
 88.57    555.67     23.57
 88.67    579.00     24.06
 88.77    593.00     24.35
 88.87    559.66     23.66
 88.97    572.00     23.92
 89.07    635.52     25.21
 89.17    597.00     24.43
 89.27    622.00     24.94
 89.37    611.00     24.72
 89.47    557.24     23.61
 89.57    545.00     23.35
 89.67    587.65     24.24
 89.77    555.00     23.56
 89.87    587.00     24.23
 89.97    550.00     23.45
 90.07    579.13     24.07
 90.17    528.00     22.98
 90.27    538.00     23.19
 90.37    526.00     22.93
 90.47    566.59     23.80
 90.57    490.32     22.14
 90.67    506.18     22.50
 90.77    495.00     22.25
 90.87    513.00     22.65
 90.97    536.88     23.17
 91.07    515.47     22.70
 91.17    532.00     23.07
 91.27    568.00     23.83
 91.37    542.24     23.29
 91.47    538.25     23.20
 91.57    563.00     23.73
 91.67    512.00     22.63
 91.77    493.00     22.20
 91.87    489.00     22.11
 91.97    545.30     23.35
 92.07    557.82     23.62
 92.17    587.00     24.23
 92.27    574.00     23.96
 92.37    596.02     24.41
 92.47    585.00     24.19
 92.57    632.00     25.14
 92.67    653.00     25.55
 92.77    666.00     25.81
 92.87    701.00     26.48
 92.97    743.00     27.26
 93.07    734.71     27.11
 93.17    719.94     26.83
 93.27    798.17     28.25
 93.37    736.00     27.13
 93.47    805.06     28.37
 93.57    781.00     27.95
 93.67    794.00     28.18
 93.77    784.00     28.00
 93.87    829.00     28.79
 93.97    835.00     28.90
 94.07    849.00     29.14
 94.17    886.00     29.77
 94.27    786.91     28.05
 94.37    863.24     29.38
 94.47    910.00     30.17
 94.57    858.00     29.29
 94.67    909.00     30.15
 94.77    888.00     29.80
 94.87    916.00     30.27
 94.97    890.38     29.84
 95.07    956.00     30.92
 95.17    785.46     28.03
 95.27    825.38     28.73
 95.37    782.00     27.96
 95.47    821.00     28.65
 95.57    776.42     27.86
 95.67    789.00     28.09
 95.77    705.00     26.55
 95.87    715.00     26.74
 95.97    711.00     26.66
 96.07    696.00     26.38
 96.17    667.00     25.83
 96.27    678.27     26.04
 96.37    779.00     27.91
 96.47    808.00     28.43
 96.57    877.92     29.63
 96.67    995.00     31.54
 96.77    988.00     31.43
 96.87   1058.00     32.53
 96.97   1135.00     33.69
 97.07   1226.00     35.01
 97.17   1298.00     36.03
 97.27   1365.00     36.95
 97.37   1359.00     36.86
 97.47   1389.87     37.28
 97.57   1452.00     38.11
 97.67   1366.00     36.96
 97.77   1380.00     37.15
 97.87   1253.00     35.40
 97.97   1321.00     36.35
 98.07   1208.00     34.76
 98.17   1175.00     34.28
 98.27   1153.00     33.96
 98.37   1003.00     31.67
 98.47    927.00     30.45
 98.57    881.00     29.68
 98.67    833.00     28.86
 98.77    829.00     28.79
 98.87    770.00     27.75
 98.97    820.00     28.64
 99.07    822.93     28.69
 99.17    881.00     29.68
 99.27    897.00     29.95
 99.37    965.00     31.06
 99.47   1053.22     32.45
 99.57   1145.00     33.84
 99.67   1185.00     34.42
 99.77   1295.00     35.99
 99.87   1354.00     36.80
 99.97   1558.31     39.48
100.07   1560.74     39.51
100.17   1769.94     42.07
100.27   1874.00     43.29
100.37   1921.74     43.84
100.47   2028.57     45.04
100.57   2097.00     45.79
100.67   2088.03     45.69
100.77   2087.08     45.68
100.87   2051.00     45.29
100.97   1992.00     44.63
101.07   1890.00     43.47
101.17   1800.00     42.43
101.27   1698.00     41.21
101.37   1591.00     39.89
101.47   1538.00     39.22
101.57   1466.39     38.29
101.67   1410.00     37.55
101.77   1379.98     37.15
101.87   1339.00     36.59
101.97   1250.00     35.36
102.07   1154.00     33.97
102.17   1225.43     35.01
102.27   1162.71     34.10
102.37   1041.00     32.26
102.47   1037.00     32.20
102.57   1038.00     32.22
102.67   1035.00     32.17
102.77   1068.00     32.68
102.87    982.00     31.34
102.97    908.76     30.15
103.07    928.49     30.47
103.17    910.29     30.17
103.27    864.00     29.39
103.37    774.50     27.83
103.47    795.00     28.20
103.57    751.00     27.40
103.67    677.54     26.03
103.77    672.00     25.92
103.87    664.00     25.77
103.97    636.00     25.22
104.07    618.00     24.86
104.17    615.75     24.81
104.27    577.00     24.02
104.37    615.00     24.80
104.47    578.00     24.04
104.57    523.00     22.87
104.67    545.00     23.35
104.77    574.00     23.96
104.87    506.00     22.49
104.97    495.94     22.27
105.07    576.66     24.01
105.17    530.00     23.02
105.27    529.00     23.00
105.37    505.00     22.47
105.47    513.94     22.67
105.57    557.00     23.60
105.67    580.01     24.08
105.77    548.00     23.41
105.87    568.09     23.83
105.97    580.74     24.10
106.07    616.00     24.82
106.17    583.32     24.15
106.27    633.00     25.16
106.37    574.00     23.96
106.47    585.54     24.20
106.57    633.00     25.16
106.67    618.00     24.86
106.77    610.00     24.70
106.87    690.00     26.27
106.97    642.00     25.34
107.07    732.15     27.06
107.17    680.66     26.09
107.27    663.00     25.75
107.37    708.26     26.61
107.47    719.15     26.82
107.57    655.00     25.59
107.67    666.00     25.81
107.77    701.00     26.48
107.87    656.18     25.62
107.97    692.00     26.31
108.07    689.00     26.25
108.17    706.00     26.57
108.27    695.58     26.37
108.37    671.33     25.91
108.47    677.96     26.04
108.57    688.00     26.23
108.67    699.00     26.44
108.77    646.28     25.42
108.87    721.70     26.86
108.97    662.00     25.73
109.07    675.00     25.98
109.17    665.00     25.79
109.27    628.14     25.06
109.37    691.08     26.29
109.47    628.00     25.06
109.57    635.00     25.20
109.67    663.85     25.77
109.77    649.00     25.48
109.87    614.48     24.79
109.97    630.06     25.10
110.07    559.00     23.64
110.17    588.00     24.25
110.27    527.25     22.96
110.37    600.69     24.51
110.47    561.19     23.69
110.57    583.37     24.15
110.67    531.00     23.04
110.77    521.91     22.85
110.87    552.40     23.50
110.97    548.00     23.41
111.07    560.00     23.66
111.17    594.00     24.37
111.27    555.00     23.56
111.37    578.01     24.04
111.47    553.90     23.54
111.57    498.99     22.34
111.67    538.00     23.19
111.77    580.35     24.09
111.87    531.98     23.06
111.97    520.00     22.80
112.07    565.00     23.77
112.17    583.00     24.15
112.27    581.00     24.10
112.37    551.00     23.47
112.47    577.00     24.02
112.57    605.00     24.60
112.67    590.00     24.29
112.77    595.00     24.39
112.87    599.00     24.47
112.97    626.00     25.02
113.07    622.00     24.94
113.17    679.00     26.06
113.27    656.41     25.62
113.37    701.00     26.48
113.47    725.00     26.93
113.57    767.00     27.69
113.67    854.00     29.22
113.77    799.00     28.27
113.87    860.00     29.33
113.97    968.23     31.12
114.07    996.00     31.56
114.17    993.90     31.53
114.27   1000.00     31.62
114.37   1207.00     34.74
114.47   1305.00     36.12
114.57   1406.71     37.51
114.67   1516.00     38.94
114.77   1697.00     41.19
114.87   1820.14     42.66
114.97   2102.08     45.85
115.07   2327.00     48.24
115.17   2580.00     50.79
115.27   2948.00     54.30
115.37   3122.79     55.88
115.47   3451.00     58.75
115.57   3777.00     61.46
115.67   4126.78     64.24
115.77   4378.41     66.17
115.87   4989.00     70.63
115.97   5294.00     72.76
116.07   5676.00     75.34
116.17   6031.00     77.66
116.27   6394.19     79.96
116.37   6469.00     80.43
116.47   6785.00     82.37
116.57   6934.00     83.27
116.67   6963.13     83.45
116.77   6963.00     83.44
116.87   6625.00     81.39
116.97   6421.00     80.13
117.07   6402.08     80.01
117.17   6168.03     78.54
117.27   5471.00     73.97
117.37   5231.00     72.33
117.47   4873.00     69.81
117.57   4530.00     67.31
117.67   4148.00     64.40
117.77   3931.00     62.70
117.87   3600.00     60.00
117.97   3201.00     56.58
118.07   2848.00     53.37
118.17   2422.16     49.22
118.27   2235.62     47.28
118.37   1949.00     44.15
118.47   1754.96     41.89
118.57   1456.00     38.16
118.67   1487.88     38.57
118.77   1288.00     35.89
118.87   1078.00     32.83
118.97   1037.00     32.20
119.07    918.58     30.31
119.17    911.00     30.18
119.27    827.00     28.76
119.37    782.00     27.96
119.47    724.69     26.92
119.57    776.00     27.86
119.67    725.94     26.94
119.77    632.92     25.16
119.87    608.27     24.66
119.97    608.59     24.67
120.07    624.35     24.99
120.17    566.65     23.80
120.27    556.72     23.59
120.37    611.66     24.73
120.47    554.35     23.54
120.57    612.07     24.74
120.67    594.32     24.38
120.77    573.76     23.95
120.87    616.00     24.82
120.97    565.00     23.77
121.07    577.00     24.02
121.17    585.00     24.19
121.27    622.00     24.94
121.37    551.00     23.47
121.47    546.33     23.37
121.57    588.00     24.25
121.67    618.00     24.86
121.77    604.00     24.58
121.87    619.00     24.88
121.97    615.00     24.80
122.07    660.00     25.69
122.17    630.61     25.11
122.27    593.37     24.36
122.37    634.00     25.18
122.47    631.79     25.14
122.57    658.00     25.65
122.67    646.51     25.43
122.77    608.00     24.66
122.87    665.00     25.79
122.97    628.00     25.06
123.07    679.76     26.07
123.17    668.01     25.85
123.27    676.87     26.02
123.37    688.71     26.24
123.47    622.00     24.94
123.57    609.55     24.69
123.67    603.23     24.56
123.77    635.00     25.20
123.87    618.00     24.86
123.97    599.00     24.47
124.07    626.00     25.02
124.17    646.00     25.42
124.27    582.00     24.12
124.37    539.00     23.22
124.47    620.00     24.90
124.57    587.00     24.23
124.67    570.44     23.88
124.77    633.18     25.16
124.87    612.00     24.74
124.97    591.00     24.31
