XYDATA



INTER 1.0 1.0 0 0
TEMP 1074.0
  9.97    593.00     24.35
 10.07    596.00     24.41
 10.17    585.00     24.19
 10.27    590.00     24.29
 10.37    578.00     24.04
 10.47    603.98     24.58
 10.57    608.00     24.66
 10.67    567.27     23.82
 10.77    547.91     23.41
 10.87    641.00     25.32
 10.97    574.00     23.96
 11.07    616.02     24.82
 11.17    650.00     25.50
 11.27    614.73     24.79
 11.37    573.00     23.94
 11.47    540.29     23.24
 11.57    625.00     25.00
 11.67    579.00     24.06
 11.77    626.00     25.02
 11.87    629.00     25.08
 11.97    683.77     26.15
 12.07    671.00     25.90
 12.17    697.41     26.41
 12.27    708.65     26.62
 12.37    671.00     25.90
 12.47    620.68     24.91
 12.57    650.00     25.50
 12.67    587.00     24.23
 12.77    622.18     24.94
 12.87    625.28     25.01
 12.97    547.00     23.39
 13.07    597.00     24.43
 13.17    566.25     23.80
 13.27    619.71     24.89
 13.37    552.74     23.51
 13.47    544.00     23.32
 13.57    542.00     23.28
 13.67    617.37     24.85
 13.77    547.00     23.39
 13.87    595.00     24.39
 13.97    608.00     24.66
 14.07    558.98     23.64
 14.17    610.23     24.70
 14.27    594.07     24.37
 14.37    541.36     23.27
 14.47    611.00     24.72
 14.57    590.00     24.29
 14.67    555.00     23.56
 14.77    595.54     24.40
 14.87    589.59     24.28
 14.97    604.00     24.58
 15.07    526.55     22.95
 15.17    590.00     24.29
 15.27    478.00     21.86
 15.37    547.00     23.39
 15.47    551.00     23.47
 15.57    590.66     24.30
 15.67    546.00     23.37
 15.77    567.00     23.81
 15.87    551.00     23.47
 15.97    559.00     23.64
 16.07    592.00     24.33
 16.17    575.00     23.98
 16.27    569.00     23.85
 16.37    544.00     23.32
 16.47    529.18     23.00
 16.57    611.69     24.73
 16.67    569.00     23.85
 16.77    523.62     22.88
 16.87    578.00     24.04
 16.97    560.90     23.68
 17.07    582.00     24.12
 17.17    579.62     24.08
 17.27    571.00     23.90
 17.37    525.00     22.91
 17.47    552.00     23.49
 17.57    611.00     24.72
 17.67    564.12     23.75
 17.77    567.00     23.81
 17.87    552.84     23.51
 17.97    584.00     24.17
 18.07    552.69     23.51
 18.17    539.00     23.22
 18.27    587.24     24.23
 18.37    576.00     24.00
 18.47    565.00     23.77
 18.57    555.00     23.56
 18.67    536.00     23.15
 18.77    528.00     22.98
 18.87    558.00     23.62
 18.97    571.88     23.91
 19.07    569.00     23.85
 19.17    514.00     22.67
 19.27    589.05     24.27
 19.37    566.00     23.79
 19.47    569.00     23.85
 19.57    575.00     23.98
 19.67    569.00     23.85
 19.77    542.00     23.28
 19.87    593.00     24.35
 19.97    563.00     23.73
 20.07    570.49     23.88
 20.17    570.00     23.87
 20.27    541.00     23.26
 20.37    543.00     23.30
 20.47    569.00     23.85
 20.57    557.00     23.60
 20.67    581.87     24.12
 20.77    525.61     22.93
 20.87    530.22     23.03
 20.97    579.00     24.06
 21.07    571.00     23.90
 21.17    550.00     23.45
 21.27    513.42     22.66
 21.37    536.00     23.15
 21.47    513.92     22.67
 21.57    554.96     23.56
 21.67    596.26     24.42
 21.77    586.00     24.21
 21.87    508.00     22.54
 21.97    580.14     24.09
 22.07    509.56     22.57
 22.17    547.00     23.39
 22.27    524.57     22.90
 22.37    532.00     23.07
 22.47    533.00     23.09
 22.57    539.00     23.22
 22.67    552.00     23.49
 22.77    567.00     23.81
 22.87    580.76     24.10
 22.97    560.00     23.66
 23.07    554.00     23.54
 23.17    527.24     22.96
 23.27    570.00     23.87
 23.37    563.99     23.75
 23.47    559.00     23.64
 23.57    547.00     23.39
 23.67    505.39     22.48
 23.77    561.00     23.69
 23.87    546.00     23.37
 23.97    550.34     23.46
 24.07    559.00     23.64
 24.17    588.68     24.26
 24.27    559.00     23.64
 24.37    586.00     24.21
 24.47    543.38     23.31
 24.57    550.18     23.46
 24.67    633.00     25.16
 24.77    618.00     24.86
 24.87    641.00     25.32
 24.97    652.00     25.53
 25.07    556.21     23.58
 25.17    601.00     24.52
 25.27    563.00     23.73
 25.37    528.00     22.98
 25.47    524.00     22.89
 25.57    535.00     23.13
 25.67    543.00     23.30
 25.77    554.00     23.54
 25.87    592.00     24.33
 25.97    530.00     23.02
 26.07    586.00     24.21
 26.17    584.11     24.17
 26.27    580.02     24.08
 26.37    561.00     23.69
 26.47    529.00     23.00
 26.57    538.36     23.20
 26.67    546.00     23.37
 26.77    548.00     23.41
 26.87    536.00     23.15
 26.97    547.00     23.39
 27.07    522.69     22.86
 27.17    511.03     22.61
 27.27    553.02     23.52
 27.37    558.00     23.62
 27.47    574.31     23.96
 27.57    496.00     22.27
 27.67    522.66     22.86
 27.77    556.00     23.58
 27.87    552.36     23.50
 27.97    645.65     25.41
 28.07    762.00     27.60
 28.17    903.00     30.05
 28.27    915.00     30.25
 28.37    887.00     29.78
 28.47    795.23     28.20
 28.57    657.00     25.63
 28.67    678.68     26.05
 28.77    746.00     27.31
 28.87    815.00     28.55
 28.97    822.00     28.67
 29.07    851.22     29.18
 29.17    688.00     26.23
 29.27    626.00     25.02
 29.37    592.68     24.34
 29.47    571.84     23.91
 29.57    559.00     23.64
 29.67    598.00     24.45
 29.77    523.86     22.89
 29.87    568.79     23.85
 29.97    501.83     22.40
 30.07    553.00     23.52
 30.17    578.00     24.04
 30.27    554.34     23.54
 30.37    563.00     23.73
 30.47    540.55     23.25
 30.57    532.35     23.07
 30.67    585.00     24.19
 30.77    588.00     24.25
 30.87    616.43     24.83
 30.97    625.00     25.00
 31.07    605.00     24.60
 31.17    600.00     24.49
 31.27    537.83     23.19
 31.37    557.00     23.60
 31.47    507.17     22.52
 31.57    556.41     23.59
 31.67    510.00     22.58
 31.77    516.00     22.72
 31.87    547.00     23.39
 31.97    523.00     22.87
 32.07    495.00     22.25
 32.17    526.57     22.95
 32.27    524.00     22.89
 32.37    578.00     24.04
 32.47    533.00     23.09
 32.57    538.00     23.19
 32.67    541.00     23.26
 32.77    518.47     22.77
 32.87    550.00     23.45
 32.97    538.00     23.19
 33.07    550.08     23.45
 33.17    565.00     23.77
 33.27    518.00     22.76
 33.37    540.00     23.24
 33.47    535.00     23.13
 33.57    651.00     25.51
 33.67    641.99     25.34
 33.77    740.00     27.20
 33.87    910.00     30.17
 33.97    971.72     31.17
 34.07   1094.00     33.08
 34.17   1075.70     32.80
 34.27    878.00     29.63
 34.37    740.00     27.20
 34.47    646.00     25.42
 34.57    633.42     25.17
 34.67    546.00     23.37
 34.77    517.00     22.74
 34.87    537.00     23.17
 34.97    533.00     23.09
 35.07    536.00     23.15
 35.17    560.40     23.67
 35.27    559.21     23.65
 35.37    550.00     23.45
 35.47    556.00     23.58
 35.57    541.00     23.26
 35.67    562.00     23.71
 35.77    476.00     21.82
 35.87    543.00     23.30
 35.97    516.10     22.72
 36.07    533.00     23.09
 36.17    523.00     22.87
 36.27    517.00     22.74
 36.37    505.63     22.49
 36.47    499.76     22.36
 36.57    528.41     22.99
 36.67    538.08     23.20
 36.77    550.55     23.46
 36.87    490.18     22.14
 36.97    530.00     23.02
 37.07    522.00     22.85
 37.17    539.00     23.22
 37.27    491.45     22.17
 37.37    483.00     21.98
 37.47    520.00     22.80
 37.57    510.00     22.58
 37.67    544.94     23.34
 37.77    500.00     22.36
 37.87    483.00     21.98
 37.97    518.00     22.76
 38.07    493.97     22.23
 38.17    534.24     23.11
 38.27    484.52     22.01
 38.37    472.00     21.73
 38.47    474.73     21.79
 38.57    506.35     22.50
 38.67    507.00     22.52
 38.77    468.39     21.64
 38.87    513.00     22.65
 38.97    484.90     22.02
 39.07    518.63     22.77
 39.17    476.95     21.84
 39.27    551.15     23.48
 39.37    531.60     23.06
 39.47    526.00     22.93
 39.57    548.53     23.42
 39.67    500.00     22.36
 39.77    510.24     22.59
 39.87    484.00     22.00
 39.97    528.00     22.98
 40.07    476.79     21.84
 40.17    515.00     22.69
 40.27    507.55     22.53
 40.37    534.14     23.11
 40.47    491.00     22.16
 40.57    535.13     23.13
 40.67    526.29     22.94
 40.77    536.58     23.16
 40.87    493.41     22.21
 40.97    502.00     22.41
 41.07    530.00     23.02
 41.17    509.00     22.56
 41.27    544.38     23.33
 41.37    531.00     23.04
 41.47    529.00     23.00
 41.57    479.91     21.91
 41.67    512.00     22.63
 41.77    476.44     21.83
 41.87    483.78     22.00
 41.97    502.00     22.41
 42.07    523.00     22.87
 42.17    519.00     22.78
 42.27    537.00     23.17
 42.37    584.50     24.18
 42.47    549.00     23.43
 42.57    651.34     25.52
 42.67    612.00     24.74
 42.77    629.77     25.10
 42.87    577.74     24.04
 42.97    558.00     23.62
 43.07    533.00     23.09
 43.17    545.00     23.35
 43.27    499.00     22.34
 43.37    519.00     22.78
 43.47    512.00     22.63
 43.57    523.37     22.88
 43.67    508.00     22.54
 43.77    510.00     22.58
 43.87    521.00     22.83
 43.97    494.00     22.23
 44.07    470.00     21.68
 44.17    492.99     22.20
 44.27    510.01     22.58
 44.37    539.75     23.23
 44.47    516.56     22.73
 44.57    471.00     21.70
 44.67    476.00     21.82
 44.77    486.00     22.05
 44.87    549.22     23.44
 44.97    532.00     23.07
 45.07    477.41     21.85
 45.17    495.00     22.25
 45.27    495.00     22.25
 45.37    472.67     21.74
 45.47    466.01     21.59
 45.57    520.00     22.80
 45.67    475.00     21.79
 45.77    507.35     22.52
 45.87    529.00     23.00
 45.97    467.83     21.63
 46.07    537.00     23.17
 46.17    501.00     22.38
 46.27    499.00     22.34
 46.37    466.12     21.59
 46.47    502.00     22.41
 46.57    501.00     22.38
 46.67    499.00     22.34
 46.77    519.77     22.80
 46.87    514.06     22.67
 46.97    506.69     22.51
 47.07    498.00     22.32
 47.17    501.00     22.38
 47.27    506.00     22.49
 47.37    553.93     23.54
 47.47    584.95     24.19
 47.57    565.00     23.77
 47.67    559.00     23.64
 47.77    572.58     23.93
 47.87    574.00     23.96
 47.97    643.00     25.36
 48.07    567.00     23.81
 48.17    547.00     23.39
 48.27    544.00     23.32
 48.37    544.64     23.34
 48.47    489.00     22.11
 48.57    530.35     23.03
 48.67    524.00     22.89
 48.77    548.00     23.41
 48.87    520.00     22.80
 48.97    573.44     23.95
 49.07    580.27     24.09
 49.17    537.00     23.17
 49.27    569.00     23.85
 49.37    670.08     25.89
 49.47    698.00     26.42
 49.57    763.00     27.62
 49.67    884.59     29.74
 49.77   1173.00     34.25
 49.87   1496.00     38.68
 49.97   1902.29     43.62
 50.07   2204.89     46.96
 50.17   2472.00     49.72
 50.27   2469.16     49.69
 50.37   2321.11     48.18
 50.47   1870.86     43.25
 50.57   1381.00     37.16
 50.67   1170.34     34.21
 50.77    833.00     28.86
 50.87    762.65     27.62
 50.97    629.43     25.09
 51.07    686.00     26.19
 51.17    579.09     24.06
 51.27    642.00     25.34
 51.37    613.80     24.77
 51.47    575.00     23.98
 51.57    578.00     24.04
 51.67    600.00     24.49
 51.77    548.00     23.41
 51.87    570.00     23.87
 51.97    613.00     24.76
 52.07    584.00     24.17
 52.17    514.00     22.67
 52.27    536.00     23.15
 52.37    539.00     23.22
 52.47    544.00     23.32
 52.57    577.63     24.03
 52.67    577.00     24.02
 52.77    601.00     24.52
 52.87    620.00     24.90
 52.97    699.42     26.45
 53.07    821.00     28.65
 53.17    916.00     30.27
 53.27   1070.37     32.72
 53.37   1130.00     33.62
 53.47   1225.60     35.01
 53.57   1193.00     34.54
 53.67   1105.00     33.24
 53.77   1040.00     32.25
 53.87    935.32     30.58
 53.97    726.00     26.94
 54.07    728.38     26.99
 54.17    615.00     24.80
 54.27    628.00     25.06
 54.37    633.00     25.16
 54.47    533.00     23.09
 54.57    607.00     24.64
 54.67    522.33     22.85
 54.77    527.83     22.97
 54.87    604.00     24.58
 54.97    534.16     23.11
 55.07    549.83     23.45
 55.17    501.93     22.40
 55.27    575.00     23.98
 55.37    587.00     24.23
 55.47    541.55     23.27
 55.57    562.00     23.71
 55.67    571.00     23.90
 55.77    581.00     24.10
 55.87    619.75     24.89
 55.97    639.00     25.28
 56.07    665.00     25.79
 56.17    798.28     28.25
 56.27    949.25     30.81
 56.37   1204.45     34.71
 56.47   1468.34     38.32
 56.57   1819.00     42.65
 56.67   2141.00     46.27
 56.77   2517.00     50.17
 56.87   2573.00     50.72
 56.97   2659.00     51.57
 57.07   2364.00     48.62
 57.17   2024.95     45.00
 57.27   1602.21     40.03
 57.37   1270.00     35.64
 57.47    994.00     31.53
 57.57    889.00     29.82
 57.67    710.00     26.65
 57.77    733.00     27.07
 57.87    650.41     25.50
 57.97    660.72     25.70
 58.07    635.71     25.21
 58.17    703.00     26.51
 58.27    761.00     27.59
 58.37    837.00     28.93
 58.47    871.00     29.51
 58.57   1081.56     32.89
 58.67   1135.00     33.69
 58.77   1271.74     35.66
 58.87   1334.00     36.52
 58.97   1371.66     37.04
 59.07   1487.00     38.56
 59.17   1417.04     37.64
 59.27   1419.00     37.67
 59.37   1340.00     36.61
 59.47   1204.00     34.70
 59.57   1168.64     34.19
 59.67   1057.38     32.52
 59.77   1169.00     34.19
 59.87   1257.00     35.45
 59.97   1322.00     36.36
 60.07   1411.00     37.56
 60.17   1578.00     39.72
 60.27   1612.00     40.15
 60.37   1529.00     39.10
 60.47   1429.00     37.80
 60.57   1218.81     34.91
 60.67   1150.00     33.91
 60.77    881.00     29.68
 60.87    761.79     27.60
 60.97    755.00     27.48
 61.07    672.00     25.92
 61.17    691.00     26.29
 61.27    631.00     25.12
 61.37    619.00     24.88
 61.47    667.33     25.83
 61.57    755.37     27.48
 61.67    894.37     29.91
 61.77    957.00     30.94
 61.87   1066.43     32.66
 61.97   1232.00     35.10
 62.07   1421.00     37.70
 62.17   1382.00     37.18
 62.27   1329.00     36.46
 62.37   1291.27     35.93
 62.47   1162.00     34.09
 62.57   1120.33     33.47
 62.67    870.00     29.50
 62.77    755.00     27.48
 62.87    674.00     25.96
 62.97    642.00     25.34
 63.07    576.00     24.00
 63.17    622.00     24.94
 63.27    619.92     24.90
 63.37    585.00     24.19
 63.47    591.49     24.32
 63.57    550.09     23.45
 63.67    540.99     23.26
 63.77    588.95     24.27
 63.87    653.63     25.57
 63.97    628.15     25.06
 64.07    730.00     27.02
 64.17    804.00     28.35
 64.27    930.00     30.50
 64.37    917.00     30.28
 64.47    976.00     31.24
 64.57   1036.00     32.19
 64.67    979.00     31.29
 64.77   1012.08     31.81
 64.87   1003.00     31.67
 64.97    891.00     29.85
 65.07    870.00     29.50
 65.17    844.70     29.06
 65.27    712.00     26.68
 65.37    680.00     26.08
 65.47    621.77     24.94
 65.57    616.00     24.82
 65.67    608.77     24.67
 65.77    585.00     24.19
 65.87    562.00     23.71
 65.97    578.00     24.04
 66.07    545.00     23.35
 66.17    554.00     23.54
 66.27    562.00     23.71
 66.37    556.00     23.58
 66.47    555.00     23.56
 66.57    541.50     23.27
 66.67    547.00     23.39
 66.77    603.56     24.57
 66.87    611.00     24.72
 66.97    605.00     24.60
 67.07    643.95     25.38
 67.17    665.69     25.80
 67.27    763.00     27.62
 67.37    894.00     29.90
 67.47   1077.00     32.82
 67.57   1295.00     35.99
 67.67   1534.00     39.17
 67.77   1796.00     42.38
 67.87   2042.09     45.19
 67.97   2359.00     48.57
 68.07   2478.00     49.78
 68.17   2414.00     49.13
 68.27   2213.35     47.05
 68.37   2081.50     45.62
 68.47   1834.00     42.83
 68.57   1520.89     39.00
 68.67   1289.00     35.90
 68.77   1076.48     32.81
 68.87    876.81     29.61
 68.97    788.00     28.07
 69.07    715.00     26.74
 69.17    670.00     25.88
 69.27    630.00     25.10
 69.37    590.00     24.29
 69.47    578.00     24.04
 69.57    607.00     24.64
 69.67    578.00     24.04
 69.77    549.04     23.43
 69.87    563.30     23.73
 69.97    558.00     23.62
 70.07    583.00     24.15
 70.17    555.00     23.56
 70.27    561.00     23.69
 70.37    604.58     24.59
 70.47    588.00     24.25
 70.57    548.00     23.41
 70.67    610.89     24.72
 70.77    605.00     24.60
 70.87    558.00     23.62
 70.97    614.56     24.79
 71.07    706.00     26.57
 71.17    756.00     27.50
 71.27    810.76     28.47
 71.37    981.84     31.33
 71.47   1141.00     33.78
 71.57   1236.32     35.16
 71.67   1490.74     38.61
 71.77   1647.00     40.58
 71.87   1829.42     42.77
 71.97   1944.00     44.09
 72.07   1898.00     43.57
 72.17   1893.00     43.51
 72.27   1804.00     42.47
 72.37   1608.34     40.10
 72.47   1451.00     38.09
 72.57   1260.00     35.50
 72.67   1110.00     33.32
 72.77    961.00     31.00
 72.87    969.79     31.14
 72.97    759.00     27.55
 73.07    791.00     28.12
 73.17    725.00     26.93
 73.27    624.00     24.98
 73.37    644.56     25.39
 73.47    607.00     24.64
 73.57    631.84     25.14
 73.67    587.00     24.23
 73.77    568.00     23.83
 73.87    605.00     24.60
 73.97    619.00     24.88
 74.07    631.00     25.12
 74.17    627.00     25.04
 74.27    632.00     25.14
 74.37    645.00     25.40
 74.47    569.12     23.86
 74.57    645.00     25.40
 74.67    592.86     24.35
 74.77    621.00     24.92
 74.87    638.00     25.26
 74.97    646.00     25.42
 75.07    620.00     24.90
 75.17    588.00     24.25
 75.27    521.42     22.83
 75.37    569.00     23.85
 75.47    579.00     24.06
 75.57    557.00     23.60
 75.67    581.00     24.10
 75.77    626.00     25.02
 75.87    561.00     23.69
 75.97    582.78     24.14
 76.07    589.18     24.27
 76.17    661.00     25.71
 76.27    688.00     26.23
 76.37    684.00     26.15
 76.47    687.00     26.21
 76.57    676.00     26.00
 76.67    672.00     25.92
 76.77    674.28     25.97
 76.87    634.00     25.18
 76.97    690.00     26.27
 77.07    617.00     24.84
 77.17    564.23     23.75
 77.27    599.92     24.49
 77.37    544.57     23.34
 77.47    552.31     23.50
 77.57    498.00     22.32
 77.67    529.00     23.00
 77.77    517.00     22.74
 77.87    574.00     23.96
 77.97    545.00     23.35
 78.07    480.00     21.91
 78.17    506.00     22.49
 78.27    536.00     23.15
 78.37    503.00     22.43
 78.47    467.00     21.61
 78.57    530.00     23.02
 78.67    538.26     23.20
 78.77    542.00     23.28
 78.87    559.00     23.64
 78.97    524.00     22.89
 79.07    508.52     22.55
 79.17    507.52     22.53
 79.27    532.00     23.07
 79.37    553.00     23.52
 79.47    512.00     22.63
 79.57    560.76     23.68
 79.67    553.11     23.52
 79.77    603.00     24.56
 79.87    555.00     23.56
 79.97    542.00     23.28
 80.07    544.00     23.32
 80.17    606.00     24.62
 80.27    565.21     23.77
 80.37    573.00     23.94
 80.47    575.00     23.98
 80.57    607.60     24.65
 80.67    630.00     25.10
 80.77    658.00     25.65
 80.87    704.76     26.55
 80.97    662.00     25.73
 81.07    755.48     27.49
 81.17    727.06     26.96
 81.27    770.00     27.75
 81.37    708.65     26.62
 81.47    802.00     28.32
 81.57    748.52     27.36
 81.67    767.00     27.69
 81.77    700.73     26.47
 81.87    732.70     27.07
 81.97    739.75     27.20
 82.07    675.00     25.98
 82.17    638.61     25.27
 82.27    644.00     25.38
 82.37    632.00     25.14
 82.47    601.00     24.52
 82.57    606.00     24.62
 82.67    563.00     23.73
 82.77    541.64     23.27
 82.87    551.00     23.47
 82.97    555.00     23.56
 83.07    510.00     22.58
 83.17    589.78     24.29
 83.27    553.00     23.52
 83.37    582.00     24.12
 83.47    541.25     23.26
 83.57    509.00     22.56
 83.67    540.00     23.24
 83.77    565.00     23.77
 83.87    587.00     24.23
 83.97    550.18     23.46
 84.07    545.00     23.35
 84.17    580.00     24.08
 84.27    571.08     23.90
 84.37    609.98     24.70
 84.47    577.00     24.02
 84.57    541.25     23.26
 84.67    511.35     22.61
 84.77    586.44     24.22
 84.87    522.00     22.85
 84.97    539.00     23.22
 85.07    579.46     24.07
 85.17    515.85     22.71
 85.27    545.50     23.36
 85.37    546.00     23.37
 85.47    540.00     23.24
 85.57    514.23     22.68
 85.67    558.30     23.63
 85.77    541.00     23.26
 85.87    554.62     23.55
 85.97    573.93     23.96
 86.07    532.35     23.07
 86.17    526.00     22.93
 86.27    574.89     23.98
 86.37    551.54     23.48
 86.47    526.00     22.93
 86.57    547.00     23.39
 86.67    582.00     24.12
 86.77    596.16     24.42
 86.87    639.00     25.28
 86.97    569.00     23.85
 87.07    615.00     24.80
 87.17    621.00     24.92
 87.27    648.99     25.48
 87.37    685.00     26.17
 87.47    627.00     25.04
 87.57    632.00     25.14
 87.67    620.00     24.90
 87.77    665.63     25.80
 87.87    682.00     26.12
 87.97    621.00     24.92
 88.07    597.00     24.43
 88.17    562.60     23.72
 88.27    595.00     24.39
 88.37    557.00     23.60
 88.47    568.97     23.85
 88.57    548.15     23.41
 88.67    636.00     25.22
 88.77    555.00     23.56
 88.87    605.31     24.60
 88.97    573.55     23.95
 89.07    609.00     24.68
 89.17    561.78     23.70
 89.27    668.00     25.85
 89.37    630.77     25.12
 89.47    587.00     24.23
 89.57    629.85     25.10
 89.67    607.00     24.64
 89.77    580.77     24.10
 89.87    585.00     24.19
 89.97    548.00     23.41
 90.07    546.00     23.37
 90.17    531.19     23.05
 90.27    548.00     23.41
 90.37    552.38     23.50
 90.47    527.00     22.96
 90.57    529.61     23.01
 90.67    567.00     23.81
 90.77    540.00     23.24
 90.87    505.00     22.47
 90.97    509.00     22.56
 91.07    514.00     22.67
 91.17    545.00     23.35
 91.27    537.00     23.17
 91.37    475.00     21.79
 91.47    536.00     23.15
 91.57    575.52     23.99
 91.67    526.00     22.93
 91.77    514.76     22.69
 91.87    543.00     23.30
 91.97    544.00     23.32
 92.07    572.53     23.93
 92.17    559.00     23.64
 92.27    594.00     24.37
 92.37    570.00     23.87
 92.47    663.44     25.76
 92.57    632.00     25.14
 92.67    667.00     25.83
 92.77    687.00     26.21
 92.87    707.00     26.59
 92.97    731.00     27.04
 93.07    754.09     27.46
 93.17    798.31     28.25
 93.27    803.10     28.34
 93.37    810.00     28.46
 93.47    774.30     27.83
 93.57    858.56     29.30
 93.67    829.27     28.80
 93.77    861.00     29.34
 93.87    800.94     28.30
 93.97    783.00     27.98
 94.07    916.00     30.27
 94.17    896.00     29.93
 94.27    886.00     29.77
 94.37    823.97     28.70
 94.47    846.00     29.09
 94.57    941.00     30.68
 94.67    864.97     29.41
 94.77    921.00     30.35
 94.87    850.27     29.16
 94.97    893.00     29.88
 95.07    879.00     29.65
 95.17    881.00     29.68
 95.27    825.06     28.72
 95.37    788.00     28.07
 95.47    779.96     27.93
 95.57    776.00     27.86
 95.67    726.00     26.94
 95.77    697.00     26.40
 95.87    697.00     26.40
 95.97    676.00     26.00
 96.07    644.02     25.38
 96.17    728.02     26.98
 96.27    754.21     27.46
 96.37    722.00     26.87
 96.47    860.00     29.33
 96.57    878.00     29.63
 96.67    984.00     31.37
 96.77   1013.00     31.83
 96.87   1106.61     33.27
 96.97   1118.00     33.44
 97.07   1232.00     35.10
 97.17   1338.41     36.58
 97.27   1403.91     37.47
 97.37   1418.65     37.66
 97.47   1459.00     38.20
 97.57   1466.00     38.29
 97.67   1384.48     37.21
 97.77   1372.00     37.04
 97.87   1353.00     36.78
 97.97   1319.00     36.32
 98.07   1287.30     35.88
 98.17   1202.58     34.68
 98.27   1089.00     33.00
 98.37   1038.82     32.23
 98.47    950.00     30.82
 98.57    941.00     30.68
 98.67    867.99     29.46
 98.77    804.31     28.36
 98.87    832.66     28.86
 98.97    787.18     28.06
 99.07    827.00     28.76
 99.17    894.17     29.90
 99.27    845.04     29.07
 99.37    910.22     30.17
 99.47   1029.63     32.09
 99.57   1088.00     32.98
 99.67   1193.00     34.54
 99.77   1297.48     36.02
 99.87   1370.00     37.01
 99.97   1512.00     38.88
100.07   1668.60     40.85
100.17   1774.00     42.12
100.27   1780.00     42.19
100.37   1876.00     43.31
100.47   2051.00     45.29
100.57   1968.78     44.37
100.67   2137.00     46.23
100.77   2082.00     45.63
100.87   2019.32     44.94
100.97   2057.43     45.36
101.07   1986.00     44.56
101.17   1867.00     43.21
101.27   1801.00     42.44
101.37   1679.00     40.98
101.47   1542.00     39.27
101.57   1539.00     39.23
101.67   1460.54     38.22
101.77   1402.14     37.45
101.87   1335.00     36.54
101.97   1175.00     34.28
102.07   1226.00     35.01
102.17   1099.00     33.15
102.27   1200.67     34.65
102.37   1113.00     33.36
102.47   1051.00     32.42
102.57   1064.00     32.62
102.67   1093.00     33.06
102.77   1010.00     31.78
102.87    997.00     31.58
102.97    977.00     31.26
103.07    892.07     29.87
103.17    885.00     29.75
103.27    865.00     29.41
103.37    845.00     29.07
103.47    810.00     28.46
103.57    716.00     26.76
103.67    768.00     27.71
103.77    675.00     25.98
103.87    683.00     26.13
103.97    602.00     24.54
104.07    573.26     23.94
104.17    543.37     23.31
104.27    603.00     24.56
104.37    586.00     24.21
104.47    578.91     24.06
104.57    562.00     23.71
104.67    533.43     23.10
104.77    539.00     23.22
104.87    560.00     23.66
104.97    553.00     23.52
105.07    496.20     22.28
105.17    548.00     23.41
105.27    567.33     23.82
105.37    550.00     23.45
105.47    521.00     22.83
105.57    575.00     23.98
105.67    589.00     24.27
105.77    536.50     23.16
105.87    522.21     22.85
105.97    571.49     23.91
106.07    580.00     24.08
106.17    576.00     24.00
106.27    631.00     25.12
106.37    608.68     24.67
106.47    615.00     24.80
106.57    677.37     26.03
106.67    678.53     26.05
106.77    673.20     25.95
106.87    704.12     26.54
106.97    677.13     26.02
107.07    697.00     26.40
107.17    636.00     25.22
107.27    655.21     25.60
107.37    685.00     26.17
107.47    676.00     26.00
107.57    666.00     25.81
107.67    708.64     26.62
107.77    658.55     25.66
107.87    753.48     27.45
107.97    734.00     27.09
108.07    710.00     26.65
108.17    687.00     26.21
108.27    701.76     26.49
108.37    681.00     26.10
108.47    670.00     25.88
108.57    668.58     25.86
108.67    687.00     26.21
108.77    674.00     25.96
108.87    739.28     27.19
108.97    655.00     25.59
109.07    661.62     25.72
109.17    660.00     25.69
109.27    719.00     26.81
109.37    652.00     25.53
109.47    610.00     24.70
109.57    632.22     25.14
109.67    619.00     24.88
109.77    623.00     24.96
109.87    605.29     24.60
109.97    597.00     24.43
110.07    607.53     24.65
110.17    591.00     24.31
110.27    584.00     24.17
110.37    592.52     24.34
110.47    554.00     23.54
110.57    556.00     23.58
110.67    568.00     23.83
110.77    496.04     22.27
110.87    564.00     23.75
110.97    578.00     24.04
111.07    522.33     22.85
111.17    541.00     23.26
111.27    547.00     23.39
111.37    546.00     23.37
111.47    577.99     24.04
111.57    515.00     22.69
111.67    575.00     23.98
111.77    590.00     24.29
111.87    580.00     24.08
111.97    564.00     23.75
112.07    604.57     24.59
112.17    551.22     23.48
112.27    607.00     24.64
112.37    597.15     24.44
112.47    618.29     24.87
112.57    600.00     24.49
112.67    577.00     24.02
112.77    634.00     25.18
112.87    627.00     25.04
112.97    636.00     25.22
113.07    665.00     25.79
113.17    657.00     25.63
113.27    660.00     25.69
113.37    682.00     26.12
113.47    774.29     27.83
113.57    735.00     27.11
113.67    823.00     28.69
113.77    795.00     28.20
113.87    817.00     28.58
113.97    925.89     30.43
114.07    994.00     31.53
114.17    951.00     30.84
114.27   1052.00     32.43
114.37   1122.00     33.50
114.47   1185.00     34.42
114.57   1303.00     36.10
114.67   1552.00     39.40
114.77   1647.58     40.59
114.87   1886.24     43.43
114.97   2052.59     45.31
115.07   2168.34     46.57
115.17   2522.40     50.22
115.27   3022.00     54.97
115.37   3105.18     55.72
115.47   3459.00     58.81
115.57   3724.35     61.03
115.67   4351.00     65.96
115.77   4606.00     67.87
115.87   4923.93     70.17
115.97   5306.63     72.85
116.07   5690.35     75.43
116.17   5907.00     76.86
116.27   6225.00     78.90
116.37   6647.00     81.53
116.47   6757.06     82.20
116.57   6920.10     83.19
116.67   6926.33     83.22
116.77   6851.00     82.77
116.87   6710.87     81.92
116.97   6575.00     81.09
117.07   6385.00     79.91
117.17   6095.84     78.08
117.27   5560.00     74.57
117.37   5423.53     73.64
117.47   4969.32     70.49
117.57   4688.86     68.48
117.67   4173.00     64.60
117.77   3827.00     61.86
117.87   3579.00     59.82
117.97   3133.00     55.97
118.07   2880.00     53.67
118.17   2541.00     50.41
118.27   2248.53     47.42
118.37   2059.62     45.38
118.47   1746.00     41.79
118.57   1590.00     39.87
118.67   1400.00     37.42
118.77   1200.00     34.64
118.87   1116.00     33.41
118.97   1085.19     32.94
119.07    948.00     30.79
119.17    892.00     29.87
119.27    805.23     28.38
119.37    802.00     28.32
119.47    745.55     27.30
119.57    734.74     27.11
119.67    671.31     25.91
119.77    675.00     25.98
119.87    669.00     25.87
119.97    634.43     25.19
120.07    589.00     24.27
120.17    580.00     24.08
120.27    561.00     23.69
120.37    566.00     23.79
120.47    595.16     24.40
120.57    599.00     24.47
120.67    621.20     24.92
120.77    536.00     23.15
120.87    528.00     22.98
120.97    588.00     24.25
121.07    584.00     24.17
121.17    603.00     24.56
121.27    597.37     24.44
121.37    569.00     23.85
121.47    611.83     24.74
121.57    627.60     25.05
121.67    584.00     24.17
121.77    562.78     23.72
121.87    623.00     24.96
121.97    588.00     24.25
122.07    613.63     24.77
122.17    628.00     25.06
122.27    662.96     25.75
122.37    615.00     24.80
122.47    629.07     25.08
122.57    653.52     25.56
122.67    600.00     24.49
122.77    646.00     25.42
122.87    619.98     24.90
122.97    629.20     25.08
123.07    616.99     24.84
123.17    672.38     25.93
123.27    665.05     25.79
123.37    647.28     25.44
123.47    652.00     25.53
123.57    612.41     24.75
123.67    659.06     25.67
123.77    650.00     25.50
123.87    603.25     24.56
123.97    629.20     25.08
124.07    651.31     25.52
124.17    603.00     24.56
124.27    611.00     24.72
124.37    608.00     24.66
124.47    567.67     23.83
124.57    616.50     24.83
124.67    620.15     24.90
124.77    612.00     24.74
124.87    563.67     23.74
124.97    577.22     24.03
