XYDATA



INTER 1.0 1.0 0 0
TEMP 1074.0
  9.97    575.00     23.98
 10.07    581.00     24.10
 10.17    600.00     24.49
 10.27    587.00     24.23
 10.37    555.00     23.56
 10.47    619.00     24.88
 10.57    606.00     24.62
 10.67    577.00     24.02
 10.77    589.00     24.27
 10.87    628.00     25.06
 10.97    552.88     23.51
 11.07    610.37     24.71
 11.17    642.00     25.34
 11.27    604.00     24.58
 11.37    561.69     23.70
 11.47    582.00     24.12
 11.57    621.00     24.92
 11.67    621.00     24.92
 11.77    632.00     25.14
 11.87    642.00     25.34
 11.97    684.16     26.16
 12.07    628.77     25.08
 12.17    657.58     25.64
 12.27    729.00     27.00
 12.37    636.00     25.22
 12.47    627.00     25.04
 12.57    574.00     23.96
 12.67    571.00     23.90
 12.77    586.00     24.21
 12.87    558.00     23.62
 12.97    547.00     23.39
 13.07    579.00     24.06
 13.17    617.81     24.86
 13.27    570.00     23.87
 13.37    596.00     24.41
 13.47    607.86     24.65
 13.57    605.85     24.61
 13.67    562.00     23.71
 13.77    533.11     23.09
 13.87    604.00     24.58
 13.97    536.93     23.17
 14.07    553.00     23.52
 14.17    558.00     23.62
 14.27    587.00     24.23
 14.37    534.00     23.11
 14.47    548.00     23.41
 14.57    598.00     24.45
 14.67    540.00     23.24
 14.77    529.00     23.00
 14.87    582.00     24.12
 14.97    588.27     24.25
 15.07    520.00     22.80
 15.17    565.29     23.78
 15.27    548.00     23.41
 15.37    567.00     23.81
 15.47    539.46     23.23
 15.57    534.00     23.11
 15.67    576.00     24.00
 15.77    585.00     24.19
 15.87    553.00     23.52
 15.97    549.00     23.43
 16.07    568.00     23.83
 16.17    518.00     22.76
 16.27    599.79     24.49
 16.37    578.20     24.05
 16.47    596.00     24.41
 16.57    563.00     23.73
 16.67    577.00     24.02
 16.77    597.62     24.45
 16.87    550.46     23.46
 16.97    535.38     23.14
 17.07    538.50     23.21
 17.17    564.00     23.75
 17.27    573.00     23.94
 17.37    587.00     24.23
 17.47    575.00     23.98
 17.57    592.00     24.33
 17.67    588.00     24.25
 17.77    566.00     23.79
 17.87    535.32     23.14
 17.97    580.00     24.08
 18.07    579.00     24.06
 18.17    597.85     24.45
 18.27    551.00     23.47
 18.37    512.00     22.63
 18.47    551.42     23.48
 18.57    530.44     23.03
 18.67    554.09     23.54
 18.77    535.00     23.13
 18.87    594.00     24.37
 18.97    544.00     23.32
 19.07    551.00     23.47
 19.17    579.00     24.06
 19.27    579.00     24.06
 19.37    539.00     23.22
 19.47    521.41     22.83
 19.57    604.40     24.58
 19.67    567.00     23.81
 19.77    577.00     24.02
 19.87    553.00     23.52
 19.97    547.00     23.39
 20.07    551.00     23.47
 20.17    510.00     22.58
 20.27    556.00     23.58
 20.37    505.00     22.47
 20.47    551.00     23.47
 20.57    540.00     23.24
 20.67    556.83     23.60
 20.77    539.00     23.22
 20.87    546.99     23.39
 20.97    542.00     23.28
 21.07    587.00     24.23
 21.17    542.70     23.30
 21.27    546.00     23.37
 21.37    509.05     22.56
 21.47    515.00     22.69
 21.57    569.63     23.87
 21.67    552.00     23.49
 21.77    553.58     23.53
 21.87    540.00     23.24
 21.97    589.71     24.28
 22.07    574.00     23.96
 22.17    567.00     23.81
 22.27    525.00     22.91
 22.37    516.00     22.72
 22.47    566.22     23.80
 22.57    567.97     23.83
 22.67    580.00     24.08
 22.77    555.00     23.56
 22.87    510.00     22.58
 22.97    531.00     23.04
 23.07    557.00     23.60
 23.17    514.00     22.67
 23.27    541.00     23.26
 23.37    578.66     24.06
 23.47    538.00     23.19
 23.57    562.00     23.71
 23.67    551.00     23.47
 23.77    582.00     24.12
 23.87    574.73     23.97
 23.97    555.00     23.56
 24.07    585.79     24.20
 24.17    569.00     23.85
 24.27    580.00     24.08
 24.37    589.23     24.27
 24.47    570.85     23.89
 24.57    638.51     25.27
 24.67    595.00     24.39
 24.77    610.03     24.70
 24.87    612.77     24.75
 24.97    601.00     24.52
 25.07    616.00     24.82
 25.17    551.00     23.47
 25.27    575.54     23.99
 25.37    551.00     23.47
 25.47    513.39     22.66
 25.57    534.00     23.11
 25.67    536.00     23.15
 25.77    508.00     22.54
 25.87    529.00     23.00
 25.97    519.84     22.80
 26.07    526.00     22.93
 26.17    580.71     24.10
 26.27    563.00     23.73
 26.37    571.00     23.90
 26.47    518.15     22.76
 26.57    549.37     23.44
 26.67    524.00     22.89
 26.77    514.85     22.69
 26.87    555.00     23.56
 26.97    542.00     23.28
 27.07    500.75     22.38
 27.17    561.00     23.69
 27.27    566.00     23.79
 27.37    550.00     23.45
 27.47    561.04     23.69
 27.57    585.00     24.19
 27.67    568.00     23.83
 27.77    573.00     23.94
 27.87    612.00     24.74
 27.97    620.00     24.90
 28.07    782.00     27.96
 28.17    948.60     30.80
 28.27    969.00     31.13
 28.37    938.00     30.63
 28.47    792.00     28.14
 28.57    694.21     26.35
 28.67    718.68     26.81
 28.77    745.00     27.29
 28.87    787.00     28.05
 28.97    834.81     28.89
 29.07    806.55     28.40
 29.17    683.00     26.13
 29.27    681.00     26.10
 29.37    597.00     24.43
 29.47    607.00     24.64
 29.57    676.00     26.00
 29.67    618.57     24.87
 29.77    596.00     24.41
 29.87    564.00     23.75
 29.97    580.80     24.10
 30.07    558.00     23.62
 30.17    550.00     23.45
 30.27    550.80     23.47
 30.37    522.63     22.86
 30.47    560.59     23.68
 30.57    571.00     23.90
 30.67    517.00     22.74
 30.77    640.00     25.30
 30.87    643.00     25.36
 30.97    644.59     25.39
 31.07    610.00     24.70
 31.17    571.15     23.90
 31.27    590.00     24.29
 31.37    555.00     23.56
 31.47    527.56     22.97
 31.57    521.54     22.84
 31.67    582.00     24.12
 31.77    504.13     22.45
 31.87    558.00     23.62
 31.97    519.00     22.78
 32.07    528.00     22.98
 32.17    491.65     22.17
 32.27    511.84     22.62
 32.37    573.92     23.96
 32.47    508.63     22.55
 32.57    556.00     23.58
 32.67    562.27     23.71
 32.77    570.00     23.87
 32.87    581.00     24.10
 32.97    536.00     23.15
 33.07    557.00     23.60
 33.17    537.92     23.19
 33.27    546.57     23.38
 33.37    506.00     22.49
 33.47    592.00     24.33
 33.57    601.64     24.53
 33.67    665.00     25.79
 33.77    733.00     27.07
 33.87    849.00     29.14
 33.97   1040.31     32.25
 34.07   1075.00     32.79
 34.17   1008.00     31.75
 34.27    926.15     30.43
 34.37    798.48     28.26
 34.47    665.00     25.79
 34.57    579.00     24.06
 34.67    542.94     23.30
 34.77    553.11     23.52
 34.87    533.00     23.09
 34.97    546.00     23.37
 35.07    544.00     23.32
 35.17    502.41     22.41
 35.27    507.00     22.52
 35.37    562.48     23.72
 35.47    526.00     22.93
 35.57    503.00     22.43
 35.67    534.00     23.11
 35.77    497.00     22.29
 35.87    497.94     22.31
 35.97    493.50     22.21
 36.07    505.00     22.47
 36.17    491.00     22.16
 36.27    497.00     22.29
 36.37    511.46     22.62
 36.47    479.00     21.89
 36.57    530.00     23.02
 36.67    534.00     23.11
 36.77    516.00     22.72
 36.87    534.00     23.11
 36.97    536.00     23.15
 37.07    482.34     21.96
 37.17    525.00     22.91
 37.27    541.51     23.27
 37.37    493.80     22.22
 37.47    529.00     23.00
 37.57    553.00     23.52
 37.67    500.99     22.38
 37.77    502.00     22.41
 37.87    485.00     22.02
 37.97    533.00     23.09
 38.07    518.00     22.76
 38.17    481.26     21.94
 38.27    522.78     22.86
 38.37    505.05     22.47
 38.47    547.00     23.39
 38.57    519.00     22.78
 38.67    530.10     23.02
 38.77    519.18     22.79
 38.87    477.00     21.84
 38.97    538.00     23.19
 39.07    488.50     22.10
 39.17    478.71     21.88
 39.27    484.00     22.00
 39.37    538.10     23.20
 39.47    498.00     22.32
 39.57    496.10     22.27
 39.67    522.00     22.85
 39.77    535.30     23.14
 39.87    523.00     22.87
 39.97    515.00     22.69
 40.07    511.69     22.62
 40.17    512.00     22.63
 40.27    510.00     22.58
 40.37    496.00     22.27
 40.47    475.00     21.79
 40.57    521.00     22.83
 40.67    543.30     23.31
 40.77    493.00     22.20
 40.87    468.00     21.63
 40.97    492.00     22.18
 41.07    477.80     21.86
 41.17    489.00     22.11
 41.27    542.71     23.30
 41.37    532.72     23.08
 41.47    527.00     22.96
 41.57    507.12     22.52
 41.67    536.00     23.15
 41.77    534.11     23.11
 41.87    470.00     21.68
 41.97    469.00     21.66
 42.07    487.87     22.09
 42.17    521.91     22.85
 42.27    532.00     23.07
 42.37    558.45     23.63
 42.47    591.40     24.32
 42.57    572.36     23.92
 42.67    587.00     24.23
 42.77    609.00     24.68
 42.87    650.43     25.50
 42.97    565.00     23.77
 43.07    584.15     24.17
 43.17    512.00     22.63
 43.27    512.00     22.63
 43.37    502.00     22.41
 43.47    474.00     21.77
 43.57    536.00     23.15
 43.67    526.00     22.93
 43.77    549.04     23.43
 43.87    530.00     23.02
 43.97    530.00     23.02
 44.07    485.00     22.02
 44.17    521.48     22.84
 44.27    488.00     22.09
 44.37    512.00     22.63
 44.47    481.78     21.95
 44.57    487.23     22.07
 44.67    507.00     22.52
 44.77    529.00     23.00
 44.87    542.00     23.28
 44.97    517.00     22.74
 45.07    480.00     21.91
 45.17    509.00     22.56
 45.27    516.00     22.72
 45.37    504.65     22.46
 45.47    504.31     22.46
 45.57    502.00     22.41
 45.67    517.00     22.74
 45.77    498.00     22.32
 45.87    497.00     22.29
 45.97    534.00     23.11
 46.07    563.00     23.73
 46.17    544.86     23.34
 46.27    517.00     22.74
 46.37    502.00     22.41
 46.47    494.00     22.23
 46.57    495.00     22.25
 46.67    525.00     22.91
 46.77    523.00     22.87
 46.87    531.44     23.05
 46.97    555.55     23.57
 47.07    530.41     23.03
 47.17    477.75     21.86
 47.27    513.00     22.65
 47.37    534.00     23.11
 47.47    581.65     24.12
 47.57    534.00     23.11
 47.67    600.00     24.49
 47.77    581.00     24.10
 47.87    631.59     25.13
 47.97    597.49     24.44
 48.07    578.00     24.04
 48.17    592.00     24.33
 48.27    585.69     24.20
 48.37    537.00     23.17
 48.47    528.00     22.98
 48.57    539.00     23.22
 48.67    515.96     22.71
 48.77    532.00     23.07
 48.87    537.00     23.17
 48.97    539.00     23.22
 49.07    524.00     22.89
 49.17    567.00     23.81
 49.27    647.00     25.44
 49.37    652.00     25.53
 49.47    717.00     26.78
 49.57    787.00     28.05
 49.67    889.00     29.82
 49.77   1097.50     33.13
 49.87   1456.00     38.16
 49.97   1912.00     43.73
 50.07   2287.97     47.83
 50.17   2516.00     50.16
 50.27   2576.00     50.75
 50.37   2270.00     47.64
 50.47   1932.00     43.95
 50.57   1422.53     37.72
 50.67   1040.00     32.25
 50.77    861.00     29.34
 50.87    719.00     26.81
 50.97    700.49     26.47
 51.07    615.00     24.80
 51.17    621.83     24.94
 51.27    584.00     24.17
 51.37    576.00     24.00
 51.47    563.72     23.74
 51.57    522.00     22.85
 51.67    524.33     22.90
 51.77    570.00     23.87
 51.87    547.00     23.39
 51.97    495.34     22.26
 52.07    550.20     23.46
 52.17    514.29     22.68
 52.27    568.65     23.85
 52.37    534.76     23.12
 52.47    557.00     23.60
 52.57    530.00     23.02
 52.67    573.00     23.94
 52.77    603.78     24.57
 52.87    642.00     25.34
 52.97    687.00     26.21
 53.07    880.00     29.66
 53.17    844.99     29.07
 53.27   1042.00     32.28
 53.37   1098.00     33.14
 53.47   1218.00     34.90
 53.57   1165.00     34.13
 53.67   1108.00     33.29
 53.77   1004.00     31.69
 53.87    844.70     29.06
 53.97    715.00     26.74
 54.07    646.20     25.42
 54.17    608.52     24.67
 54.27    549.02     23.43
 54.37    547.00     23.39
 54.47    560.00     23.66
 54.57    583.00     24.15
 54.67    527.59     22.97
 54.77    567.00     23.81
 54.87    541.02     23.26
 54.97    551.47     23.48
 55.07    524.00     22.89
 55.17    576.00     24.00
 55.27    571.00     23.90
 55.37    551.00     23.47
 55.47    587.86     24.25
 55.57    596.79     24.43
 55.67    527.70     22.97
 55.77    620.00     24.90
 55.87    597.00     24.43
 55.97    655.23     25.60
 56.07    691.00     26.29
 56.17    744.53     27.29
 56.27    900.08     30.00
 56.37   1083.00     32.91
 56.47   1494.83     38.66
 56.57   1742.00     41.74
 56.67   2237.49     47.30
 56.77   2600.97     51.00
 56.87   2587.00     50.86
 56.97   2532.20     50.32
 57.07   2360.00     48.58
 57.17   2095.00     45.77
 57.27   1683.00     41.02
 57.37   1289.93     35.92
 57.47   1041.00     32.26
 57.57    857.00     29.27
 57.67    815.00     28.55
 57.77    713.00     26.70
 57.87    653.37     25.56
 57.97    670.00     25.88
 58.07    707.00     26.59
 58.17    705.00     26.55
 58.27    800.80     28.30
 58.37    849.00     29.14
 58.47    984.00     31.37
 58.57   1093.00     33.06
 58.67   1189.52     34.49
 58.77   1413.00     37.59
 58.87   1551.00     39.38
 58.97   1606.48     40.08
 59.07   1591.00     39.89
 59.17   1452.03     38.11
 59.27   1423.00     37.72
 59.37   1409.00     37.54
 59.47   1171.00     34.22
 59.57   1112.00     33.35
 59.67   1172.00     34.23
 59.77   1158.00     34.03
 59.87   1143.01     33.81
 59.97   1332.81     36.51
 60.07   1372.74     37.05
 60.17   1575.00     39.69
 60.27   1576.00     39.70
 60.37   1482.00     38.50
 60.47   1449.00     38.07
 60.57   1235.00     35.14
 60.67   1141.00     33.78
 60.77    912.00     30.20
 60.87    838.25     28.95
 60.97    706.00     26.57
 61.07    648.00     25.46
 61.17    594.00     24.37
 61.27    596.86     24.43
 61.37    621.00     24.92
 61.47    649.67     25.49
 61.57    751.00     27.40
 61.67    814.00     28.53
 61.77    917.00     30.28
 61.87   1081.00     32.88
 61.97   1249.15     35.34
 62.07   1312.00     36.22
 62.17   1461.94     38.24
 62.27   1414.00     37.60
 62.37   1289.00     35.90
 62.47   1154.97     33.98
 62.57   1063.00     32.60
 62.67    857.00     29.27
 62.77    757.00     27.51
 62.87    686.00     26.19
 62.97    684.00     26.15
 63.07    541.00     23.26
 63.17    563.96     23.75
 63.27    525.00     22.91
 63.37    540.00     23.24
 63.47    585.00     24.19
 63.57    595.00     24.39
 63.67    601.97     24.54
 63.77    619.00     24.88
 63.87    639.28     25.28
 63.97    672.00     25.92
 64.07    734.00     27.09
 64.17    744.14     27.28
 64.27    784.66     28.01
 64.37    905.00     30.08
 64.47    942.23     30.70
 64.57   1032.00     32.12
 64.67   1080.00     32.86
 64.77   1079.00     32.85
 64.87    904.17     30.07
 64.97    937.00     30.61
 65.07    910.00     30.17
 65.17    743.00     27.26
 65.27    716.01     26.76
 65.37    682.00     26.12
 65.47    669.00     25.87
 65.57    603.00     24.56
 65.67    629.00     25.08
 65.77    580.00     24.08
 65.87    587.08     24.23
 65.97    580.00     24.08
 66.07    574.17     23.96
 66.17    554.00     23.54
 66.27    532.87     23.08
 66.37    542.42     23.29
 66.47    536.00     23.15
 66.57    556.00     23.58
 66.67    577.00     24.02
 66.77    544.00     23.32
 66.87    590.00     24.29
 66.97    567.06     23.81
 67.07    625.00     25.00
 67.17    683.06     26.14
 67.27    778.00     27.89
 67.37    880.00     29.66
 67.47   1094.45     33.08
 67.57   1326.00     36.41
 67.67   1433.00     37.85
 67.77   1766.00     42.02
 67.87   2089.78     45.71
 67.97   2295.00     47.91
 68.07   2442.00     49.42
 68.17   2474.00     49.74
 68.27   2271.00     47.66
 68.37   2073.00     45.53
 68.47   1724.00     41.52
 68.57   1549.00     39.36
 68.67   1298.00     36.03
 68.77   1058.00     32.53
 68.87    931.15     30.51
 68.97    803.00     28.34
 69.07    754.00     27.46
 69.17    644.06     25.38
 69.27    648.00     25.46
 69.37    640.00     25.30
 69.47    633.00     25.16
 69.57    594.00     24.37
 69.67    590.99     24.31
 69.77    583.32     24.15
 69.87    593.00     24.35
 69.97    603.00     24.56
 70.07    565.29     23.78
 70.17    585.00     24.19
 70.27    571.00     23.90
 70.37    578.77     24.06
 70.47    508.00     22.54
 70.57    536.00     23.15
 70.67    611.00     24.72
 70.77    613.00     24.76
 70.87    606.39     24.63
 70.97    613.00     24.76
 71.07    673.00     25.94
 71.17    758.00     27.53
 71.27    847.46     29.11
 71.37    890.70     29.84
 71.47   1062.84     32.60
 71.57   1287.00     35.87
 71.67   1374.00     37.07
 71.77   1544.00     39.29
 71.87   1849.26     43.00
 71.97   1935.00     43.99
 72.07   1897.41     43.56
 72.17   1946.42     44.12
 72.27   1765.00     42.01
 72.37   1683.00     41.02
 72.47   1513.00     38.90
 72.57   1337.00     36.57
 72.67   1209.03     34.77
 72.77   1148.77     33.89
 72.87    972.35     31.18
 72.97    926.81     30.44
 73.07    868.98     29.48
 73.17    752.00     27.42
 73.27    717.00     26.78
 73.37    670.06     25.89
 73.47    646.00     25.42
 73.57    624.00     24.98
 73.67    665.95     25.81
 73.77    646.45     25.43
 73.87    599.00     24.47
 73.97    574.00     23.96
 74.07    579.86     24.08
 74.17    532.97     23.09
 74.27    629.00     25.08
 74.37    555.02     23.56
 74.47    571.14     23.90
 74.57    550.09     23.45
 74.67    560.64     23.68
 74.77    576.16     24.00
 74.87    639.00     25.28
 74.97    637.00     25.24
 75.07    612.00     24.74
 75.17    552.00     23.49
 75.27    598.00     24.45
 75.37    610.00     24.70
 75.47    548.26     23.41
 75.57    534.25     23.11
 75.67    594.55     24.38
 75.77    570.26     23.88
 75.87    578.00     24.04
 75.97    627.06     25.04
 76.07    659.00     25.67
 76.17    620.00     24.90
 76.27    698.00     26.42
 76.37    735.05     27.11
 76.47    687.00     26.21
 76.57    683.47     26.14
 76.67    701.42     26.48
 76.77    663.00     25.75
 76.87    678.00     26.04
 76.97    660.44     25.70
 77.07    564.00     23.75
 77.17    587.42     24.24
 77.27    546.86     23.39
 77.37    549.00     23.43
 77.47    521.00     22.83
 77.57    572.41     23.93
 77.67    569.15     23.86
 77.77    504.00     22.45
 77.87    537.25     23.18
 77.97    553.00     23.52
 78.07    533.00     23.09
 78.17    540.00     23.24
 78.27    526.00     22.93
 78.37    548.88     23.43
 78.47    540.00     23.24
 78.57    489.00     22.11
 78.67    510.00     22.58
 78.77    520.00     22.80
 78.87    504.35     22.46
 78.97    506.00     22.49
 79.07    519.00     22.78
 79.17    571.48     23.91
 79.27    526.00     22.93
 79.37    541.00     23.26
 79.47    560.20     23.67
 79.57    494.92     22.25
 79.67    564.00     23.75
 79.77    513.00     22.65
 79.87    510.00     22.58
 79.97    572.00     23.92
 80.07    525.10     22.92
 80.17    601.51     24.53
 80.27    575.00     23.98
 80.37    542.00     23.28
 80.47    621.00     24.92
 80.57    652.51     25.54
 80.67    627.29     25.05
 80.77    600.62     24.51
 80.87    659.00     25.67
 80.97    637.00     25.24
 81.07    718.00     26.80
 81.17    734.39     27.10
 81.27    725.00     26.93
 81.37    787.06     28.05
 81.47    779.00     27.91
 81.57    744.00     27.28
 81.67    771.00     27.77
 81.77    764.64     27.65
 81.87    682.83     26.13
 81.97    647.00     25.44
 82.07    677.00     26.02
 82.17    644.00     25.38
 82.27    628.00     25.06
 82.37    627.00     25.04
 82.47    545.00     23.35
 82.57    620.00     24.90
 82.67    558.28     23.63
 82.77    537.86     23.19
 82.87    554.75     23.55
 82.97    539.11     23.22
 83.07    572.00     23.92
 83.17    545.00     23.35
 83.27    580.00     24.08
 83.37    553.13     23.52
 83.47    555.00     23.56
 83.57    487.00     22.07
 83.67    547.14     23.39
 83.77    612.93     24.76
 83.87    540.00     23.24
 83.97    536.00     23.15
 84.07    563.14     23.73
 84.17    578.00     24.04
 84.27    551.00     23.47
 84.37    554.00     23.54
 84.47    565.75     23.79
 84.57    552.00     23.49
 84.67    574.00     23.96
 84.77    577.70     24.04
 84.87    573.00     23.94
 84.97    522.00     22.85
 85.07    560.91     23.68
 85.17    523.36     22.88
 85.27    537.00     23.17
 85.37    551.00     23.47
 85.47    500.44     22.37
 85.57    513.00     22.65
 85.67    533.00     23.09
 85.77    520.00     22.80
 85.87    549.00     23.43
 85.97    572.00     23.92
 86.07    541.17     23.26
 86.17    529.00     23.00
 86.27    502.97     22.43
 86.37    495.00     22.25
 86.47    568.00     23.83
 86.57    578.00     24.04
 86.67    561.67     23.70
 86.77    613.00     24.76
 86.87    595.00     24.39
 86.97    644.05     25.38
 87.07    592.20     24.34
 87.17    643.00     25.36
 87.27    671.00     25.90
 87.37    600.89     24.51
 87.47    660.00     25.69
 87.57    640.42     25.31
 87.67    651.00     25.51
 87.77    640.37     25.31
 87.87    607.43     24.65
 87.97    665.00     25.79
 88.07    589.00     24.27
 88.17    601.00     24.52
 88.27    582.00     24.12
 88.37    582.91     24.14
 88.47    543.00     23.30
 88.57    620.00     24.90
 88.67    599.00     24.47
 88.77    536.77     23.17
 88.87    597.95     24.45
 88.97    605.00     24.60
 89.07    590.00     24.29
 89.17    595.16     24.40
 89.27    591.00     24.31
 89.37    573.00     23.94
 89.47    587.92     24.25
 89.57    569.00     23.85
 89.67    597.11     24.44
 89.77    629.73     25.09
 89.87    615.00     24.80
 89.97    541.13     23.26
 90.07    519.00     22.78
 90.17    567.37     23.82
 90.27    500.00     22.36
 90.37    545.00     23.35
 90.47    528.00     22.98
 90.57    521.00     22.83
 90.67    571.00     23.90
 90.77    499.00     22.34
 90.87    521.92     22.85
 90.97    517.49     22.75
 91.07    513.00     22.65
 91.17    563.52     23.74
 91.27    543.55     23.31
 91.37    505.00     22.47
 91.47    506.09     22.50
 91.57    512.00     22.63
 91.67    535.26     23.14
 91.77    556.89     23.60
 91.87    516.00     22.72
 91.97    602.00     24.54
 92.07    528.00     22.98
 92.17    613.04     24.76
 92.27    609.00     24.68
 92.37    606.00     24.62
 92.47    625.44     25.01
 92.57    618.11     24.86
 92.67    671.00     25.90
 92.77    633.00     25.16
 92.87    703.00     26.51
 92.97    774.00     27.82
 93.07    725.65     26.94
 93.17    759.00     27.55
 93.27    750.24     27.39
 93.37    815.65     28.56
 93.47    774.00     27.82
 93.57    860.00     29.33
 93.67    787.38     28.06
 93.77    832.00     28.84
 93.87    831.00     28.83
 93.97    819.00     28.62
 94.07    833.00     28.86
 94.17    869.00     29.48
 94.27    839.86     28.98
 94.37    874.00     29.56
 94.47    922.18     30.37
 94.57    829.67     28.80
 94.67    935.39     30.58
 94.77    951.00     30.84
 94.87    912.00     30.20
 94.97    950.00     30.82
 95.07    939.00     30.64
 95.17    857.00     29.27
 95.27    857.65     29.29
 95.37    762.80     27.62
 95.47    819.00     28.62
 95.57    756.00     27.50
 95.67    771.00     27.77
 95.77    694.00     26.34
 95.87    697.99     26.42
 95.97    688.00     26.23
 96.07    680.80     26.09
 96.17    685.58     26.18
 96.27    759.00     27.55
 96.37    776.01     27.86
 96.47    783.33     27.99
 96.57    845.25     29.07
 96.67    943.00     30.71
 96.77    988.00     31.43
 96.87   1062.64     32.60
 96.97   1183.00     34.39
 97.07   1159.12     34.05
 97.17   1398.00     37.39
 97.27   1352.09     36.77
 97.37   1345.82     36.69
 97.47   1393.00     37.32
 97.57   1446.86     38.04
 97.67   1479.00     38.46
 97.77   1437.00     37.91
 97.87   1366.48     36.97
 97.97   1322.00     36.36
 98.07   1256.00     35.44
 98.17   1117.22     33.42
 98.27   1070.95     32.73
 98.37   1029.00     32.08
 98.47    983.16     31.36
 98.57    927.09     30.45
 98.67    834.73     28.89
 98.77    798.00     28.25
 98.87    796.00     28.21
 98.97    861.78     29.36
 99.07    781.00     27.95
 99.17    900.18     30.00
 99.27    847.57     29.11
 99.37    977.18     31.26
 99.47    999.00     31.61
 99.57   1142.97     33.81
 99.67   1178.00     34.32
 99.77   1288.00     35.89
 99.87   1401.00     37.43
 99.97   1526.33     39.07
100.07   1596.51     39.96
100.17   1738.00     41.69
100.27   1799.36     42.42
100.37   1846.87     42.98
100.47   1970.00     44.38
100.57   2038.00     45.14
100.67   2221.00     47.13
100.77   2119.00     46.03
100.87   2086.00     45.67
100.97   2018.00     44.92
101.07   1968.00     44.36
101.17   1854.00     43.06
101.27   1805.00     42.49
101.37   1752.00     41.86
101.47   1568.70     39.61
101.57   1493.92     38.65
101.67   1430.67     37.82
101.77   1353.00     36.78
101.87   1278.00     35.75
101.97   1211.98     34.81
102.07   1166.00     34.15
102.17   1115.00     33.39
102.27   1146.00     33.85
102.37   1125.00     33.54
102.47   1124.00     33.53
102.57   1047.00     32.36
102.67   1052.00     32.43
102.77   1013.00     31.83
102.87    989.00     31.45
102.97    951.00     30.84
103.07    946.00     30.76
103.17    847.00     29.10
103.27    927.00     30.45
103.37    824.46     28.71
103.47    855.00     29.24
103.57    743.00     27.26
103.67    653.86     25.57
103.77    654.00     25.57
103.87    645.00     25.40
103.97    633.53     25.17
104.07    610.00     24.70
104.17    614.00     24.78
104.27    559.00     23.64
104.37    567.99     23.83
104.47    529.00     23.00
104.57    528.00     22.98
104.67    563.00     23.73
104.77    573.07     23.94
104.87    545.23     23.35
104.97    567.12     23.81
105.07    511.61     22.62
105.17    498.13     22.32
105.27    540.00     23.24
105.37    501.02     22.38
105.47    545.47     23.36
105.57    574.83     23.98
105.67    581.84     24.12
105.77    594.00     24.37
105.87    569.00     23.85
105.97    541.49     23.27
106.07    535.70     23.15
106.17    533.00     23.09
106.27    590.66     24.30
106.37    596.00     24.41
106.47    671.00     25.90
106.57    601.00     24.52
106.67    604.00     24.58
106.77    656.53     25.62
106.87    584.00     24.17
106.97    643.57     25.37
107.07    661.00     25.71
107.17    683.00     26.13
107.27    680.85     26.09
107.37    669.00     25.87
107.47    666.00     25.81
107.57    736.75     27.14
107.67    634.00     25.18
107.77    658.00     25.65
107.87    728.45     26.99
107.97    644.87     25.39
108.07    679.00     26.06
108.17    692.80     26.32
108.27    692.00     26.31
108.37    718.45     26.80
108.47    651.00     25.51
108.57    666.18     25.81
108.67    699.00     26.44
108.77    654.64     25.59
108.87    682.00     26.12
108.97    684.00     26.15
109.07    677.00     26.02
109.17    639.00     25.28
109.27    704.00     26.53
109.37    650.00     25.50
109.47    682.00     26.12
109.57    678.74     26.05
109.67    615.00     24.80
109.77    612.89     24.76
109.87    598.00     24.45
109.97    579.92     24.08
110.07    563.00     23.73
110.17    583.74     24.16
110.27    618.00     24.86
110.37    578.00     24.04
110.47    529.00     23.00
110.57    555.20     23.56
110.67    591.00     24.31
110.77    569.00     23.85
110.87    511.57     22.62
110.97    498.97     22.34
111.07    574.00     23.96
111.17    527.55     22.97
111.27    571.12     23.90
111.37    570.86     23.89
111.47    577.53     24.03
111.57    564.00     23.75
111.67    518.00     22.76
111.77    562.00     23.71
111.87    582.35     24.13
111.97    593.00     24.35
112.07    571.62     23.91
112.17    564.00     23.75
112.27    542.00     23.28
112.37    582.45     24.13
112.47    568.00     23.83
112.57    622.25     24.94
112.67    609.14     24.68
112.77    649.78     25.49
112.87    660.00     25.69
112.97    649.00     25.48
113.07    665.00     25.79
113.17    714.81     26.74
113.27    759.92     27.57
113.37    756.00     27.50
113.47    794.00     28.18
113.57    820.00     28.64
113.67    870.00     29.50
113.77    889.00     29.82
113.87   1009.00     31.76
113.97   1011.44     31.80
114.07   1033.00     32.14
114.17   1146.81     33.86
114.27   1159.00     34.04
114.37   1297.67     36.02
114.47   1414.97     37.62
114.57   1507.00     38.82
114.67   1623.00     40.29
114.77   1748.65     41.82
114.87   1931.00     43.94
114.97   2015.19     44.89
115.07   2356.11     48.54
115.17   2605.05     51.04
115.27   2894.74     53.80
115.37   3078.88     55.49
115.47   3449.00     58.73
115.57   3832.66     61.91
115.67   4079.00     63.87
115.77   4497.00     67.06
115.87   4776.00     69.11
115.97   5365.43     73.25
116.07   5777.35     76.01
116.17   5913.00     76.90
116.27   6372.00     79.82
116.37   6515.61     80.72
116.47   6669.91     81.67
116.57   6746.56     82.14
116.67   6900.90     83.07
116.77   6766.48     82.26
116.87   6813.80     82.55
116.97   6693.00     81.81
117.07   6344.00     79.65
117.17   6239.96     78.99
117.27   5793.21     76.11
117.37   5326.00     72.98
117.47   5164.42     71.86
117.57   4630.00     68.04
117.67   4417.00     66.46
117.77   4078.00     63.86
117.87   3716.00     60.96
117.97   3297.00     57.42
118.07   3012.00     54.88
118.17   2601.00     51.00
118.27   2323.00     48.20
118.37   2046.00     45.23
118.47   1751.86     41.86
118.57   1529.00     39.10
118.67   1393.28     37.33
118.77   1239.00     35.20
118.87   1067.00     32.66
118.97   1029.91     32.09
119.07    945.00     30.74
119.17    832.00     28.84
119.27    826.00     28.74
119.37    748.00     27.35
119.47    754.00     27.46
119.57    686.38     26.20
119.67    594.00     24.37
119.77    668.87     25.86
119.87    620.00     24.90
119.97    640.92     25.32
120.07    547.00     23.39
120.17    602.00     24.54
120.27    588.99     24.27
120.37    537.00     23.17
120.47    598.00     24.45
120.57    553.52     23.53
120.67    583.00     24.15
120.77    543.33     23.31
120.87    622.00     24.94
120.97    604.07     24.58
121.07    574.00     23.96
121.17    554.00     23.54
121.27    531.81     23.06
121.37    573.00     23.94
121.47    556.82     23.60
121.57    576.00     24.00
121.67    573.00     23.94
121.77    638.75     25.27
121.87    614.00     24.78
121.97    576.00     24.00
122.07    625.00     25.00
122.17    612.98     24.76
122.27    603.27     24.56
122.37    678.00     26.04
122.47    659.51     25.68
122.57    657.76     25.65
122.67    634.52     25.19
122.77    659.00     25.67
122.87    659.00     25.67
122.97    667.23     25.83
123.07    652.00     25.53
123.17    666.00     25.81
123.27    594.00     24.37
123.37    645.00     25.40
123.47    603.41     24.56
123.57    665.24     25.79
123.67    627.00     25.04
123.77    655.00     25.59
123.87    579.69     24.08
123.97    638.00     25.26
124.07    638.00     25.26
124.17    578.00     24.04
124.27    622.96     24.96
124.37    601.00     24.52
124.47    632.00     25.14
124.57    611.37     24.73
124.67    623.00     24.96
124.77    583.00     24.15
124.87    566.00     23.79
124.97    591.00     24.31
