XYDATA



INTER 1.0 1.0 0 0
TEMP 1074.0
  9.97    532.24     23.07
 10.07    583.00     24.15
 10.17    573.00     23.94
 10.27    606.00     24.62
 10.37    651.00     25.51
 10.47    623.00     24.96
 10.57    574.00     23.96
 10.67    579.00     24.06
 10.77    564.00     23.75
 10.87    547.00     23.39
 10.97    604.00     24.58
 11.07    515.00     22.69
 11.17    631.00     25.12
 11.27    601.24     24.52
 11.37    639.00     25.28
 11.47    561.51     23.70
 11.57    637.00     25.24
 11.67    616.72     24.83
 11.77    618.00     24.86
 11.87    640.00     25.30
 11.97    649.00     25.48
 12.07    694.00     26.34
 12.17    653.00     25.55
 12.27    713.00     26.70
 12.37    676.00     26.00
 12.47    666.23     25.81
 12.57    609.74     24.69
 12.67    551.67     23.49
 12.77    616.00     24.82
 12.87    534.00     23.11
 12.97    600.25     24.50
 13.07    513.00     22.65
 13.17    558.00     23.62
 13.27    568.03     23.83
 13.37    593.00     24.35
 13.47    615.11     24.80
 13.57    565.00     23.77
 13.67    577.26     24.03
 13.77    572.73     23.93
 13.87    548.00     23.41
 13.97    567.00     23.81
 14.07    554.00     23.54
 14.17    569.06     23.86
 14.27    584.00     24.17
 14.37    503.00     22.43
 14.47    598.00     24.45
 14.57    600.00     24.49
 14.67    522.70     22.86
 14.77    588.00     24.25
 14.87    562.00     23.71
 14.97    598.18     24.46
 15.07    563.00     23.73
 15.17    608.95     24.68
 15.27    583.40     24.15
 15.37    560.00     23.66
 15.47    613.00     24.76
 15.57    561.75     23.70
 15.67    633.00     25.16
 15.77    564.00     23.75
 15.87    566.97     23.81
 15.97    517.00     22.74
 16.07    528.02     22.98
 16.17    564.00     23.75
 16.27    555.00     23.56
 16.37    610.11     24.70
 16.47    563.00     23.73
 16.57    543.00     23.30
 16.67    584.00     24.17
 16.77    595.00     24.39
 16.87    566.00     23.79
 16.97    540.00     23.24
 17.07    543.36     23.31
 17.17    569.00     23.85
 17.27    565.00     23.77
 17.37    537.00     23.17
 17.47    545.00     23.35
 17.57    582.00     24.12
 17.67    580.50     24.09
 17.77    533.00     23.09
 17.87    560.56     23.68
 17.97    572.76     23.93
 18.07    518.20     22.76
 18.17    538.00     23.19
 18.27    540.00     23.24
 18.37    525.34     22.92
 18.47    555.00     23.56
 18.57    598.22     24.46
 18.67    525.00     22.91
 18.77    596.00     24.41
 18.87    560.00     23.66
 18.97    593.00     24.35
 19.07    553.00     23.52
 19.17    541.00     23.26
 19.27    567.59     23.82
 19.37    576.00     24.00
 19.47    554.00     23.54
 19.57    521.00     22.83
 19.67    579.00     24.06
 19.77    595.55     24.40
 19.87    555.00     23.56
 19.97    548.68     23.42
 20.07    525.36     22.92
 20.17    509.89     22.58
 20.27    564.00     23.75
 20.37    514.00     22.67
 20.47    521.00     22.83
 20.57    516.36     22.72
 20.67    550.00     23.45
 20.77    564.00     23.75
 20.87    540.00     23.24
 20.97    554.00     23.54
 21.07    543.00     23.30
 21.17    531.51     23.05
 21.27    562.00     23.71
 21.37    536.00     23.15
 21.47    527.00     22.96
 21.57    530.00     23.02
 21.67    549.00     23.43
 21.77    534.00     23.11
 21.87    523.39     22.88
 21.97    536.00     23.15
 22.07    546.00     23.37
 22.17    561.83     23.70
 22.27    544.00     23.32
 22.37    531.10     23.05
 22.47    521.00     22.83
 22.57    521.61     22.84
 22.67    556.00     23.58
 22.77    564.00     23.75
 22.87    556.00     23.58
 22.97    598.00     24.45
 23.07    538.00     23.19
 23.17    507.41     22.53
 23.27    551.01     23.47
 23.37    578.59     24.05
 23.47    577.06     24.02
 23.57    546.74     23.38
 23.67    579.00     24.06
 23.77    537.00     23.17
 23.87    532.90     23.08
 23.97    578.00     24.04
 24.07    579.51     24.07
 24.17    535.00     23.13
 24.27    570.00     23.87
 24.37    579.00     24.06
 24.47    524.74     22.91
 24.57    594.78     24.39
 24.67    572.75     23.93
 24.77    639.00     25.28
 24.87    618.00     24.86
 24.97    619.00     24.88
 25.07    595.00     24.39
 25.17    578.12     24.04
 25.27    587.23     24.23
 25.37    566.70     23.81
 25.47    549.00     23.43
 25.57    503.00     22.43
 25.67    570.48     23.88
 25.77    500.00     22.36
 25.87    561.00     23.69
 25.97    531.86     23.06
 26.07    549.02     23.43
 26.17    540.00     23.24
 26.27    555.00     23.56
 26.37    525.70     22.93
 26.47    513.87     22.67
 26.57    551.00     23.47
 26.67    565.00     23.77
 26.77    506.00     22.49
 26.87    564.00     23.75
 26.97    520.00     22.80
 27.07    533.00     23.09
 27.17    543.78     23.32
 27.27    552.00     23.49
 27.37    569.23     23.86
 27.47    528.00     22.98
 27.57    549.00     23.43
 27.67    556.00     23.58
 27.77    624.00     24.98
 27.87    612.91     24.76
 27.97    651.85     25.53
 28.07    753.00     27.44
 28.17    856.77     29.27
 28.27    974.00     31.21
 28.37    941.00     30.68
 28.47    795.00     28.20
 28.57    710.00     26.65
 28.67    710.97     26.66
 28.77    782.00     27.96
 28.87    767.00     27.69
 28.97    889.93     29.83
 29.07    762.13     27.61
 29.17    698.00     26.42
 29.27    641.00     25.32
 29.37    643.43     25.37
 29.47    618.00     24.86
 29.57    530.07     23.02
 29.67    555.65     23.57
 29.77    597.00     24.43
 29.87    573.81     23.95
 29.97    525.00     22.91
 30.07    550.00     23.45
 30.17    579.00     24.06
 30.27    564.00     23.75
 30.37    527.00     22.96
 30.47    553.00     23.52
 30.57    598.00     24.45
 30.67    559.78     23.66
 30.77    553.00     23.52
 30.87    632.23     25.14
 30.97    634.00     25.18
 31.07    584.00     24.17
 31.17    563.00     23.73
 31.27    564.30     23.75
 31.37    558.00     23.62
 31.47    512.00     22.63
 31.57    556.61     23.59
 31.67    560.00     23.66
 31.77    495.73     22.27
 31.87    528.00     22.98
 31.97    547.13     23.39
 32.07    535.00     23.13
 32.17    549.00     23.43
 32.27    483.05     21.98
 32.37    481.91     21.95
 32.47    555.00     23.56
 32.57    503.41     22.44
 32.67    548.00     23.41
 32.77    534.00     23.11
 32.87    485.80     22.04
 32.97    536.34     23.16
 33.07    533.52     23.10
 33.17    514.00     22.67
 33.27    546.12     23.37
 33.37    498.12     22.32
 33.47    559.00     23.64
 33.57    623.67     24.97
 33.67    604.49     24.59
 33.77    748.00     27.35
 33.87    795.00     28.20
 33.97   1034.12     32.16
 34.07   1087.00     32.97
 34.17   1008.00     31.75
 34.27    912.00     30.20
 34.37    783.78     28.00
 34.47    642.00     25.34
 34.57    595.00     24.39
 34.67    596.00     24.41
 34.77    550.00     23.45
 34.87    542.00     23.28
 34.97    573.00     23.94
 35.07    525.14     22.92
 35.17    499.00     22.34
 35.27    491.00     22.16
 35.37    479.31     21.89
 35.47    537.12     23.18
 35.57    478.87     21.88
 35.67    489.00     22.11
 35.77    524.00     22.89
 35.87    490.00     22.14
 35.97    543.65     23.32
 36.07    480.00     21.91
 36.17    481.00     21.93
 36.27    495.00     22.25
 36.37    533.00     23.09
 36.47    507.00     22.52
 36.57    512.52     22.64
 36.67    501.00     22.38
 36.77    534.00     23.11
 36.87    498.00     22.32
 36.97    519.42     22.79
 37.07    505.00     22.47
 37.17    477.13     21.84
 37.27    530.00     23.02
 37.37    542.00     23.28
 37.47    505.46     22.48
 37.57    550.66     23.47
 37.67    545.00     23.35
 37.77    496.00     22.27
 37.87    498.00     22.32
 37.97    514.00     22.67
 38.07    523.00     22.87
 38.17    507.00     22.52
 38.27    515.00     22.69
 38.37    471.00     21.70
 38.47    471.24     21.71
 38.57    538.00     23.19
 38.67    476.00     21.82
 38.77    496.57     22.28
 38.87    535.72     23.15
 38.97    483.00     21.98
 39.07    476.00     21.82
 39.17    507.00     22.52
 39.27    535.00     23.13
 39.37    505.00     22.47
 39.47    494.05     22.23
 39.57    517.00     22.74
 39.67    527.00     22.96
 39.77    525.44     22.92
 39.87    501.00     22.38
 39.97    518.00     22.76
 40.07    478.00     21.86
 40.17    509.00     22.56
 40.27    483.00     21.98
 40.37    555.00     23.56
 40.47    527.00     22.96
 40.57    497.00     22.29
 40.67    517.87     22.76
 40.77    480.29     21.92
 40.87    506.00     22.49
 40.97    483.61     21.99
 41.07    452.00     21.26
 41.17    496.67     22.29
 41.27    477.34     21.85
 41.37    484.00     22.00
 41.47    471.35     21.71
 41.57    524.00     22.89
 41.67    528.00     22.98
 41.77    489.70     22.13
 41.87    473.00     21.75
 41.97    475.00     21.79
 42.07    502.00     22.41
 42.17    503.40     22.44
 42.27    535.00     23.13
 42.37    549.00     23.43
 42.47    543.57     23.31
 42.57    649.00     25.48
 42.67    634.72     25.19
 42.77    636.18     25.22
 42.87    613.00     24.76
 42.97    556.00     23.58
 43.07    589.00     24.27
 43.17    515.04     22.69
 43.27    494.15     22.23
 43.37    536.57     23.16
 43.47    530.09     23.02
 43.57    551.94     23.49
 43.67    481.00     21.93
 43.77    518.84     22.78
 43.87    518.46     22.77
 43.97    485.00     22.02
 44.07    525.00     22.91
 44.17    533.00     23.09
 44.27    548.00     23.41
 44.37    501.62     22.40
 44.47    486.00     22.05
 44.57    472.00     21.73
 44.67    517.67     22.75
 44.77    536.45     23.16
 44.87    478.43     21.87
 44.97    518.00     22.76
 45.07    507.00     22.52
 45.17    491.00     22.16
 45.27    496.00     22.27
 45.37    486.00     22.05
 45.47    537.00     23.17
 45.57    495.24     22.25
 45.67    472.00     21.73
 45.77    448.00     21.17
 45.87    508.00     22.54
 45.97    485.73     22.04
 46.07    516.00     22.72
 46.17    490.00     22.14
 46.27    488.00     22.09
 46.37    530.00     23.02
 46.47    537.86     23.19
 46.57    502.00     22.41
 46.67    520.00     22.80
 46.77    472.24     21.73
 46.87    503.00     22.43
 46.97    478.00     21.86
 47.07    500.00     22.36
 47.17    520.00     22.80
 47.27    545.47     23.36
 47.37    551.00     23.47
 47.47    553.00     23.52
 47.57    532.11     23.07
 47.67    588.00     24.25
 47.77    615.19     24.80
 47.87    635.00     25.20
 47.97    556.79     23.60
 48.07    547.00     23.39
 48.17    550.14     23.46
 48.27    584.09     24.17
 48.37    512.00     22.63
 48.47    527.86     22.98
 48.57    557.62     23.61
 48.67    499.07     22.34
 48.77    539.00     23.22
 48.87    545.00     23.35
 48.97    515.00     22.69
 49.07    538.00     23.19
 49.17    569.00     23.85
 49.27    577.45     24.03
 49.37    660.00     25.69
 49.47    669.85     25.88
 49.57    804.00     28.35
 49.67    900.00     30.00
 49.77   1113.39     33.37
 49.87   1514.00     38.91
 49.97   1792.39     42.34
 50.07   2280.00     47.75
 50.17   2487.91     49.88
 50.27   2492.94     49.93
 50.37   2195.00     46.85
 50.47   1961.48     44.29
 50.57   1363.00     36.92
 50.67   1010.00     31.78
 50.77    860.00     29.33
 50.87    663.00     25.75
 50.97    657.79     25.65
 51.07    587.35     24.24
 51.17    625.00     25.00
 51.27    616.00     24.82
 51.37    643.00     25.36
 51.47    586.81     24.22
 51.57    545.20     23.35
 51.67    528.69     22.99
 51.77    572.47     23.93
 51.87    544.00     23.32
 51.97    565.00     23.77
 52.07    570.35     23.88
 52.17    582.00     24.12
 52.27    530.02     23.02
 52.37    512.82     22.65
 52.47    577.00     24.02
 52.57    551.00     23.47
 52.67    524.88     22.91
 52.77    589.00     24.27
 52.87    674.00     25.96
 52.97    688.00     26.23
 53.07    792.52     28.15
 53.17    904.00     30.07
 53.27   1044.81     32.32
 53.37   1114.49     33.38
 53.47   1146.00     33.85
 53.57   1247.14     35.31
 53.67   1075.00     32.79
 53.77    947.00     30.77
 53.87    857.00     29.27
 53.97    741.00     27.22
 54.07    710.00     26.65
 54.17    624.52     24.99
 54.27    605.00     24.60
 54.37    570.00     23.87
 54.47    562.00     23.71
 54.57    567.00     23.81
 54.67    580.00     24.08
 54.77    562.00     23.71
 54.87    577.00     24.02
 54.97    550.00     23.45
 55.07    502.71     22.42
 55.17    552.00     23.49
 55.27    559.00     23.64
 55.37    588.82     24.27
 55.47    518.21     22.76
 55.57    587.00     24.23
 55.67    569.00     23.85
 55.77    596.66     24.43
 55.87    595.00     24.39
 55.97    613.00     24.76
 56.07    693.89     26.34
 56.17    721.00     26.85
 56.27    965.00     31.06
 56.37   1087.00     32.97
 56.47   1407.00     37.51
 56.57   1725.00     41.53
 56.67   2196.37     46.87
 56.77   2492.00     49.92
 56.87   2570.00     50.70
 56.97   2680.44     51.77
 57.07   2320.66     48.17
 57.17   2047.00     45.24
 57.27   1698.00     41.21
 57.37   1268.61     35.62
 57.47   1040.00     32.25
 57.57    906.82     30.11
 57.67    769.00     27.73
 57.77    758.00     27.53
 57.87    685.00     26.17
 57.97    674.96     25.98
 58.07    682.07     26.12
 58.17    737.00     27.15
 58.27    757.00     27.51
 58.37    786.00     28.04
 58.47    953.00     30.87
 58.57   1066.00     32.65
 58.67   1213.67     34.84
 58.77   1285.88     35.86
 58.87   1417.50     37.65
 58.97   1481.00     38.48
 59.07   1512.73     38.89
 59.17   1526.00     39.06
 59.27   1471.00     38.35
 59.37   1272.03     35.67
 59.47   1207.37     34.75
 59.57   1169.00     34.19
 59.67   1122.00     33.50
 59.77   1157.00     34.01
 59.87   1158.00     34.03
 59.97   1312.00     36.22
 60.07   1446.22     38.03
 60.17   1485.33     38.54
 60.27   1610.00     40.12
 60.37   1485.88     38.55
 60.47   1453.00     38.12
 60.57   1266.12     35.58
 60.67   1085.66     32.95
 60.77    939.00     30.64
 60.87    810.00     28.46
 60.97    717.61     26.79
 61.07    709.97     26.65
 61.17    642.00     25.34
 61.27    596.68     24.43
 61.37    672.60     25.93
 61.47    702.00     26.50
 61.57    782.00     27.96
 61.67    889.49     29.82
 61.77    976.00     31.24
 61.87   1168.92     34.19
 61.97   1265.00     35.57
 62.07   1332.00     36.50
 62.17   1405.00     37.48
 62.27   1372.69     37.05
 62.37   1349.00     36.73
 62.47   1179.30     34.34
 62.57   1004.82     31.70
 62.67    931.40     30.52
 62.77    746.16     27.32
 62.87    708.00     26.61
 62.97    643.00     25.36
 63.07    599.00     24.47
 63.17    626.00     25.02
 63.27    610.00     24.70
 63.37    583.00     24.15
 63.47    565.97     23.79
 63.57    597.02     24.43
 63.67    549.62     23.44
 63.77    553.67     23.53
 63.87    640.05     25.30
 63.97    668.00     25.85
 64.07    733.63     27.09
 64.17    801.00     28.30
 64.27    856.68     29.27
 64.37    926.00     30.43
 64.47   1035.00     32.17
 64.57   1040.00     32.25
 64.67   1003.00     31.67
 64.77    990.88     31.48
 64.87    992.43     31.50
 64.97    880.65     29.68
 65.07    839.72     28.98
 65.17    737.56     27.16
 65.27    790.00     28.11
 65.37    680.00     26.08
 65.47    664.72     25.78
 65.57    660.87     25.71
 65.67    625.23     25.00
 65.77    609.00     24.68
 65.87    586.00     24.21
 65.97    577.00     24.02
 66.07    580.09     24.08
 66.17    535.37     23.14
 66.27    523.91     22.89
 66.37    572.00     23.92
 66.47    600.35     24.50
 66.57    543.77     23.32
 66.67    544.00     23.32
 66.77    559.99     23.66
 66.87    606.00     24.62
 66.97    598.00     24.45
 67.07    668.00     25.85
 67.17    638.00     25.26
 67.27    729.08     27.00
 67.37    867.00     29.44
 67.47   1108.00     33.29
 67.57   1218.72     34.91
 67.67   1551.00     39.38
 67.77   1765.00     42.01
 67.87   2110.00     45.93
 67.97   2329.00     48.26
 68.07   2416.12     49.15
 68.17   2503.00     50.03
 68.27   2223.05     47.15
 68.37   2087.18     45.69
 68.47   1834.00     42.83
 68.57   1514.00     38.91
 68.67   1269.00     35.62
 68.77   1016.43     31.88
 68.87    873.50     29.56
 68.97    785.00     28.02
 69.07    694.00     26.34
 69.17    667.00     25.83
 69.27    578.72     24.06
 69.37    574.00     23.96
 69.47    556.90     23.60
 69.57    573.00     23.94
 69.67    603.00     24.56
 69.77    612.00     24.74
 69.87    556.32     23.59
 69.97    584.00     24.17
 70.07    559.00     23.64
 70.17    560.00     23.66
 70.27    554.00     23.54
 70.37    533.00     23.09
 70.47    619.54     24.89
 70.57    577.00     24.02
 70.67    576.00     24.00
 70.77    586.00     24.21
 70.87    637.17     25.24
 70.97    611.00     24.72
 71.07    672.01     25.92
 71.17    739.00     27.18
 71.27    834.00     28.88
 71.37    948.37     30.80
 71.47   1055.00     32.48
 71.57   1292.02     35.94
 71.67   1426.00     37.76
 71.77   1570.00     39.62
 71.87   1804.00     42.47
 71.97   1899.00     43.58
 72.07   1935.50     43.99
 72.17   1881.00     43.37
 72.27   1833.96     42.82
 72.37   1770.00     42.07
 72.47   1511.00     38.87
 72.57   1327.28     36.43
 72.67   1151.00     33.93
 72.77   1050.00     32.40
 72.87    868.00     29.46
 72.97    868.00     29.46
 73.07    834.00     28.88
 73.17    794.00     28.18
 73.27    703.00     26.51
 73.37    662.82     25.75
 73.47    671.00     25.90
 73.57    598.00     24.45
 73.67    591.00     24.31
 73.77    570.00     23.87
 73.87    618.13     24.86
 73.97    622.26     24.95
 74.07    566.17     23.79
 74.17    624.45     24.99
 74.27    592.00     24.33
 74.37    581.79     24.12
 74.47    543.44     23.31
 74.57    629.00     25.08
 74.67    641.00     25.32
 74.77    602.46     24.55
 74.87    646.00     25.42
 74.97    594.00     24.37
 75.07    522.90     22.87
 75.17    565.00     23.77
 75.27    599.32     24.48
 75.37    526.00     22.93
 75.47    591.37     24.32
 75.57    523.45     22.88
 75.67    549.00     23.43
 75.77    601.00     24.52
 75.87    598.52     24.46
 75.97    610.00     24.70
 76.07    638.00     25.26
 76.17    639.62     25.29
 76.27    651.49     25.52
 76.37    707.25     26.59
 76.47    700.00     26.46
 76.57    709.52     26.64
 76.67    701.00     26.48
 76.77    682.00     26.12
 76.87    645.00     25.40
 76.97    638.59     25.27
 77.07    604.39     24.58
 77.17    572.11     23.92
 77.27    557.60     23.61
 77.37    573.57     23.95
 77.47    549.00     23.43
 77.57    511.52     22.62
 77.67    553.65     23.53
 77.77    562.01     23.71
 77.87    488.00     22.09
 77.97    552.00     23.49
 78.07    564.69     23.76
 78.17    484.74     22.02
 78.27    512.00     22.63
 78.37    530.20     23.03
 78.47    557.00     23.60
 78.57    526.27     22.94
 78.67    558.00     23.62
 78.77    528.00     22.98
 78.87    515.46     22.70
 78.97    538.00     23.19
 79.07    568.11     23.84
 79.17    506.00     22.49
 79.27    523.24     22.87
 79.37    491.00     22.16
 79.47    517.00     22.74
 79.57    492.00     22.18
 79.67    497.00     22.29
 79.77    542.00     23.28
 79.87    543.00     23.30
 79.97    593.61     24.36
 80.07    555.01     23.56
 80.17    602.80     24.55
 80.27    601.00     24.52
 80.37    601.81     24.53
 80.47    544.00     23.32
 80.57    572.00     23.92
 80.67    594.00     24.37
 80.77    654.00     25.57
 80.87    699.13     26.44
 80.97    680.01     26.08
 81.07    692.00     26.31
 81.17    744.00     27.28
 81.27    781.00     27.95
 81.37    721.00     26.85
 81.47    724.00     26.91
 81.57    759.00     27.55
 81.67    722.00     26.87
 81.77    699.97     26.46
 81.87    700.00     26.46
 81.97    641.27     25.32
 82.07    724.00     26.91
 82.17    655.00     25.59
 82.27    642.46     25.35
 82.37    576.00     24.00
 82.47    642.00     25.34
 82.57    544.00     23.32
 82.67    593.00     24.35
 82.77    552.00     23.49
 82.87    571.00     23.90
 82.97    530.65     23.04
 83.07    528.00     22.98
 83.17    582.00     24.12
 83.27    545.00     23.35
 83.37    544.00     23.32
 83.47    544.00     23.32
 83.57    543.00     23.30
 83.67    542.67     23.30
 83.77    558.18     23.63
 83.87    550.07     23.45
 83.97    544.00     23.32
 84.07    602.90     24.55
 84.17    570.00     23.87
 84.27    537.00     23.17
 84.37    529.38     23.01
 84.47    537.00     23.17
 84.57    538.21     23.20
 84.67    554.97     23.56
 84.77    579.00     24.06
 84.87    534.00     23.11
 84.97    568.14     23.84
 85.07    536.76     23.17
 85.17    542.00     23.28
 85.27    561.63     23.70
 85.37    547.00     23.39
 85.47    545.00     23.35
 85.57    544.00     23.32
 85.67    544.00     23.32
 85.77    511.00     22.61
 85.87    486.89     22.07
 85.97    516.00     22.72
 86.07    513.00     22.65
 86.17    514.00     22.67
 86.27    514.00     22.67
 86.37    540.00     23.24
 86.47    512.24     22.63
 86.57    584.94     24.19
 86.67    591.30     24.32
 86.77    552.20     23.50
 86.87    594.00     24.37
 86.97    632.93     25.16
 87.07    650.00     25.50
 87.17    584.00     24.17
 87.27    593.39     24.36
 87.37    585.97     24.21
 87.47    636.00     25.22
 87.57    659.00     25.67
 87.67    625.00     25.00
 87.77    604.00     24.58
 87.87    652.91     25.55
 87.97    561.27     23.69
 88.07    610.00     24.70
 88.17    639.00     25.28
 88.27    641.00     25.32
 88.37    580.00     24.08
 88.47    546.18     23.37
 88.57    609.00     24.68
 88.67    603.35     24.56
 88.77    529.37     23.01
 88.87    537.56     23.19
 88.97    580.19     24.09
 89.07    613.00     24.76
 89.17    577.51     24.03
 89.27    620.00     24.90
 89.37    616.00     24.82
 89.47    604.00     24.58
 89.57    606.00     24.62
 89.67    624.66     24.99
 89.77    533.00     23.09
 89.87    564.00     23.75
 89.97    568.00     23.83
 90.07    565.00     23.77
 90.17    544.00     23.32
 90.27    500.00     22.36
 90.37    563.98     23.75
 90.47    508.26     22.54
 90.57    495.00     22.25
 90.67    522.00     22.85
 90.77    523.00     22.87
 90.87    518.00     22.76
 90.97    496.00     22.27
 91.07    506.00     22.49
 91.17    571.03     23.90
 91.27    487.00     22.07
 91.37    509.30     22.57
 91.47    558.00     23.62
 91.57    559.00     23.64
 91.67    516.00     22.72
 91.77    543.00     23.30
 91.87    561.00     23.69
 91.97    538.00     23.19
 92.07    545.13     23.35
 92.17    546.55     23.38
 92.27    575.00     23.98
 92.37    591.07     24.31
 92.47    590.00     24.29
 92.57    675.73     25.99
 92.67    693.00     26.32
 92.77    717.00     26.78
 92.87    681.00     26.10
 92.97    719.00     26.81
 93.07    715.93     26.76
 93.17    775.00     27.84
 93.27    828.00     28.77
 93.37    810.00     28.46
 93.47    751.84     27.42
 93.57    855.00     29.24
 93.67    841.00     29.00
 93.77    802.00     28.32
 93.87    871.46     29.52
 93.97    849.56     29.15
 94.07    784.03     28.00
 94.17    880.00     29.66
 94.27    918.00     30.30
 94.37    830.00     28.81
 94.47    941.00     30.68
 94.57    930.00     30.50
 94.67    940.33     30.66
 94.77    890.67     29.84
 94.87    929.00     30.48
 94.97    919.00     30.32
 95.07    921.00     30.35
 95.17    830.91     28.83
 95.27    905.00     30.08
 95.37    785.00     28.02
 95.47    769.94     27.75
 95.57    789.00     28.09
 95.67    717.00     26.78
 95.77    695.70     26.38
 95.87    718.00     26.80
 95.97    646.53     25.43
 96.07    666.00     25.81
 96.17    731.50     27.05
 96.27    679.96     26.08
 96.37    722.34     26.88
 96.47    782.00     27.96
 96.57    833.00     28.86
 96.67    905.00     30.08
 96.77   1008.00     31.75
 96.87   1121.82     33.49
 96.97   1113.31     33.37
 97.07   1246.17     35.30
 97.17   1316.00     36.28
 97.27   1321.67     36.35
 97.37   1448.53     38.06
 97.47   1371.08     37.03
 97.57   1431.29     37.83
 97.67   1444.00     38.00
 97.77   1389.00     37.27
 97.87   1283.00     35.82
 97.97   1310.14     36.20
 98.07   1212.00     34.81
 98.17   1147.00     33.87
 98.27   1020.08     31.94
 98.37    974.00     31.21
 98.47    983.00     31.35
 98.57    884.00     29.73
 98.67    807.92     28.42
 98.77    806.00     28.39
 98.87    826.00     28.74
 98.97    780.73     27.94
 99.07    799.00     28.27
 99.17    834.00     28.88
 99.27    912.00     30.20
 99.37    922.47     30.37
 99.47   1007.00     31.73
 99.57   1040.00     32.25
 99.67   1168.33     34.18
 99.77   1263.00     35.54
 99.87   1341.00     36.62
 99.97   1527.00     39.08
100.07   1656.00     40.69
100.17   1745.00     41.77
100.27   1826.00     42.73
100.37   1968.45     44.37
100.47   1972.00     44.41
100.57   2070.00     45.50
100.67   2141.13     46.27
100.77   2105.00     45.88
100.87   1984.93     44.55
100.97   1959.93     44.27
101.07   1917.45     43.79
101.17   1903.00     43.62
101.27   1827.00     42.74
101.37   1663.20     40.78
101.47   1637.39     40.46
101.57   1511.00     38.87
101.67   1412.00     37.58
101.77   1381.00     37.16
101.87   1347.52     36.71
101.97   1231.00     35.09
102.07   1103.00     33.21
102.17   1208.45     34.76
102.27   1121.00     33.48
102.37   1175.83     34.29
102.47   1135.96     33.70
102.57   1058.00     32.53
102.67   1047.00     32.36
102.77   1030.00     32.09
102.87   1043.38     32.30
102.97    948.00     30.79
103.07    918.03     30.30
103.17    907.00     30.12
103.27    904.00     30.07
103.37    836.00     28.91
103.47    814.00     28.53
103.57    699.15     26.44
103.67    679.91     26.08
103.77    712.28     26.69
103.87    630.11     25.10
103.97    664.00     25.77
104.07    560.00     23.66
104.17    603.00     24.56
104.27    593.37     24.36
104.37    584.00     24.17
104.47    527.04     22.96
104.57    555.00     23.56
104.67    556.00     23.58
104.77    543.00     23.30
104.87    554.00     23.54
104.97    486.00     22.05
105.07    537.00     23.17
105.17    559.00     23.64
105.27    549.00     23.43
105.37    506.64     22.51
105.47    561.16     23.69
105.57    541.00     23.26
105.67    586.55     24.22
105.77    570.00     23.87
105.87    593.20     24.36
105.97    537.00     23.17
106.07    544.00     23.32
106.17    591.00     24.31
106.27    572.00     23.92
106.37    613.00     24.76
106.47    575.00     23.98
106.57    590.00     24.29
106.67    625.74     25.01
106.77    650.00     25.50
106.87    626.00     25.02
106.97    631.00     25.12
107.07    683.32     26.14
107.17    713.00     26.70
107.27    683.61     26.15
107.37    689.00     26.25
107.47    715.00     26.74
107.57    744.74     27.29
107.67    666.07     25.81
107.77    738.00     27.17
107.87    636.00     25.22
107.97    607.00     24.64
108.07    653.41     25.56
108.17    689.00     26.25
108.27    704.25     26.54
108.37    703.00     26.51
108.47    666.00     25.81
108.57    664.00     25.77
108.67    721.05     26.85
108.77    732.00     27.06
108.87    708.73     26.62
108.97    722.00     26.87
109.07    643.00     25.36
109.17    697.00     26.40
109.27    657.00     25.63
109.37    633.20     25.16
109.47    641.00     25.32
109.57    626.71     25.03
109.67    642.00     25.34
109.77    600.00     24.49
109.87    625.00     25.00
109.97    588.00     24.25
110.07    600.00     24.49
110.17    590.85     24.31
110.27    552.00     23.49
110.37    568.00     23.83
110.47    505.91     22.49
110.57    524.00     22.89
110.67    541.03     23.26
110.77    602.00     24.54
110.87    570.00     23.87
110.97    567.89     23.83
111.07    578.76     24.06
111.17    519.00     22.78
111.27    519.68     22.80
111.37    535.00     23.13
111.47    537.00     23.17
111.57    536.00     23.15
111.67    524.00     22.89
111.77    509.04     22.56
111.87    559.00     23.64
111.97    575.00     23.98
112.07    561.00     23.69
112.17    581.00     24.10
112.27    588.37     24.26
112.37    578.00     24.04
112.47    598.00     24.45
112.57    603.00     24.56
112.67    587.00     24.23
112.77    625.00     25.00
112.87    619.00     24.88
112.97    618.57     24.87
113.07    679.52     26.07
113.17    698.00     26.42
113.27    722.00     26.87
113.37    768.42     27.72
113.47    810.57     28.47
113.57    791.00     28.12
113.67    838.00     28.95
113.77    867.35     29.45
113.87    955.00     30.90
113.97    920.09     30.33
114.07    997.12     31.58
114.17   1084.00     32.92
114.27   1105.29     33.25
114.37   1251.00     35.37
114.47   1283.00     35.82
114.57   1452.68     38.11
114.67   1534.00     39.17
114.77   1708.00     41.33
114.87   1867.10     43.21
114.97   2114.00     45.98
115.07   2335.00     48.32
115.17   2583.00     50.82
115.27   2939.00     54.21
115.37   3062.90     55.34
115.47   3461.04     58.83
115.57   3838.01     61.95
115.67   3975.00     63.05
115.77   4472.00     66.87
115.87   4892.19     69.94
115.97   5157.26     71.81
116.07   5465.00     73.93
116.17   5938.00     77.06
116.27   6185.82     78.65
116.37   6369.00     79.81
116.47   6745.00     82.13
116.57   6981.48     83.56
116.67   6777.34     82.32
116.77   6983.00     83.56
116.87   6792.00     82.41
116.97   6754.00     82.18
117.07   6329.00     79.56
117.17   6186.51     78.65
117.27   5731.00     75.70
117.37   5299.00     72.79
117.47   4998.00     70.70
117.57   4636.00     68.09
117.67   4340.00     65.88
117.77   3901.74     62.46
117.87   3644.00     60.37
117.97   3283.00     57.30
118.07   2981.00     54.60
118.17   2592.00     50.91
118.27   2328.00     48.25
118.37   2072.87     45.53
118.47   1716.00     41.42
118.57   1571.00     39.64
118.67   1363.00     36.92
118.77   1249.00     35.34
118.87   1176.08     34.29
118.97   1106.13     33.26
119.07    898.00     29.97
119.17    892.86     29.88
119.27    809.00     28.44
119.37    770.23     27.75
119.47    694.80     26.36
119.57    713.00     26.70
119.67    736.00     27.13
119.77    646.49     25.43
119.87    643.26     25.36
119.97    588.00     24.25
120.07    623.00     24.96
120.17    568.00     23.83
120.27    598.00     24.45
120.37    547.00     23.39
120.47    566.00     23.79
120.57    572.70     23.93
120.67    567.00     23.81
120.77    559.00     23.64
120.87    606.63     24.63
120.97    599.73     24.49
121.07    539.00     23.22
121.17    552.00     23.49
121.27    613.00     24.76
121.37    585.78     24.20
121.47    587.00     24.23
121.57    533.92     23.11
121.67    594.00     24.37
121.77    623.00     24.96
121.87    572.00     23.92
121.97    634.00     25.18
122.07    617.53     24.85
122.17    623.00     24.96
122.27    655.37     25.60
122.37    652.00     25.53
122.47    624.00     24.98
122.57    634.00     25.18
122.67    619.34     24.89
122.77    649.35     25.48
122.87    629.00     25.08
122.97    646.00     25.42
123.07    656.58     25.62
123.17    667.00     25.83
123.27    607.41     24.65
123.37    658.00     25.65
123.47    613.00     24.76
123.57    671.38     25.91
123.67    672.01     25.92
123.77    607.00     24.64
123.87    613.46     24.77
123.97    586.00     24.21
124.07    622.00     24.94
124.17    592.00     24.33
124.27    617.00     24.84
124.37    562.00     23.71
124.47    571.29     23.90
124.57    570.00     23.87
124.67    547.00     23.39
124.77    541.00     23.26
124.87    562.25     23.71
124.97    579.37     24.07
