XYDATA



INTER 1.0 1.0 0 0
TEMP 798.257
  9.97    659.00     25.67
 10.07    601.00     24.52
 10.17    610.59     24.71
 10.27    565.15     23.77
 10.37    598.00     24.45
 10.47    619.00     24.88
 10.57    591.45     24.32
 10.67    592.93     24.35
 10.77    610.00     24.70
 10.87    531.74     23.06
 10.97    577.00     24.02
 11.07    638.00     25.26
 11.17    618.00     24.86
 11.27    584.76     24.18
 11.37    630.00     25.10
 11.47    591.00     24.31
 11.57    595.00     24.39
 11.67    648.00     25.46
 11.77    554.40     23.55
 11.87    595.54     24.40
 11.97    685.73     26.19
 12.07    692.74     26.32
 12.17    683.81     26.15
 12.27    717.00     26.78
 12.37    719.24     26.82
 12.47    653.83     25.57
 12.57    602.63     24.55
 12.67    628.00     25.06
 12.77    591.00     24.31
 12.87    609.00     24.68
 12.97    557.00     23.60
 13.07    636.67     25.23
 13.17    628.00     25.06
 13.27    580.00     24.08
 13.37    551.00     23.47
 13.47    600.56     24.51
 13.57    570.00     23.87
 13.67    554.00     23.54
 13.77    649.94     25.49
 13.87    639.64     25.29
 13.97    604.00     24.58
 14.07    546.24     23.37
 14.17    569.00     23.85
 14.27    590.00     24.29
 14.37    588.00     24.25
 14.47    568.00     23.83
 14.57    573.00     23.94
 14.67    557.00     23.60
 14.77    583.59     24.16
 14.87    585.00     24.19
 14.97    619.00     24.88
 15.07    592.79     24.35
 15.17    544.13     23.33
 15.27    641.83     25.33
 15.37    535.00     23.13
 15.47    621.00     24.92
 15.57    568.09     23.83
 15.67    625.00     25.00
 15.77    532.00     23.07
 15.87    573.00     23.94
 15.97    547.00     23.39
 16.07    618.00     24.86
 16.17    610.00     24.70
 16.27    584.00     24.17
 16.37    569.00     23.85
 16.47    591.00     24.31
 16.57    578.00     24.04
 16.67    571.07     23.90
 16.77    566.00     23.79
 16.87    581.00     24.10
 16.97    554.50     23.55
 17.07    547.51     23.40
 17.17    606.65     24.63
 17.27    567.00     23.81
 17.37    590.83     24.31
 17.47    587.00     24.23
 17.57    576.00     24.00
 17.67    585.00     24.19
 17.77    526.00     22.93
 17.87    572.00     23.92
 17.97    569.00     23.85
 18.07    628.05     25.06
 18.17    557.00     23.60
 18.27    577.85     24.04
 18.37    589.00     24.27
 18.47    634.00     25.18
 18.57    575.61     23.99
 18.67    591.00     24.31
 18.77    590.71     24.30
 18.87    635.28     25.20
 18.97    556.11     23.58
 19.07    584.00     24.17
 19.17    575.00     23.98
 19.27    572.00     23.92
 19.37    595.00     24.39
 19.47    623.09     24.96
 19.57    544.00     23.32
 19.67    551.35     23.48
 19.77    603.00     24.56
 19.87    581.00     24.10
 19.97    617.12     24.84
 20.07    532.00     23.07
 20.17    515.00     22.69
 20.27    567.00     23.81
 20.37    632.10     25.14
 20.47    563.12     23.73
 20.57    574.00     23.96
 20.67    624.50     24.99
 20.77    578.00     24.04
 20.87    598.00     24.45
 20.97    579.51     24.07
 21.07    544.99     23.35
 21.17    583.00     24.15
 21.27    604.99     24.60
 21.37    570.00     23.87
 21.47    599.00     24.47
 21.57    540.37     23.25
 21.67    586.00     24.21
 21.77    537.00     23.17
 21.87    613.00     24.76
 21.97    632.11     25.14
 22.07    587.00     24.23
 22.17    605.00     24.60
 22.27    585.00     24.19
 22.37    573.54     23.95
 22.47    586.00     24.21
 22.57    548.00     23.41
 22.67    576.00     24.00
 22.77    627.48     25.05
 22.87    568.56     23.84
 22.97    601.23     24.52
 23.07    635.26     25.20
 23.17    591.00     24.31
 23.27    549.00     23.43
 23.37    608.00     24.66
 23.47    608.20     24.66
 23.57    546.00     23.37
 23.67    592.00     24.33
 23.77    579.00     24.06
 23.87    582.23     24.13
 23.97    590.00     24.29
 24.07    576.77     24.02
 24.17    591.00     24.31
 24.27    585.00     24.19
 24.37    564.70     23.76
 24.47    590.26     24.30
 24.57    567.32     23.82
 24.67    586.89     24.23
 24.77    650.35     25.50
 24.87    625.00     25.00
 24.97    669.83     25.88
 25.07    679.53     26.07
 25.17    662.00     25.73
 25.27    649.00     25.48
 25.37    609.00     24.68
 25.47    653.00     25.55
 25.57    642.00     25.34
 25.67    603.00     24.56
 25.77    589.00     24.27
 25.87    583.00     24.15
 25.97    619.28     24.89
 26.07    652.00     25.53
 26.17    625.96     25.02
 26.27    610.00     24.70
 26.37    629.00     25.08
 26.47    627.00     25.04
 26.57    571.11     23.90
 26.67    629.00     25.08
 26.77    673.00     25.94
 26.87    600.80     24.51
 26.97    664.00     25.77
 27.07    603.00     24.56
 27.17    587.00     24.23
 27.27    638.00     25.26
 27.37    610.67     24.71
 27.47    671.00     25.90
 27.57    662.00     25.73
 27.67    566.62     23.80
 27.77    681.00     26.10
 27.87    583.90     24.16
 27.97    688.00     26.23
 28.07    721.00     26.85
 28.17    838.00     28.95
 28.27    950.00     30.82
 28.37    955.00     30.90
 28.47    854.09     29.22
 28.57    897.40     29.96
 28.67    786.16     28.04
 28.77    842.00     29.02
 28.87    840.00     28.98
 28.97    839.00     28.97
 29.07    780.56     27.94
 29.17    926.00     30.43
 29.27    803.00     28.34
 29.37    752.33     27.43
 29.47    732.00     27.06
 29.57    708.00     26.61
 29.67    623.00     24.96
 29.77    540.12     23.24
 29.87    662.00     25.73
 29.97    654.00     25.57
 30.07    630.00     25.10
 30.17    631.90     25.14
 30.27    652.00     25.53
 30.37    672.00     25.92
 30.47    627.00     25.04
 30.57    638.00     25.26
 30.67    652.00     25.53
 30.77    639.00     25.28
 30.87    676.00     26.00
 30.97    684.26     26.16
 31.07    656.24     25.62
 31.17    664.00     25.77
 31.27    700.00     26.46
 31.37    573.00     23.94
 31.47    582.46     24.13
 31.57    622.38     24.95
 31.67    588.00     24.25
 31.77    571.00     23.90
 31.87    571.31     23.90
 31.97    519.25     22.79
 32.07    537.96     23.19
 32.17    564.00     23.75
 32.27    571.00     23.90
 32.37    543.00     23.30
 32.47    627.00     25.04
 32.57    588.00     24.25
 32.67    559.00     23.64
 32.77    541.56     23.27
 32.87    596.56     24.42
 32.97    595.00     24.39
 33.07    542.00     23.28
 33.17    590.00     24.29
 33.27    614.75     24.79
 33.37    617.97     24.86
 33.47    597.09     24.44
 33.57    632.00     25.14
 33.67    666.00     25.81
 33.77    755.57     27.49
 33.87    729.15     27.00
 33.97    871.00     29.51
 34.07    959.86     30.98
 34.17   1004.06     31.69
 34.27    975.00     31.22
 34.37    925.00     30.41
 34.47    821.61     28.66
 34.57    721.00     26.85
 34.67    659.00     25.67
 34.77    578.00     24.04
 34.87    574.00     23.96
 34.97    529.27     23.01
 35.07    559.00     23.64
 35.17    587.31     24.23
 35.27    515.00     22.69
 35.37    557.00     23.60
 35.47    575.00     23.98
 35.57    600.05     24.50
 35.67    540.00     23.24
 35.77    554.91     23.56
 35.87    547.00     23.39
 35.97    524.00     22.89
 36.07    525.00     22.91
 36.17    567.00     23.81
 36.27    532.87     23.08
 36.37    553.40     23.52
 36.47    508.00     22.54
 36.57    523.00     22.87
 36.67    537.00     23.17
 36.77    541.00     23.26
 36.87    563.62     23.74
 36.97    522.00     22.85
 37.07    481.00     21.93
 37.17    517.00     22.74
 37.27    516.00     22.72
 37.37    523.00     22.87
 37.47    542.00     23.28
 37.57    588.88     24.27
 37.67    532.00     23.07
 37.77    518.17     22.76
 37.87    526.00     22.93
 37.97    500.76     22.38
 38.07    512.33     22.63
 38.17    550.00     23.45
 38.27    531.00     23.04
 38.37    540.00     23.24
 38.47    558.54     23.63
 38.57    537.00     23.17
 38.67    523.00     22.87
 38.77    526.05     22.94
 38.87    514.00     22.67
 38.97    506.00     22.49
 39.07    501.26     22.39
 39.17    575.91     24.00
 39.27    499.00     22.34
 39.37    523.00     22.87
 39.47    513.00     22.65
 39.57    482.50     21.97
 39.67    514.23     22.68
 39.77    528.00     22.98
 39.87    503.00     22.43
 39.97    504.00     22.45
 40.07    534.00     23.11
 40.17    501.00     22.38
 40.27    531.50     23.05
 40.37    549.00     23.43
 40.47    486.00     22.05
 40.57    552.56     23.51
 40.67    500.00     22.36
 40.77    535.00     23.13
 40.87    538.79     23.21
 40.97    470.00     21.68
 41.07    486.00     22.05
 41.17    500.00     22.36
 41.27    546.00     23.37
 41.37    478.00     21.86
 41.47    507.00     22.52
 41.57    501.00     22.38
 41.67    553.37     23.52
 41.77    478.00     21.86
 41.87    521.00     22.83
 41.97    508.00     22.54
 42.07    515.00     22.69
 42.17    581.49     24.11
 42.27    508.00     22.54
 42.37    528.00     22.98
 42.47    611.11     24.72
 42.57    607.17     24.64
 42.67    553.00     23.52
 42.77    610.00     24.70
 42.87    626.01     25.02
 42.97    589.00     24.27
 43.07    570.00     23.87
 43.17    591.77     24.33
 43.27    518.59     22.77
 43.37    518.00     22.76
 43.47    547.00     23.39
 43.57    518.00     22.76
 43.67    512.00     22.63
 43.77    525.04     22.91
 43.87    485.00     22.02
 43.97    512.95     22.65
 44.07    526.00     22.93
 44.17    535.00     23.13
 44.27    478.98     21.89
 44.37    545.00     23.35
 44.47    526.14     22.94
 44.57    520.00     22.80
 44.67    506.00     22.49
 44.77    523.00     22.87
 44.87    508.00     22.54
 44.97    519.00     22.78
 45.07    502.00     22.41
 45.17    548.00     23.41
 45.27    535.00     23.13
 45.37    522.00     22.85
 45.47    526.09     22.94
 45.57    491.02     22.16
 45.67    526.00     22.93
 45.77    474.00     21.77
 45.87    561.00     23.69
 45.97    528.78     23.00
 46.07    571.00     23.90
 46.17    513.00     22.65
 46.27    487.00     22.07
 46.37    563.05     23.73
 46.47    499.00     22.34
 46.57    525.00     22.91
 46.67    542.00     23.28
 46.77    474.72     21.79
 46.87    536.08     23.15
 46.97    525.00     22.91
 47.07    546.00     23.37
 47.17    483.99     22.00
 47.27    494.00     22.23
 47.37    525.81     22.93
 47.47    502.24     22.41
 47.57    562.20     23.71
 47.67    548.10     23.41
 47.77    590.00     24.29
 47.87    603.00     24.56
 47.97    614.00     24.78
 48.07    591.00     24.31
 48.17    603.16     24.56
 48.27    601.00     24.52
 48.37    535.00     23.13
 48.47    547.55     23.40
 48.57    538.00     23.19
 48.67    586.00     24.21
 48.77    546.59     23.38
 48.87    574.00     23.96
 48.97    554.71     23.55
 49.07    560.00     23.66
 49.17    568.00     23.83
 49.27    602.36     24.54
 49.37    581.00     24.10
 49.47    595.00     24.39
 49.57    655.00     25.59
 49.67    676.00     26.00
 49.77    767.00     27.69
 49.87    966.03     31.08
 49.97   1247.00     35.31
 50.07   1535.00     39.18
 50.17   2005.05     44.78
 50.27   2198.00     46.88
 50.37   2365.00     48.63
 50.47   2196.56     46.87
 50.57   1991.00     44.62
 50.67   1650.00     40.62
 50.77   1336.28     36.56
 50.87   1053.68     32.46
 50.97    900.72     30.01
 51.07    728.00     26.98
 51.17    742.43     27.25
 51.27    678.89     26.06
 51.37    688.01     26.23
 51.47    623.00     24.96
 51.57    634.98     25.20
 51.67    652.74     25.55
 51.77    630.00     25.10
 51.87    632.00     25.14
 51.97    575.00     23.98
 52.07    560.00     23.66
 52.17    611.00     24.72
 52.27    550.00     23.45
 52.37    639.00     25.28
 52.47    594.00     24.37
 52.57    591.00     24.31
 52.67    555.45     23.57
 52.77    637.00     25.24
 52.87    618.66     24.87
 52.97    667.24     25.83
 53.07    649.00     25.48
 53.17    761.00     27.59
 53.27    836.85     28.93
 53.37    852.00     29.19
 53.47   1005.00     31.70
 53.57   1116.39     33.41
 53.67   1130.31     33.62
 53.77   1129.00     33.60
 53.87   1179.00     34.34
 53.97   1075.00     32.79
 54.07   1022.51     31.98
 54.17    820.51     28.64
 54.27    776.00     27.86
 54.37    664.00     25.77
 54.47    652.00     25.53
 54.57    647.00     25.44
 54.67    598.42     24.46
 54.77    601.00     24.52
 54.87    587.00     24.23
 54.97    580.00     24.08
 55.07    517.39     22.75
 55.17    623.00     24.96
 55.27    602.00     24.54
 55.37    574.57     23.97
 55.47    608.00     24.66
 55.57    567.00     23.81
 55.67    570.02     23.88
 55.77    595.39     24.40
 55.87    656.00     25.61
 55.97    636.00     25.22
 56.07    688.22     26.23
 56.17    691.00     26.29
 56.27    792.00     28.14
 56.37    870.00     29.50
 56.47    988.00     31.43
 56.57   1185.00     34.42
 56.67   1575.02     39.69
 56.77   1787.00     42.27
 56.87   2094.00     45.76
 56.97   2412.00     49.11
 57.07   2529.00     50.29
 57.17   2578.00     50.77
 57.27   2398.00     48.97
 57.37   2094.00     45.76
 57.47   1684.00     41.04
 57.57   1397.00     37.38
 57.67   1155.00     33.99
 57.77    980.41     31.31
 57.87    852.00     29.19
 57.97    763.22     27.63
 58.07    743.00     27.26
 58.17    715.00     26.74
 58.27    712.42     26.69
 58.37    703.00     26.51
 58.47    819.00     28.62
 58.57    752.82     27.44
 58.67    803.70     28.35
 58.77    978.00     31.27
 58.87   1054.00     32.47
 58.97   1078.00     32.83
 59.07   1119.51     33.46
 59.17   1195.30     34.57
 59.27   1298.00     36.03
 59.37   1200.79     34.65
 59.47   1271.00     35.65
 59.57   1303.00     36.10
 59.67   1079.64     32.86
 59.77   1158.00     34.03
 59.87   1203.00     34.68
 59.97   1248.00     35.33
 60.07   1296.00     36.00
 60.17   1430.00     37.82
 60.27   1459.80     38.21
 60.37   1537.00     39.20
 60.47   1530.00     39.12
 60.57   1553.06     39.41
 60.67   1429.00     37.80
 60.77   1291.00     35.93
 60.87   1222.00     34.96
 60.97    971.60     31.17
 61.07    861.00     29.34
 61.17    767.00     27.69
 61.27    725.38     26.93
 61.37    705.83     26.57
 61.47    714.00     26.72
 61.57    693.00     26.32
 61.67    731.00     27.04
 61.77    753.00     27.44
 61.87    841.18     29.00
 61.97   1030.74     32.11
 62.07   1178.03     34.32
 62.17   1213.00     34.83
 62.27   1245.00     35.28
 62.37   1302.00     36.08
 62.47   1410.34     37.55
 62.57   1277.00     35.74
 62.67   1196.00     34.58
 62.77   1120.98     33.48
 62.87    955.00     30.90
 62.97    817.00     28.58
 63.07    786.24     28.04
 63.17    697.00     26.40
 63.27    647.62     25.45
 63.37    640.00     25.30
 63.47    625.00     25.00
 63.57    596.00     24.41
 63.67    623.14     24.96
 63.77    608.00     24.66
 63.87    575.70     23.99
 63.97    632.00     25.14
 64.07    638.86     25.28
 64.17    683.00     26.13
 64.27    725.00     26.93
 64.37    759.00     27.55
 64.47    812.74     28.51
 64.57    901.00     30.02
 64.67    916.55     30.27
 64.77   1063.03     32.60
 64.87   1023.00     31.98
 64.97   1037.00     32.20
 65.07    977.06     31.26
 65.17    960.00     30.98
 65.27    916.28     30.27
 65.37    880.94     29.68
 65.47    841.00     29.00
 65.57    695.47     26.37
 65.67    679.69     26.07
 65.77    669.00     25.87
 65.87    663.25     25.75
 65.97    580.17     24.09
 66.07    613.00     24.76
 66.17    594.50     24.38
 66.27    595.00     24.39
 66.37    585.00     24.19
 66.47    591.00     24.31
 66.57    562.42     23.72
 66.67    596.76     24.43
 66.77    563.00     23.73
 66.87    590.00     24.29
 66.97    643.37     25.36
 67.07    634.49     25.19
 67.17    663.00     25.75
 67.27    691.00     26.29
 67.37    729.00     27.00
 67.47    808.00     28.43
 67.57    916.00     30.27
 67.67   1127.69     33.58
 67.77   1237.00     35.17
 67.87   1433.00     37.85
 67.97   1621.00     40.26
 68.07   1940.00     44.05
 68.17   2093.00     45.75
 68.27   2222.78     47.15
 68.37   2448.00     49.48
 68.47   2435.69     49.35
 68.57   2117.70     46.02
 68.67   1937.00     44.01
 68.77   1767.00     42.04
 68.87   1497.00     38.69
 68.97   1284.00     35.83
 69.07   1158.31     34.03
 69.17    950.00     30.82
 69.27    818.00     28.60
 69.37    707.00     26.59
 69.47    688.01     26.23
 69.57    633.00     25.16
 69.67    629.25     25.08
 69.77    648.00     25.46
 69.87    638.00     25.26
 69.97    599.00     24.47
 70.07    584.00     24.17
 70.17    603.76     24.57
 70.27    591.00     24.31
 70.37    538.91     23.21
 70.47    576.00     24.00
 70.57    642.00     25.34
 70.67    559.19     23.65
 70.77    610.00     24.70
 70.87    658.00     25.65
 70.97    619.00     24.88
 71.07    624.00     24.98
 71.17    643.00     25.36
 71.27    708.30     26.61
 71.37    792.90     28.16
 71.47    863.13     29.38
 71.57    884.00     29.73
 71.67   1073.82     32.77
 71.77   1197.00     34.60
 71.87   1414.93     37.62
 71.97   1513.00     38.90
 72.07   1619.49     40.24
 72.17   1766.00     42.02
 72.27   1874.00     43.29
 72.37   1910.00     43.70
 72.47   1791.00     42.32
 72.57   1737.00     41.68
 72.67   1537.00     39.20
 72.77   1406.00     37.50
 72.87   1243.00     35.26
 72.97   1100.00     33.17
 73.07    979.00     31.29
 73.17    866.00     29.43
 73.27    813.00     28.51
 73.37    768.00     27.71
 73.47    665.00     25.79
 73.57    710.00     26.65
 73.67    593.70     24.37
 73.77    639.00     25.28
 73.87    600.84     24.51
 73.97    645.00     25.40
 74.07    607.00     24.64
 74.17    557.00     23.60
 74.27    516.17     22.72
 74.37    593.86     24.37
 74.47    518.89     22.78
 74.57    622.00     24.94
 74.67    535.89     23.15
 74.77    587.00     24.23
 74.87    574.21     23.96
 74.97    660.00     25.69
 75.07    646.00     25.42
 75.17    685.00     26.17
 75.27    640.00     25.30
 75.37    652.00     25.53
 75.47    586.13     24.21
 75.57    577.00     24.02
 75.67    633.00     25.16
 75.77    622.00     24.94
 75.87    597.00     24.43
 75.97    601.62     24.53
 76.07    574.00     23.96
 76.17    611.71     24.73
 76.27    630.00     25.10
 76.37    683.47     26.14
 76.47    620.29     24.91
 76.57    723.74     26.90
 76.67    681.00     26.10
 76.77    687.67     26.22
 76.87    707.00     26.59
 76.97    703.97     26.53
 77.07    737.19     27.15
 77.17    666.00     25.81
 77.27    641.48     25.33
 77.37    589.51     24.28
 77.47    583.54     24.16
 77.57    566.57     23.80
 77.67    564.00     23.75
 77.77    569.00     23.85
 77.87    517.00     22.74
 77.97    532.00     23.07
 78.07    554.88     23.56
 78.17    520.00     22.80
 78.27    522.00     22.85
 78.37    492.92     22.20
 78.47    550.51     23.46
 78.57    506.00     22.49
 78.67    510.00     22.58
 78.77    491.41     22.17
 78.87    507.00     22.52
 78.97    486.79     22.06
 79.07    530.00     23.02
 79.17    496.00     22.27
 79.27    510.00     22.58
 79.37    487.62     22.08
 79.47    533.43     23.10
 79.57    519.00     22.78
 79.67    501.00     22.38
 79.77    511.00     22.61
 79.87    492.00     22.18
 79.97    532.00     23.07
 80.07    485.36     22.03
 80.17    545.00     23.35
 80.27    585.93     24.21
 80.37    589.54     24.28
 80.47    545.00     23.35
 80.57    561.00     23.69
 80.67    584.00     24.17
 80.77    553.00     23.52
 80.87    601.00     24.52
 80.97    643.00     25.36
 81.07    650.00     25.50
 81.17    702.26     26.50
 81.27    660.00     25.69
 81.37    719.56     26.82
 81.47    719.00     26.81
 81.57    705.00     26.55
 81.67    705.00     26.55
 81.77    708.10     26.61
 81.87    716.95     26.78
 81.97    711.36     26.67
 82.07    675.17     25.98
 82.17    656.00     25.61
 82.27    713.00     26.70
 82.37    663.00     25.75
 82.47    672.00     25.92
 82.57    640.04     25.30
 82.67    611.00     24.72
 82.77    592.00     24.33
 82.87    581.00     24.10
 82.97    584.00     24.17
 83.07    546.00     23.37
 83.17    536.07     23.15
 83.27    608.11     24.66
 83.37    529.00     23.00
 83.47    512.63     22.64
 83.57    519.00     22.78
 83.67    539.00     23.22
 83.77    523.00     22.87
 83.87    564.00     23.75
 83.97    548.00     23.41
 84.07    505.00     22.47
 84.17    573.67     23.95
 84.27    553.69     23.53
 84.37    541.57     23.27
 84.47    546.00     23.37
 84.57    567.48     23.82
 84.67    599.73     24.49
 84.77    574.00     23.96
 84.87    521.00     22.83
 84.97    508.00     22.54
 85.07    556.00     23.58
 85.17    520.00     22.80
 85.27    541.13     23.26
 85.37    548.32     23.42
 85.47    498.23     22.32
 85.57    544.00     23.32
 85.67    512.81     22.65
 85.77    544.00     23.32
 85.87    559.00     23.64
 85.97    566.68     23.81
 86.07    529.00     23.00
 86.17    506.00     22.49
 86.27    572.66     23.93
 86.37    546.00     23.37
 86.47    516.00     22.72
 86.57    502.80     22.42
 86.67    488.61     22.10
 86.77    490.18     22.14
 86.87    509.54     22.57
 86.97    590.00     24.29
 87.07    587.00     24.23
 87.17    575.00     23.98
 87.27    584.00     24.17
 87.37    585.00     24.19
 87.47    616.00     24.82
 87.57    595.00     24.39
 87.67    644.67     25.39
 87.77    660.00     25.69
 87.87    641.00     25.32
 87.97    664.81     25.78
 88.07    622.00     24.94
 88.17    573.41     23.95
 88.27    632.00     25.14
 88.37    639.20     25.28
 88.47    590.00     24.29
 88.57    579.00     24.06
 88.67    600.29     24.50
 88.77    557.00     23.60
 88.87    567.00     23.81
 88.97    584.00     24.17
 89.07    578.00     24.04
 89.17    567.00     23.81
 89.27    640.00     25.30
 89.37    535.32     23.14
 89.47    620.00     24.90
 89.57    625.00     25.00
 89.67    626.00     25.02
 89.77    547.00     23.39
 89.87    597.00     24.43
 89.97    617.00     24.84
 90.07    571.00     23.90
 90.17    535.00     23.13
 90.27    572.94     23.94
 90.37    595.32     24.40
 90.47    516.00     22.72
 90.57    554.00     23.54
 90.67    572.00     23.92
 90.77    520.00     22.80
 90.87    531.99     23.06
 90.97    550.00     23.45
 91.07    492.78     22.20
 91.17    512.00     22.63
 91.27    535.00     23.13
 91.37    482.51     21.97
 91.47    512.00     22.63
 91.57    462.00     21.49
 91.67    529.00     23.00
 91.77    520.00     22.80
 91.87    515.00     22.69
 91.97    541.00     23.26
 92.07    550.00     23.45
 92.17    522.00     22.85
 92.27    517.00     22.74
 92.37    578.30     24.05
 92.47    539.00     23.22
 92.57    603.00     24.56
 92.67    604.74     24.59
 92.77    638.57     25.27
 92.87    594.00     24.37
 92.97    640.23     25.30
 93.07    617.00     24.84
 93.17    661.00     25.71
 93.27    669.00     25.87
 93.37    745.00     27.29
 93.47    783.00     27.98
 93.57    671.00     25.90
 93.67    811.11     28.48
 93.77    742.00     27.24
 93.87    761.00     27.59
 93.97    757.00     27.51
 94.07    868.46     29.47
 94.17    862.29     29.36
 94.27    841.00     29.00
 94.37    827.51     28.77
 94.47    820.00     28.64
 94.57    865.00     29.41
 94.67    861.15     29.35
 94.77    914.00     30.23
 94.87    891.00     29.85
 94.97    899.00     29.98
 95.07    929.00     30.48
 95.17    932.48     30.54
 95.27    938.00     30.63
 95.37    827.67     28.77
 95.47    877.27     29.62
 95.57    840.90     29.00
 95.67    794.00     28.18
 95.77    805.00     28.37
 95.87    797.98     28.25
 95.97    748.20     27.35
 96.07    816.00     28.57
 96.17    756.33     27.50
 96.27    758.00     27.53
 96.37    744.00     27.28
 96.47    754.00     27.46
 96.57    786.28     28.04
 96.67    777.00     27.87
 96.77    816.00     28.57
 96.87    934.00     30.56
 96.97    966.67     31.09
 97.07    996.41     31.57
 97.17   1001.00     31.64
 97.27   1016.00     31.87
 97.37   1109.73     33.31
 97.47   1180.00     34.35
 97.57   1367.00     36.97
 97.67   1407.45     37.52
 97.77   1401.00     37.43
 97.87   1456.89     38.17
 97.97   1378.97     37.13
 98.07   1482.00     38.50
 98.17   1435.00     37.88
 98.27   1408.61     37.53
 98.37   1381.00     37.16
 98.47   1224.00     34.99
 98.57   1149.91     33.91
 98.67   1178.88     34.33
 98.77   1143.00     33.81
 98.87   1039.75     32.25
 98.97    982.00     31.34
 99.07   1018.71     31.92
 99.17    923.00     30.38
 99.27    905.00     30.08
 99.37    855.34     29.25
 99.47    966.93     31.10
 99.57    882.00     29.70
 99.67    934.00     30.56
 99.77   1026.00     32.03
 99.87   1084.25     32.93
 99.97   1125.00     33.54
100.07   1208.58     34.76
100.17   1262.00     35.52
100.27   1367.25     36.98
100.37   1536.28     39.20
100.47   1609.84     40.12
100.57   1653.00     40.66
100.67   1649.72     40.62
100.77   1821.00     42.67
100.87   1924.49     43.87
100.97   1917.00     43.78
101.07   2020.00     44.94
101.17   1990.28     44.61
101.27   1962.44     44.30
101.37   1925.00     43.87
101.47   1894.13     43.52
101.57   1904.00     43.63
101.67   1837.00     42.86
101.77   1699.73     41.23
101.87   1677.00     40.95
101.97   1637.00     40.46
102.07   1605.42     40.07
102.17   1433.57     37.86
102.27   1443.00     37.99
102.37   1424.99     37.75
102.47   1317.00     36.29
102.57   1319.00     36.32
102.67   1209.07     34.77
102.77   1173.00     34.25
102.87   1213.06     34.83
102.97   1156.00     34.00
103.07   1157.00     34.01
103.17   1078.79     32.84
103.27   1053.42     32.46
103.37   1022.00     31.97
103.47   1019.00     31.92
103.57    950.62     30.83
103.67    906.00     30.10
103.77    936.12     30.60
103.87    843.33     29.04
103.97    790.00     28.11
104.07    762.00     27.60
104.17    684.55     26.16
104.27    752.20     27.43
104.37    639.40     25.29
104.47    677.00     26.02
104.57    657.05     25.63
104.67    626.00     25.02
104.77    578.00     24.04
104.87    544.06     23.33
104.97    610.90     24.72
105.07    562.94     23.73
105.17    573.00     23.94
105.27    607.00     24.64
105.37    534.00     23.11
105.47    590.94     24.31
105.57    547.00     23.39
105.67    548.00     23.41
105.77    547.54     23.40
105.87    541.24     23.26
105.97    571.00     23.90
106.07    535.00     23.13
106.17    601.00     24.52
106.27    593.00     24.35
106.37    554.25     23.54
106.47    578.00     24.04
106.57    607.45     24.65
106.67    598.00     24.45
106.77    553.17     23.52
106.87    625.00     25.00
106.97    654.00     25.57
107.07    623.00     24.96
107.17    629.75     25.09
107.27    669.00     25.87
107.37    674.74     25.98
107.47    699.00     26.44
107.57    649.00     25.48
107.67    702.82     26.51
107.77    765.92     27.68
107.87    652.00     25.53
107.97    664.78     25.78
108.07    739.00     27.18
108.17    711.00     26.66
108.27    652.00     25.53
108.37    661.00     25.71
108.47    697.00     26.40
108.57    647.00     25.44
108.67    696.00     26.38
108.77    681.82     26.11
108.87    670.00     25.88
108.97    678.00     26.04
109.07    687.00     26.21
109.17    721.48     26.86
109.27    690.00     26.27
109.37    677.00     26.02
109.47    727.00     26.96
109.57    757.06     27.51
109.67    756.05     27.50
109.77    676.00     26.00
109.87    686.00     26.19
109.97    656.99     25.63
110.07    715.42     26.75
110.17    641.00     25.32
110.27    695.00     26.36
110.37    583.02     24.15
110.47    664.00     25.77
110.57    579.00     24.06
110.67    559.95     23.66
110.77    615.73     24.81
110.87    595.00     24.39
110.97    608.00     24.66
111.07    586.00     24.21
111.17    582.98     24.14
111.27    578.00     24.04
111.37    602.96     24.56
111.47    533.00     23.09
111.57    540.00     23.24
111.67    547.00     23.39
111.77    557.00     23.60
111.87    545.00     23.35
111.97    501.44     22.39
112.07    531.62     23.06
112.17    505.84     22.49
112.27    585.91     24.21
112.37    554.00     23.54
112.47    556.00     23.58
112.57    545.16     23.35
112.67    593.69     24.37
112.77    584.00     24.17
112.87    532.68     23.08
112.97    604.00     24.58
113.07    591.00     24.31
113.17    608.36     24.66
113.27    618.08     24.86
113.37    594.30     24.38
113.47    593.00     24.35
113.57    608.00     24.66
113.67    658.00     25.65
113.77    612.58     24.75
113.87    609.00     24.68
113.97    679.00     26.06
114.07    709.00     26.63
114.17    750.98     27.40
114.27    746.00     27.31
114.37    834.00     28.88
114.47    791.00     28.12
114.57    859.00     29.31
114.67    961.85     31.01
114.77   1004.00     31.69
114.87   1065.00     32.63
114.97   1231.79     35.10
115.07   1360.00     36.88
115.17   1517.00     38.95
115.27   1666.00     40.82
115.37   1899.00     43.58
115.47   1981.82     44.52
115.57   2308.00     48.04
115.67   2541.36     50.41
115.77   3003.00     54.80
115.87   3154.00     56.16
115.97   3502.06     59.18
116.07   3830.36     61.89
116.17   4154.00     64.45
116.27   4605.00     67.86
116.37   4941.00     70.29
116.47   5272.25     72.61
116.57   5682.00     75.38
116.67   5890.39     76.75
116.77   6302.00     79.39
116.87   6640.16     81.49
116.97   6767.00     82.26
117.07   6759.00     82.21
117.17   6915.54     83.16
117.27   6792.78     82.42
117.37   7001.64     83.68
117.47   6747.00     82.14
117.57   6445.64     80.28
117.67   6326.00     79.54
117.77   6105.22     78.14
117.87   5727.00     75.68
117.97   5257.00     72.51
118.07   4992.00     70.65
118.17   4654.00     68.22
118.27   4346.00     65.92
118.37   3974.00     63.04
118.47   3615.00     60.12
118.57   3313.00     57.56
118.67   2953.39     54.35
118.77   2653.88     51.52
118.87   2376.55     48.75
118.97   2262.07     47.56
119.07   2047.00     45.24
119.17   1697.00     41.19
119.27   1554.00     39.42
119.37   1553.00     39.41
119.47   1330.00     36.47
119.57   1300.47     36.06
119.67   1077.19     32.82
119.77   1064.00     32.62
119.87    988.59     31.44
119.97    955.40     30.91
120.07    877.28     29.62
120.17    826.00     28.74
120.27    814.00     28.53
120.37    796.00     28.21
120.47    733.00     27.07
120.57    697.20     26.40
120.67    694.00     26.34
120.77    632.00     25.14
120.87    636.00     25.22
120.97    673.42     25.95
121.07    616.00     24.82
121.17    611.80     24.73
121.27    635.20     25.20
121.37    603.00     24.56
121.47    611.00     24.72
121.57    603.00     24.56
121.67    564.07     23.75
121.77    555.00     23.56
121.87    599.40     24.48
121.97    600.00     24.49
122.07    601.00     24.52
122.17    603.47     24.57
122.27    624.10     24.98
122.37    578.00     24.04
122.47    612.00     24.74
122.57    616.00     24.82
122.67    639.26     25.28
122.77    636.00     25.22
122.87    573.00     23.94
122.97    670.73     25.90
123.07    609.00     24.68
123.17    630.46     25.11
123.27    656.00     25.61
123.37    676.00     26.00
123.47    642.33     25.34
123.57    615.24     24.80
123.67    641.00     25.32
123.77    631.00     25.12
123.87    616.92     24.84
123.97    597.82     24.45
124.07    574.78     23.97
124.17    589.19     24.27
124.27    639.00     25.28
124.37    618.00     24.86
124.47    608.00     24.66
124.57    645.00     25.40
124.67    624.00     24.98
124.77    633.00     25.16
124.87    564.24     23.75
124.97    568.88     23.85
