XYDATA



INTER 1.0 1.0 0 0
TEMP 745.416
  9.97    641.87     25.34
 10.07    559.08     23.64
 10.17    663.00     25.75
 10.27    700.00     26.46
 10.37    657.00     25.63
 10.47    609.64     24.69
 10.57    615.30     24.81
 10.67    683.00     26.13
 10.77    598.37     24.46
 10.87    660.00     25.69
 10.97    686.00     26.19
 11.07    701.00     26.48
 11.17    649.00     25.48
 11.27    569.99     23.87
 11.37    623.79     24.98
 11.47    658.38     25.66
 11.57    670.00     25.88
 11.67    571.02     23.90
 11.77    688.00     26.23
 11.87    603.09     24.56
 11.97    643.57     25.37
 12.07    665.06     25.79
 12.17    682.72     26.13
 12.27    798.52     28.26
 12.37    747.00     27.33
 12.47    753.00     27.44
 12.57    691.00     26.29
 12.67    666.00     25.81
 12.77    698.95     26.44
 12.87    685.32     26.18
 12.97    631.00     25.12
 13.07    603.00     24.56
 13.17    612.00     24.74
 13.27    610.45     24.71
 13.37    624.37     24.99
 13.47    680.60     26.09
 13.57    582.00     24.12
 13.67    610.00     24.70
 13.77    622.00     24.94
 13.87    683.90     26.15
 13.97    600.31     24.50
 14.07    634.00     25.18
 14.17    622.00     24.94
 14.27    616.44     24.83
 14.37    618.12     24.86
 14.47    605.00     24.60
 14.57    589.67     24.28
 14.67    592.01     24.33
 14.77    573.41     23.95
 14.87    593.13     24.35
 14.97    598.00     24.45
 15.07    626.00     25.02
 15.17    685.62     26.18
 15.27    667.92     25.84
 15.37    670.49     25.89
 15.47    641.00     25.32
 15.57    583.00     24.15
 15.67    651.96     25.53
 15.77    604.00     24.58
 15.87    656.00     25.61
 15.97    614.00     24.78
 16.07    607.00     24.64
 16.17    620.03     24.90
 16.27    658.00     25.65
 16.37    635.30     25.21
 16.47    689.42     26.26
 16.57    619.62     24.89
 16.67    640.19     25.30
 16.77    622.00     24.94
 16.87    594.00     24.37
 16.97    598.00     24.45
 17.07    605.00     24.60
 17.17    576.00     24.00
 17.27    645.09     25.40
 17.37    609.15     24.68
 17.47    619.00     24.88
 17.57    613.00     24.76
 17.67    661.00     25.71
 17.77    702.75     26.51
 17.87    617.91     24.86
 17.97    651.74     25.53
 18.07    580.00     24.08
 18.17    655.00     25.59
 18.27    623.93     24.98
 18.37    579.00     24.06
 18.47    621.68     24.93
 18.57    695.25     26.37
 18.67    630.26     25.10
 18.77    606.00     24.62
 18.87    591.87     24.33
 18.97    610.00     24.70
 19.07    638.00     25.26
 19.17    563.00     23.73
 19.27    603.00     24.56
 19.37    620.00     24.90
 19.47    606.00     24.62
 19.57    606.00     24.62
 19.67    603.37     24.56
 19.77    601.12     24.52
 19.87    638.47     25.27
 19.97    620.00     24.90
 20.07    618.00     24.86
 20.17    682.46     26.12
 20.27    587.00     24.23
 20.37    639.02     25.28
 20.47    674.67     25.97
 20.57    661.00     25.71
 20.67    602.00     24.54
 20.77    608.00     24.66
 20.87    621.00     24.92
 20.97    640.49     25.31
 21.07    580.00     24.08
 21.17    608.63     24.67
 21.27    619.00     24.88
 21.37    653.00     25.55
 21.47    666.92     25.82
 21.57    650.00     25.50
 21.67    634.00     25.18
 21.77    602.00     24.54
 21.87    624.00     24.98
 21.97    612.00     24.74
 22.07    611.00     24.72
 22.17    691.32     26.29
 22.27    609.68     24.69
 22.37    703.26     26.52
 22.47    625.00     25.00
 22.57    695.48     26.37
 22.67    627.00     25.04
 22.77    598.00     24.45
 22.87    641.64     25.33
 22.97    612.00     24.74
 23.07    606.00     24.62
 23.17    636.00     25.22
 23.27    589.00     24.27
 23.37    597.00     24.43
 23.47    594.95     24.39
 23.57    642.00     25.34
 23.67    655.00     25.59
 23.77    680.00     26.08
 23.87    675.25     25.99
 23.97    636.00     25.22
 24.07    586.85     24.23
 24.17    610.96     24.72
 24.27    656.00     25.61
 24.37    660.00     25.69
 24.47    632.21     25.14
 24.57    639.00     25.28
 24.67    745.89     27.31
 24.77    688.64     26.24
 24.87    694.02     26.34
 24.97    730.00     27.02
 25.07    696.00     26.38
 25.17    695.00     26.36
 25.27    692.00     26.31
 25.37    647.79     25.45
 25.47    622.00     24.94
 25.57    589.00     24.27
 25.67    662.62     25.74
 25.77    629.00     25.08
 25.87    652.00     25.53
 25.97    666.00     25.81
 26.07    651.14     25.52
 26.17    660.58     25.70
 26.27    693.00     26.32
 26.37    571.74     23.91
 26.47    562.60     23.72
 26.57    579.01     24.06
 26.67    669.00     25.87
 26.77    700.00     26.46
 26.87    555.99     23.58
 26.97    731.00     27.04
 27.07    585.91     24.21
 27.17    794.00     28.18
 27.27    648.23     25.46
 27.37    710.00     26.65
 27.47    579.66     24.08
 27.57    611.46     24.73
 27.67    628.59     25.07
 27.77    757.00     27.51
 27.87    799.00     28.27
 27.97    814.00     28.53
 28.07    832.89     28.86
 28.17    953.00     30.87
 28.27   1054.00     32.47
 28.37   1154.00     33.97
 28.47   1096.00     33.11
 28.57    984.12     31.37
 28.67    955.00     30.90
 28.77    930.00     30.50
 28.87    917.80     30.30
 28.97   1037.00     32.20
 29.07    865.14     29.41
 29.17    854.14     29.23
 29.27    842.91     29.03
 29.37    924.00     30.40
 29.47    809.00     28.44
 29.57    780.00     27.93
 29.67    722.00     26.87
 29.77    752.00     27.42
 29.87    801.00     28.30
 29.97    581.00     24.10
 30.07    691.00     26.29
 30.17    764.00     27.64
 30.27    695.00     26.36
 30.37    681.00     26.10
 30.47    672.00     25.92
 30.57    685.93     26.19
 30.67    657.00     25.63
 30.77    663.01     25.75
 30.87    606.77     24.63
 30.97    775.00     27.84
 31.07    731.00     27.04
 31.17    690.41     26.28
 31.27    743.00     27.26
 31.37    696.00     26.38
 31.47    689.82     26.26
 31.57    632.00     25.14
 31.67    695.00     26.36
 31.77    661.60     25.72
 31.87    638.87     25.28
 31.97    638.00     25.26
 32.07    619.05     24.88
 32.17    605.00     24.60
 32.27    627.00     25.04
 32.37    634.00     25.18
 32.47    590.00     24.29
 32.57    628.00     25.06
 32.67    575.00     23.98
 32.77    534.16     23.11
 32.87    592.00     24.33
 32.97    620.00     24.90
 33.07    582.00     24.12
 33.17    625.00     25.00
 33.27    639.00     25.28
 33.37    646.00     25.42
 33.47    607.00     24.64
 33.57    654.00     25.57
 33.67    681.00     26.10
 33.77    676.71     26.01
 33.87    767.00     27.69
 33.97    880.00     29.66
 34.07   1056.28     32.50
 34.17   1044.00     32.31
 34.27   1044.00     32.31
 34.37    986.00     31.40
 34.47    929.13     30.48
 34.57    739.00     27.18
 34.67    677.00     26.02
 34.77    643.00     25.36
 34.87    638.00     25.26
 34.97    606.00     24.62
 35.07    613.00     24.76
 35.17    581.00     24.10
 35.27    598.00     24.45
 35.37    651.52     25.52
 35.47    552.00     23.49
 35.57    534.08     23.11
 35.67    584.00     24.17
 35.77    597.00     24.43
 35.87    519.00     22.78
 35.97    522.28     22.85
 36.07    559.00     23.64
 36.17    546.00     23.37
 36.27    560.00     23.66
 36.37    530.00     23.02
 36.47    577.16     24.02
 36.57    515.00     22.69
 36.67    578.00     24.04
 36.77    548.00     23.41
 36.87    523.00     22.87
 36.97    515.97     22.71
 37.07    562.83     23.72
 37.17    585.00     24.19
 37.27    560.16     23.67
 37.37    554.95     23.56
 37.47    571.35     23.90
 37.57    514.00     22.67
 37.67    550.00     23.45
 37.77    557.00     23.60
 37.87    528.00     22.98
 37.97    546.00     23.37
 38.07    525.55     22.92
 38.17    576.77     24.02
 38.27    545.00     23.35
 38.37    547.00     23.39
 38.47    521.12     22.83
 38.57    612.79     24.75
 38.67    481.00     21.93
 38.77    521.00     22.83
 38.87    537.10     23.18
 38.97    502.00     22.41
 39.07    575.00     23.98
 39.17    574.00     23.96
 39.27    552.00     23.49
 39.37    557.00     23.60
 39.47    530.00     23.02
 39.57    547.00     23.39
 39.67    593.00     24.35
 39.77    611.66     24.73
 39.87    501.08     22.38
 39.97    552.65     23.51
 40.07    577.85     24.04
 40.17    571.00     23.90
 40.27    534.00     23.11
 40.37    549.00     23.43
 40.47    567.00     23.81
 40.57    544.00     23.32
 40.67    584.04     24.17
 40.77    514.00     22.67
 40.87    518.00     22.76
 40.97    538.00     23.19
 41.07    490.00     22.14
 41.17    553.00     23.52
 41.27    551.00     23.47
 41.37    518.24     22.76
 41.47    557.35     23.61
 41.57    611.39     24.73
 41.67    552.00     23.49
 41.77    520.00     22.80
 41.87    566.00     23.79
 41.97    524.76     22.91
 42.07    557.00     23.60
 42.17    540.00     23.24
 42.27    554.00     23.54
 42.37    543.00     23.30
 42.47    518.00     22.76
 42.57    606.91     24.64
 42.67    592.00     24.33
 42.77    621.64     24.93
 42.87    626.00     25.02
 42.97    659.66     25.68
 43.07    607.00     24.64
 43.17    568.34     23.84
 43.27    600.00     24.49
 43.37    579.00     24.06
 43.47    519.00     22.78
 43.57    593.93     24.37
 43.67    534.00     23.11
 43.77    545.00     23.35
 43.87    567.83     23.83
 43.97    561.00     23.69
 44.07    545.00     23.35
 44.17    479.00     21.89
 44.27    541.00     23.26
 44.37    558.45     23.63
 44.47    485.17     22.03
 44.57    572.00     23.92
 44.67    570.00     23.87
 44.77    536.04     23.15
 44.87    558.00     23.62
 44.97    531.64     23.06
 45.07    524.88     22.91
 45.17    508.00     22.54
 45.27    590.00     24.29
 45.37    585.02     24.19
 45.47    548.00     23.41
 45.57    539.00     23.22
 45.67    605.46     24.61
 45.77    558.00     23.62
 45.87    558.06     23.62
 45.97    509.00     22.56
 46.07    547.13     23.39
 46.17    544.00     23.32
 46.27    512.14     22.63
 46.37    520.83     22.82
 46.47    509.83     22.58
 46.57    561.00     23.69
 46.67    552.00     23.49
 46.77    544.00     23.32
 46.87    529.00     23.00
 46.97    564.30     23.76
 47.07    555.00     23.56
 47.17    568.17     23.84
 47.27    535.00     23.13
 47.37    584.00     24.17
 47.47    586.27     24.21
 47.57    605.00     24.60
 47.67    585.00     24.19
 47.77    583.00     24.15
 47.87    573.42     23.95
 47.97    609.27     24.68
 48.07    618.76     24.87
 48.17    605.00     24.60
 48.27    684.10     26.16
 48.37    626.42     25.03
 48.47    583.05     24.15
 48.57    597.00     24.43
 48.67    578.00     24.04
 48.77    625.85     25.02
 48.87    561.00     23.69
 48.97    599.26     24.48
 49.07    592.00     24.33
 49.17    583.00     24.15
 49.27    640.27     25.30
 49.37    602.83     24.55
 49.47    661.68     25.72
 49.57    609.00     24.68
 49.67    789.61     28.10
 49.77    761.00     27.59
 49.87    888.00     29.80
 49.97   1163.00     34.10
 50.07   1466.00     38.29
 50.17   1784.00     42.24
 50.27   2231.24     47.24
 50.37   2374.00     48.72
 50.47   2250.06     47.43
 50.57   2226.29     47.18
 50.67   1860.00     43.13
 50.77   1517.00     38.95
 50.87   1266.88     35.59
 50.97   1100.04     33.17
 51.07    816.00     28.57
 51.17    719.00     26.81
 51.27    691.00     26.29
 51.37    723.25     26.89
 51.47    644.26     25.38
 51.57    655.00     25.59
 51.67    663.00     25.75
 51.77    683.84     26.15
 51.87    557.92     23.62
 51.97    657.99     25.65
 52.07    592.66     24.34
 52.17    570.00     23.87
 52.27    566.61     23.80
 52.37    533.88     23.11
 52.47    613.00     24.76
 52.57    644.00     25.38
 52.67    580.89     24.10
 52.77    635.00     25.20
 52.87    649.05     25.48
 52.97    601.00     24.52
 53.07    688.00     26.23
 53.17    756.00     27.50
 53.27    716.24     26.76
 53.37    914.00     30.23
 53.47   1005.00     31.70
 53.57   1107.00     33.27
 53.67   1194.41     34.56
 53.77   1198.15     34.61
 53.87   1182.48     34.39
 53.97   1150.00     33.91
 54.07   1123.04     33.51
 54.17    927.00     30.45
 54.27    861.00     29.34
 54.37    664.00     25.77
 54.47    628.89     25.08
 54.57    720.33     26.84
 54.67    687.00     26.21
 54.77    644.00     25.38
 54.87    587.44     24.24
 54.97    593.00     24.35
 55.07    597.24     24.44
 55.17    594.00     24.37
 55.27    605.00     24.60
 55.37    615.00     24.80
 55.47    603.00     24.56
 55.57    588.59     24.26
 55.67    681.12     26.10
 55.77    626.64     25.03
 55.87    603.00     24.56
 55.97    656.00     25.61
 56.07    654.00     25.57
 56.17    690.00     26.27
 56.27    816.88     28.58
 56.37    831.00     28.83
 56.47    906.00     30.10
 56.57   1142.00     33.79
 56.67   1553.80     39.42
 56.77   1724.00     41.52
 56.87   2063.44     45.43
 56.97   2355.00     48.53
 57.07   2537.00     50.37
 57.17   2736.00     52.31
 57.27   2458.00     49.58
 57.37   2111.00     45.95
 57.47   1884.00     43.41
 57.57   1586.00     39.82
 57.67   1314.00     36.25
 57.77   1070.00     32.71
 57.87    881.00     29.68
 57.97    907.68     30.13
 58.07    769.00     27.73
 58.17    764.00     27.64
 58.27    730.00     27.02
 58.37    696.00     26.38
 58.47    756.00     27.50
 58.57    834.34     28.88
 58.67    922.00     30.36
 58.77    973.32     31.20
 58.87   1000.85     31.64
 58.97   1065.35     32.64
 59.07   1197.82     34.61
 59.17   1220.00     34.93
 59.27   1223.00     34.97
 59.37   1222.00     34.96
 59.47   1139.19     33.75
 59.57   1252.00     35.38
 59.67   1189.00     34.48
 59.77   1198.00     34.61
 59.87   1118.03     33.44
 59.97   1232.00     35.10
 60.07   1274.00     35.69
 60.17   1292.00     35.94
 60.27   1476.00     38.42
 60.37   1611.91     40.15
 60.47   1661.02     40.76
 60.57   1598.00     39.97
 60.67   1450.97     38.09
 60.77   1377.23     37.11
 60.87   1249.00     35.34
 60.97   1106.00     33.26
 61.07   1007.00     31.73
 61.17    847.00     29.10
 61.27    796.00     28.21
 61.37    795.00     28.20
 61.47    728.28     26.99
 61.57    735.08     27.11
 61.67    781.00     27.95
 61.77    791.00     28.12
 61.87    833.00     28.86
 61.97    999.00     31.61
 62.07   1080.36     32.87
 62.17   1107.34     33.28
 62.27   1389.70     37.28
 62.37   1287.00     35.87
 62.47   1397.36     37.38
 62.57   1289.00     35.90
 62.67   1227.77     35.04
 62.77   1159.00     34.04
 62.87    971.97     31.18
 62.97    900.00     30.00
 63.07    901.17     30.02
 63.17    729.00     27.00
 63.27    760.39     27.58
 63.37    722.80     26.89
 63.47    684.98     26.17
 63.57    583.58     24.16
 63.67    680.14     26.08
 63.77    670.00     25.88
 63.87    642.00     25.34
 63.97    683.00     26.13
 64.07    601.44     24.52
 64.17    747.00     27.33
 64.27    728.47     26.99
 64.37    841.00     29.00
 64.47    858.00     29.29
 64.57    960.20     30.99
 64.67    927.92     30.46
 64.77   1019.00     31.92
 64.87   1103.50     33.22
 64.97   1100.00     33.17
 65.07   1046.00     32.34
 65.17   1071.00     32.73
 65.27   1033.64     32.15
 65.37    876.75     29.61
 65.47    845.00     29.07
 65.57    775.98     27.86
 65.67    748.65     27.36
 65.77    741.00     27.22
 65.87    695.49     26.37
 65.97    641.00     25.32
 66.07    667.00     25.83
 66.17    646.42     25.42
 66.27    606.00     24.62
 66.37    644.00     25.38
 66.47    607.00     24.64
 66.57    682.34     26.12
 66.67    629.00     25.08
 66.77    594.11     24.37
 66.87    627.00     25.04
 66.97    614.00     24.78
 67.07    602.20     24.54
 67.17    671.00     25.90
 67.27    697.00     26.40
 67.37    710.00     26.65
 67.47    787.00     28.05
 67.57    932.00     30.53
 67.67   1014.02     31.84
 67.77   1166.00     34.15
 67.87   1360.00     36.88
 67.97   1547.00     39.33
 68.07   1845.00     42.95
 68.17   2134.00     46.20
 68.27   2349.00     48.47
 68.37   2406.00     49.05
 68.47   2443.00     49.43
 68.57   2294.88     47.90
 68.67   2152.00     46.39
 68.77   2004.32     44.77
 68.87   1597.00     39.96
 68.97   1482.00     38.50
 69.07   1181.00     34.37
 69.17   1032.00     32.12
 69.27    941.78     30.69
 69.37    783.73     28.00
 69.47    777.55     27.88
 69.57    728.00     26.98
 69.67    698.40     26.43
 69.77    671.00     25.90
 69.87    684.29     26.16
 69.97    597.05     24.43
 70.07    651.00     25.51
 70.17    554.57     23.55
 70.27    585.00     24.19
 70.37    603.00     24.56
 70.47    614.00     24.78
 70.57    551.24     23.48
 70.67    616.00     24.82
 70.77    671.23     25.91
 70.87    592.13     24.33
 70.97    641.00     25.32
 71.07    596.73     24.43
 71.17    703.67     26.53
 71.27    703.00     26.51
 71.37    797.00     28.23
 71.47    826.42     28.75
 71.57    899.00     29.98
 71.67   1048.00     32.37
 71.77   1091.59     33.04
 71.87   1257.00     35.45
 71.97   1401.87     37.44
 72.07   1585.92     39.82
 72.17   1775.00     42.13
 72.27   1735.92     41.66
 72.37   1841.00     42.91
 72.47   1760.27     41.96
 72.57   1793.89     42.35
 72.67   1620.00     40.25
 72.77   1529.00     39.10
 72.87   1364.73     36.94
 72.97   1199.74     34.64
 73.07   1048.00     32.37
 73.17    937.00     30.61
 73.27    772.17     27.79
 73.37    829.82     28.81
 73.47    692.59     26.32
 73.57    699.00     26.44
 73.67    610.99     24.72
 73.77    658.00     25.65
 73.87    655.00     25.59
 73.97    650.00     25.50
 74.07    705.00     26.55
 74.17    630.52     25.11
 74.27    654.14     25.58
 74.37    646.21     25.42
 74.47    652.00     25.53
 74.57    627.00     25.04
 74.67    645.00     25.40
 74.77    633.62     25.17
 74.87    685.00     26.17
 74.97    661.00     25.71
 75.07    714.00     26.72
 75.17    666.00     25.81
 75.27    653.00     25.55
 75.37    631.00     25.12
 75.47    698.00     26.42
 75.57    666.00     25.81
 75.67    663.00     25.75
 75.77    554.00     23.54
 75.87    639.00     25.28
 75.97    598.00     24.45
 76.07    648.00     25.46
 76.17    621.00     24.92
 76.27    631.29     25.13
 76.37    659.00     25.67
 76.47    670.45     25.89
 76.57    688.00     26.23
 76.67    672.62     25.93
 76.77    748.00     27.35
 76.87    792.34     28.15
 76.97    771.00     27.77
 77.07    766.00     27.68
 77.17    695.00     26.36
 77.27    689.00     26.25
 77.37    725.00     26.93
 77.47    682.00     26.12
 77.57    647.00     25.44
 77.67    655.47     25.60
 77.77    555.00     23.56
 77.87    566.00     23.79
 77.97    578.00     24.04
 78.07    565.00     23.77
 78.17    547.00     23.39
 78.27    580.00     24.08
 78.37    552.00     23.49
 78.47    569.00     23.85
 78.57    572.00     23.92
 78.67    541.00     23.26
 78.77    540.00     23.24
 78.87    547.70     23.40
 78.97    565.00     23.77
 79.07    546.53     23.38
 79.17    603.46     24.57
 79.27    587.74     24.24
 79.37    549.00     23.43
 79.47    506.55     22.51
 79.57    588.97     24.27
 79.67    557.00     23.60
 79.77    586.00     24.21
 79.87    545.20     23.35
 79.97    573.00     23.94
 80.07    629.91     25.10
 80.17    552.00     23.49
 80.27    553.00     23.52
 80.37    520.13     22.81
 80.47    549.00     23.43
 80.57    609.00     24.68
 80.67    632.00     25.14
 80.77    593.00     24.35
 80.87    613.00     24.76
 80.97    708.79     26.62
 81.07    688.00     26.23
 81.17    668.73     25.86
 81.27    729.00     27.00
 81.37    685.21     26.18
 81.47    783.00     27.98
 81.57    713.00     26.70
 81.67    715.62     26.75
 81.77    799.00     28.27
 81.87    732.73     27.07
 81.97    854.67     29.23
 82.07    755.00     27.48
 82.17    744.00     27.28
 82.27    742.40     27.25
 82.37    721.00     26.85
 82.47    692.00     26.31
 82.57    682.82     26.13
 82.67    638.00     25.26
 82.77    748.00     27.35
 82.87    640.00     25.30
 82.97    607.00     24.64
 83.07    650.42     25.50
 83.17    645.73     25.41
 83.27    591.00     24.31
 83.37    568.00     23.83
 83.47    644.23     25.38
 83.57    562.00     23.71
 83.67    560.00     23.66
 83.77    619.41     24.89
 83.87    600.00     24.49
 83.97    554.00     23.54
 84.07    576.64     24.01
 84.17    609.00     24.68
 84.27    601.00     24.52
 84.37    585.00     24.19
 84.47    632.00     25.14
 84.57    562.00     23.71
 84.67    615.99     24.82
 84.77    608.00     24.66
 84.87    562.00     23.71
 84.97    545.08     23.35
 85.07    541.00     23.26
 85.17    509.00     22.56
 85.27    571.00     23.90
 85.37    574.00     23.96
 85.47    515.11     22.70
 85.57    534.00     23.11
 85.67    602.72     24.55
 85.77    586.00     24.21
 85.87    539.00     23.22
 85.97    524.00     22.89
 86.07    585.00     24.19
 86.17    570.00     23.87
 86.27    525.00     22.91
 86.37    528.00     22.98
 86.47    579.00     24.06
 86.57    569.79     23.87
 86.67    563.00     23.73
 86.77    565.00     23.77
 86.87    586.00     24.21
 86.97    580.90     24.10
 87.07    610.53     24.71
 87.17    600.00     24.49
 87.27    637.00     25.24
 87.37    616.00     24.82
 87.47    651.00     25.51
 87.57    673.00     25.94
 87.67    657.00     25.63
 87.77    666.00     25.81
 87.87    725.70     26.94
 87.97    612.27     24.74
 88.07    702.00     26.50
 88.17    693.00     26.32
 88.27    703.00     26.51
 88.37    656.00     25.61
 88.47    658.00     25.65
 88.57    627.89     25.06
 88.67    622.00     24.94
 88.77    673.07     25.94
 88.87    612.00     24.74
 88.97    633.00     25.16
 89.07    550.00     23.45
 89.17    602.00     24.54
 89.27    650.00     25.50
 89.37    628.00     25.06
 89.47    609.00     24.68
 89.57    659.84     25.69
 89.67    608.00     24.66
 89.77    594.00     24.37
 89.87    609.00     24.68
 89.97    610.00     24.70
 90.07    607.00     24.64
 90.17    631.96     25.14
 90.27    597.00     24.43
 90.37    597.00     24.43
 90.47    596.89     24.43
 90.57    593.00     24.35
 90.67    563.00     23.73
 90.77    539.00     23.22
 90.87    545.75     23.36
 90.97    607.70     24.65
 91.07    566.85     23.81
 91.17    576.00     24.00
 91.27    550.00     23.45
 91.37    572.74     23.93
 91.47    548.00     23.41
 91.57    536.00     23.15
 91.67    571.58     23.91
 91.77    570.55     23.89
 91.87    528.00     22.98
 91.97    503.63     22.44
 92.07    554.00     23.54
 92.17    538.00     23.19
 92.27    525.00     22.91
 92.37    520.11     22.81
 92.47    610.00     24.70
 92.57    560.15     23.67
 92.67    578.00     24.04
 92.77    580.00     24.08
 92.87    639.00     25.28
 92.97    702.46     26.50
 93.07    619.90     24.90
 93.17    640.00     25.30
 93.27    664.78     25.78
 93.37    771.61     27.78
 93.47    703.00     26.51
 93.57    760.60     27.58
 93.67    795.22     28.20
 93.77    779.64     27.92
 93.87    790.00     28.11
 93.97    852.28     29.19
 94.07    768.00     27.71
 94.17    804.00     28.35
 94.27    814.20     28.53
 94.37    888.53     29.81
 94.47    799.00     28.27
 94.57    901.00     30.02
 94.67    870.00     29.50
 94.77    941.24     30.68
 94.87    899.45     29.99
 94.97    990.51     31.47
 95.07    997.00     31.58
 95.17    934.00     30.56
 95.27    937.00     30.61
 95.37    935.35     30.58
 95.47    879.00     29.65
 95.57    913.00     30.22
 95.67    848.00     29.12
 95.77    875.66     29.59
 95.87    849.00     29.14
 95.97    824.00     28.71
 96.07    823.25     28.69
 96.17    791.00     28.12
 96.27    820.06     28.64
 96.37    727.00     26.96
 96.47    691.92     26.30
 96.57    805.00     28.37
 96.67    778.00     27.89
 96.77    813.43     28.52
 96.87    841.00     29.00
 96.97    933.00     30.55
 97.07    901.00     30.02
 97.17   1005.00     31.70
 97.27   1124.00     33.53
 97.37   1082.00     32.89
 97.47   1116.78     33.42
 97.57   1299.00     36.04
 97.67   1297.00     36.01
 97.77   1410.00     37.55
 97.87   1332.58     36.50
 97.97   1490.00     38.60
 98.07   1542.00     39.27
 98.17   1496.00     38.68
 98.27   1503.99     38.78
 98.37   1452.00     38.11
 98.47   1443.47     37.99
 98.57   1301.00     36.07
 98.67   1283.00     35.82
 98.77   1183.00     34.39
 98.87   1108.16     33.29
 98.97   1045.00     32.33
 99.07   1005.00     31.70
 99.17   1037.46     32.21
 99.27    949.00     30.81
 99.37    923.00     30.38
 99.47    977.93     31.27
 99.57    948.00     30.79
 99.67    861.00     29.34
 99.77    972.00     31.18
 99.87   1011.00     31.80
 99.97   1044.00     32.31
100.07   1182.64     34.39
100.17   1231.00     35.09
100.27   1305.00     36.12
100.37   1402.00     37.44
100.47   1494.07     38.65
100.57   1643.25     40.54
100.67   1660.00     40.74
100.77   1861.00     43.14
100.87   1832.00     42.80
100.97   1958.34     44.25
101.07   1853.35     43.05
101.17   1962.00     44.29
101.27   2008.00     44.81
101.37   1944.24     44.09
101.47   1973.52     44.42
101.57   1953.50     44.20
101.67   1860.41     43.13
101.77   1936.00     44.00
101.87   1765.84     42.02
101.97   1698.00     41.21
102.07   1677.06     40.95
102.17   1500.66     38.74
102.27   1546.90     39.33
102.37   1386.00     37.23
102.47   1395.10     37.35
102.57   1269.00     35.62
102.67   1244.00     35.27
102.77   1262.00     35.52
102.87   1163.70     34.11
102.97   1189.00     34.48
103.07   1174.00     34.26
103.17   1178.00     34.32
103.27   1084.00     32.92
103.37   1044.00     32.31
103.47   1018.00     31.91
103.57   1019.06     31.92
103.67    990.97     31.48
103.77    938.00     30.63
103.87    974.70     31.22
103.97    828.00     28.77
104.07    843.00     29.03
104.17    767.00     27.69
104.27    750.00     27.39
104.37    758.00     27.53
104.47    772.06     27.79
104.57    662.93     25.75
104.67    692.00     26.31
104.77    703.04     26.51
104.87    658.00     25.65
104.97    628.00     25.06
105.07    609.00     24.68
105.17    633.03     25.16
105.27    596.00     24.41
105.37    564.00     23.75
105.47    576.00     24.00
105.57    566.00     23.79
105.67    596.18     24.42
105.77    573.00     23.94
105.87    521.17     22.83
105.97    606.00     24.62
106.07    605.00     24.60
106.17    601.00     24.52
106.27    560.00     23.66
106.37    578.00     24.04
106.47    556.00     23.58
106.57    581.00     24.10
106.67    598.00     24.45
106.77    622.00     24.94
106.87    573.46     23.95
106.97    625.56     25.01
107.07    641.00     25.32
107.17    685.00     26.17
107.27    729.89     27.02
107.37    692.00     26.31
107.47    725.00     26.93
107.57    673.00     25.94
107.67    695.00     26.36
107.77    768.69     27.73
107.87    726.00     26.94
107.97    675.00     25.98
108.07    704.90     26.55
108.17    707.00     26.59
108.27    756.00     27.50
108.37    711.00     26.66
108.47    795.10     28.20
108.57    680.00     26.08
108.67    743.00     27.26
108.77    688.00     26.23
108.87    721.00     26.85
108.97    724.00     26.91
109.07    707.18     26.59
109.17    693.84     26.34
109.27    766.00     27.68
109.37    734.00     27.09
109.47    662.76     25.74
109.57    739.83     27.20
109.67    729.00     27.00
109.77    667.00     25.83
109.87    734.00     27.09
109.97    713.52     26.71
110.07    725.00     26.93
110.17    735.80     27.13
110.27    673.11     25.94
110.37    707.00     26.59
110.47    670.00     25.88
110.57    680.00     26.08
110.67    610.36     24.71
110.77    604.11     24.58
110.87    639.00     25.28
110.97    615.00     24.80
111.07    612.00     24.74
111.17    613.44     24.77
111.27    624.92     25.00
111.37    623.00     24.96
111.47    566.00     23.79
111.57    614.00     24.78
111.67    599.40     24.48
111.77    561.00     23.69
111.87    565.17     23.77
111.97    585.00     24.19
112.07    538.41     23.20
112.17    557.26     23.61
112.27    626.28     25.03
112.37    637.00     25.24
112.47    573.79     23.95
112.57    594.00     24.37
112.67    572.00     23.92
112.77    578.00     24.04
112.87    582.00     24.12
112.97    547.36     23.40
113.07    549.36     23.44
113.17    575.65     23.99
113.27    600.92     24.51
113.37    609.00     24.68
113.47    578.00     24.04
113.57    636.81     25.24
113.67    667.08     25.83
113.77    616.00     24.82
113.87    643.00     25.36
113.97    656.00     25.61
114.07    646.78     25.43
114.17    713.00     26.70
114.27    673.15     25.95
114.37    743.00     27.26
114.47    768.00     27.71
114.57    813.71     28.53
114.67    780.54     27.94
114.77    902.00     30.03
114.87    968.00     31.11
114.97   1081.00     32.88
115.07   1211.07     34.80
115.17   1262.60     35.53
115.27   1534.00     39.17
115.37   1588.00     39.85
115.47   1873.00     43.28
115.57   2014.00     44.88
115.67   2290.00     47.85
115.77   2442.00     49.42
115.87   2616.74     51.15
115.97   3130.00     55.95
116.07   3286.26     57.33
116.17   3688.00     60.73
116.27   4096.03     64.00
116.37   4630.07     68.04
116.47   4915.60     70.11
116.57   5174.00     71.93
116.67   5451.00     73.83
116.77   6013.00     77.54
116.87   6469.77     80.43
116.97   6475.00     80.47
117.07   6809.00     82.52
117.17   7047.00     83.95
117.27   7125.23     84.41
117.37   7174.00     84.70
117.47   7057.00     84.01
117.57   6935.00     83.28
117.67   6930.00     83.25
117.77   6490.00     80.56
117.87   6166.49     78.53
117.97   5984.00     77.36
118.07   5404.00     73.51
118.17   5300.79     72.81
118.27   4837.00     69.55
118.37   4561.55     67.54
118.47   4320.00     65.73
118.57   3839.00     61.96
118.67   3674.00     60.61
118.77   3182.22     56.41
118.87   2877.00     53.64
118.97   2478.00     49.78
119.07   2356.00     48.54
119.17   2088.00     45.69
119.27   1828.00     42.76
119.37   1691.00     41.12
119.47   1612.83     40.16
119.57   1396.00     37.36
119.67   1236.00     35.16
119.77   1233.00     35.11
119.87   1149.00     33.90
119.97   1060.52     32.57
120.07   1043.92     32.31
120.17    939.00     30.64
120.27    939.99     30.66
120.37    833.00     28.86
120.47    794.00     28.18
120.57    756.00     27.50
120.67    766.00     27.68
120.77    783.51     27.99
120.87    744.06     27.28
120.97    658.00     25.65
121.07    707.00     26.59
121.17    666.00     25.81
121.27    683.00     26.13
121.37    635.28     25.20
121.47    670.28     25.89
121.57    627.00     25.04
121.67    638.00     25.26
121.77    586.83     24.22
121.87    608.00     24.66
121.97    632.52     25.15
122.07    640.00     25.30
122.17    646.00     25.42
122.27    603.00     24.56
122.37    656.00     25.61
122.47    591.00     24.31
122.57    671.00     25.90
122.67    704.63     26.54
122.77    629.00     25.08
122.87    647.00     25.44
122.97    588.79     24.26
123.07    671.00     25.90
123.17    677.00     26.02
123.27    670.00     25.88
123.37    659.00     25.67
123.47    709.00     26.63
123.57    675.00     25.98
123.67    723.50     26.90
123.77    704.59     26.54
123.87    631.95     25.14
123.97    633.78     25.17
124.07    694.00     26.34
124.17    669.00     25.87
124.27    644.00     25.38
124.37    627.00     25.04
124.47    680.00     26.08
124.57    603.00     24.56
124.67    681.00     26.10
124.77    700.85     26.47
124.87    582.00     24.12
124.97    674.00     25.96
