XYDATA



INTER 1.0 1.0 0 0
TEMP 1074.0
  9.97    560.00     23.66
 10.07    573.00     23.94
 10.17    646.00     25.42
 10.27    635.00     25.20
 10.37    616.22     24.82
 10.47    545.00     23.35
 10.57    566.56     23.80
 10.67    598.00     24.45
 10.77    629.00     25.08
 10.87    606.00     24.62
 10.97    578.00     24.04
 11.07    622.31     24.95
 11.17    584.00     24.17
 11.27    568.13     23.84
 11.37    559.00     23.64
 11.47    614.00     24.78
 11.57    624.00     24.98
 11.67    549.00     23.43
 11.77    641.58     25.33
 11.87    605.00     24.60
 11.97    693.00     26.32
 12.07    702.00     26.50
 12.17    698.00     26.42
 12.27    691.00     26.29
 12.37    694.00     26.34
 12.47    624.00     24.98
 12.57    620.00     24.90
 12.67    575.21     23.98
 12.77    571.00     23.90
 12.87    572.00     23.92
 12.97    620.72     24.91
 13.07    554.45     23.55
 13.17    593.66     24.37
 13.27    586.00     24.21
 13.37    533.72     23.10
 13.47    581.00     24.10
 13.57    525.00     22.91
 13.67    549.00     23.43
 13.77    531.36     23.05
 13.87    578.55     24.05
 13.97    596.00     24.41
 14.07    571.89     23.91
 14.17    538.00     23.19
 14.27    549.14     23.43
 14.37    535.00     23.13
 14.47    535.00     23.13
 14.57    580.10     24.09
 14.67    591.00     24.31
 14.77    562.67     23.72
 14.87    576.00     24.00
 14.97    539.00     23.22
 15.07    589.00     24.27
 15.17    547.00     23.39
 15.27    588.00     24.25
 15.37    524.24     22.90
 15.47    585.00     24.19
 15.57    587.33     24.23
 15.67    559.00     23.64
 15.77    612.90     24.76
 15.87    555.00     23.56
 15.97    560.00     23.66
 16.07    606.64     24.63
 16.17    557.72     23.62
 16.27    599.25     24.48
 16.37    606.00     24.62
 16.47    572.00     23.92
 16.57    604.57     24.59
 16.67    591.95     24.33
 16.77    549.99     23.45
 16.87    533.69     23.10
 16.97    572.00     23.92
 17.07    557.00     23.60
 17.17    519.90     22.80
 17.27    568.00     23.83
 17.37    565.00     23.77
 17.47    539.83     23.23
 17.57    564.00     23.75
 17.67    604.89     24.59
 17.77    570.00     23.87
 17.87    607.86     24.65
 17.97    551.00     23.47
 18.07    536.00     23.15
 18.17    584.00     24.17
 18.27    527.00     22.96
 18.37    544.00     23.32
 18.47    595.00     24.39
 18.57    570.35     23.88
 18.67    524.00     22.89
 18.77    582.54     24.14
 18.87    593.76     24.37
 18.97    575.00     23.98
 19.07    545.00     23.35
 19.17    577.00     24.02
 19.27    580.00     24.08
 19.37    589.80     24.29
 19.47    573.00     23.94
 19.57    566.00     23.79
 19.67    545.00     23.35
 19.77    535.29     23.14
 19.87    548.00     23.41
 19.97    582.00     24.12
 20.07    524.26     22.90
 20.17    566.00     23.79
 20.27    549.00     23.43
 20.37    538.99     23.22
 20.47    551.00     23.47
 20.57    511.00     22.61
 20.67    554.00     23.54
 20.77    534.00     23.11
 20.87    569.57     23.87
 20.97    510.38     22.59
 21.07    587.81     24.24
 21.17    510.00     22.58
 21.27    511.68     22.62
 21.37    564.22     23.75
 21.47    587.00     24.23
 21.57    553.00     23.52
 21.67    567.04     23.81
 21.77    553.79     23.53
 21.87    531.00     23.04
 21.97    510.46     22.59
 22.07    561.00     23.69
 22.17    529.00     23.00
 22.27    541.53     23.27
 22.37    544.00     23.32
 22.47    513.57     22.66
 22.57    518.86     22.78
 22.67    554.00     23.54
 22.77    578.00     24.04
 22.87    577.00     24.02
 22.97    525.77     22.93
 23.07    585.74     24.20
 23.17    593.53     24.36
 23.27    512.00     22.63
 23.37    523.00     22.87
 23.47    562.85     23.72
 23.57    556.00     23.58
 23.67    583.63     24.16
 23.77    583.00     24.15
 23.87    547.53     23.40
 23.97    561.00     23.69
 24.07    500.00     22.36
 24.17    576.00     24.00
 24.27    522.28     22.85
 24.37    599.19     24.48
 24.47    589.00     24.27
 24.57    587.00     24.23
 24.67    574.20     23.96
 24.77    585.00     24.19
 24.87    655.57     25.60
 24.97    609.00     24.68
 25.07    592.00     24.33
 25.17    538.00     23.19
 25.27    539.00     23.22
 25.37    549.00     23.43
 25.47    558.00     23.62
 25.57    567.04     23.81
 25.67    521.00     22.83
 25.77    547.00     23.39
 25.87    566.04     23.79
 25.97    587.93     24.25
 26.07    551.00     23.47
 26.17    532.00     23.07
 26.27    555.45     23.57
 26.37    579.00     24.06
 26.47    547.00     23.39
 26.57    582.07     24.13
 26.67    501.00     22.38
 26.77    514.00     22.67
 26.87    549.29     23.44
 26.97    589.00     24.27
 27.07    559.00     23.64
 27.17    580.82     24.10
 27.27    578.00     24.04
 27.37    520.00     22.80
 27.47    554.00     23.54
 27.57    557.00     23.60
 27.67    551.90     23.49
 27.77    615.00     24.80
 27.87    612.00     24.74
 27.97    683.00     26.13
 28.07    781.00     27.95
 28.17    854.09     29.22
 28.27    934.00     30.56
 28.37    895.00     29.92
 28.47    806.00     28.39
 28.57    738.00     27.17
 28.67    738.00     27.17
 28.77    737.00     27.15
 28.87    799.03     28.27
 28.97    782.00     27.96
 29.07    774.22     27.82
 29.17    687.00     26.21
 29.27    647.29     25.44
 29.37    579.00     24.06
 29.47    570.46     23.88
 29.57    609.40     24.69
 29.67    553.20     23.52
 29.77    555.97     23.58
 29.87    575.00     23.98
 29.97    558.00     23.62
 30.07    513.72     22.67
 30.17    576.00     24.00
 30.27    607.00     24.64
 30.37    577.00     24.02
 30.47    592.00     24.33
 30.57    559.00     23.64
 30.67    567.00     23.81
 30.77    596.00     24.41
 30.87    606.00     24.62
 30.97    651.00     25.51
 31.07    590.19     24.29
 31.17    615.00     24.80
 31.27    559.00     23.64
 31.37    530.00     23.02
 31.47    573.00     23.94
 31.57    527.40     22.97
 31.67    580.00     24.08
 31.77    535.25     23.14
 31.87    528.14     22.98
 31.97    498.95     22.34
 32.07    568.85     23.85
 32.17    517.00     22.74
 32.27    553.00     23.52
 32.37    610.00     24.70
 32.47    517.56     22.75
 32.57    532.86     23.08
 32.67    554.00     23.54
 32.77    539.62     23.23
 32.87    547.51     23.40
 32.97    512.00     22.63
 33.07    519.20     22.79
 33.17    527.00     22.96
 33.27    545.00     23.35
 33.37    527.00     22.96
 33.47    598.00     24.45
 33.57    636.59     25.23
 33.67    675.00     25.98
 33.77    724.00     26.91
 33.87    908.98     30.15
 33.97    977.00     31.26
 34.07   1121.31     33.49
 34.17    972.00     31.18
 34.27    892.02     29.87
 34.37    781.96     27.96
 34.47    644.00     25.38
 34.57    577.00     24.02
 34.67    582.00     24.12
 34.77    525.00     22.91
 34.87    546.00     23.37
 34.97    516.00     22.72
 35.07    525.00     22.91
 35.17    547.80     23.41
 35.27    496.41     22.28
 35.37    551.00     23.47
 35.47    511.21     22.61
 35.57    490.12     22.14
 35.67    502.00     22.41
 35.77    503.66     22.44
 35.87    504.71     22.47
 35.97    544.00     23.32
 36.07    515.00     22.69
 36.17    489.18     22.12
 36.27    523.48     22.88
 36.37    471.39     21.71
 36.47    481.00     21.93
 36.57    501.00     22.38
 36.67    501.00     22.38
 36.77    484.00     22.00
 36.87    519.19     22.79
 36.97    496.00     22.27
 37.07    473.74     21.77
 37.17    547.46     23.40
 37.27    501.00     22.38
 37.37    521.39     22.83
 37.47    566.19     23.79
 37.57    522.00     22.85
 37.67    535.00     23.13
 37.77    534.72     23.12
 37.87    512.00     22.63
 37.97    504.00     22.45
 38.07    514.00     22.67
 38.17    519.00     22.78
 38.27    557.97     23.62
 38.37    518.00     22.76
 38.47    482.00     21.95
 38.57    447.00     21.14
 38.67    521.00     22.83
 38.77    504.00     22.45
 38.87    504.70     22.47
 38.97    502.00     22.41
 39.07    500.71     22.38
 39.17    451.00     21.24
 39.27    538.00     23.19
 39.37    491.00     22.16
 39.47    539.00     23.22
 39.57    479.00     21.89
 39.67    518.00     22.76
 39.77    483.00     21.98
 39.87    546.37     23.37
 39.97    534.00     23.11
 40.07    510.00     22.58
 40.17    545.00     23.35
 40.27    519.00     22.78
 40.37    515.00     22.69
 40.47    488.62     22.10
 40.57    532.00     23.07
 40.67    503.50     22.44
 40.77    533.83     23.10
 40.87    527.28     22.96
 40.97    512.99     22.65
 41.07    505.00     22.47
 41.17    473.00     21.75
 41.27    473.00     21.75
 41.37    490.00     22.14
 41.47    525.40     22.92
 41.57    486.00     22.05
 41.67    513.03     22.65
 41.77    511.00     22.61
 41.87    510.00     22.58
 41.97    529.00     23.00
 42.07    536.00     23.15
 42.17    509.00     22.56
 42.27    553.69     23.53
 42.37    531.00     23.04
 42.47    628.00     25.06
 42.57    595.00     24.39
 42.67    636.21     25.22
 42.77    645.62     25.41
 42.87    577.00     24.02
 42.97    546.00     23.37
 43.07    554.00     23.54
 43.17    539.00     23.22
 43.27    510.66     22.60
 43.37    551.00     23.47
 43.47    516.00     22.72
 43.57    521.11     22.83
 43.67    507.00     22.52
 43.77    476.00     21.82
 43.87    526.00     22.93
 43.97    530.92     23.04
 44.07    507.00     22.52
 44.17    488.36     22.10
 44.27    499.00     22.34
 44.37    477.00     21.84
 44.47    512.00     22.63
 44.57    510.00     22.58
 44.67    514.18     22.68
 44.77    540.00     23.24
 44.87    481.00     21.93
 44.97    520.88     22.82
 45.07    539.00     23.22
 45.17    473.00     21.75
 45.27    518.00     22.76
 45.37    552.00     23.49
 45.47    506.00     22.49
 45.57    561.00     23.69
 45.67    486.90     22.07
 45.77    484.00     22.00
 45.87    474.00     21.77
 45.97    529.00     23.00
 46.07    498.00     22.32
 46.17    506.00     22.49
 46.27    510.00     22.58
 46.37    502.00     22.41
 46.47    514.00     22.67
 46.57    543.00     23.30
 46.67    550.47     23.46
 46.77    547.00     23.39
 46.87    495.00     22.25
 46.97    519.37     22.79
 47.07    528.10     22.98
 47.17    514.00     22.67
 47.27    516.00     22.72
 47.37    542.00     23.28
 47.47    544.00     23.32
 47.57    572.00     23.92
 47.67    559.88     23.66
 47.77    580.00     24.08
 47.87    626.00     25.02
 47.97    626.19     25.02
 48.07    578.00     24.04
 48.17    580.00     24.08
 48.27    547.95     23.41
 48.37    512.00     22.63
 48.47    543.22     23.31
 48.57    526.00     22.93
 48.67    532.00     23.07
 48.77    547.56     23.40
 48.87    495.00     22.25
 48.97    608.00     24.66
 49.07    605.85     24.61
 49.17    577.06     24.02
 49.27    650.00     25.50
 49.37    624.00     24.98
 49.47    659.12     25.67
 49.57    801.13     28.30
 49.67    897.00     29.95
 49.77   1101.23     33.18
 49.87   1454.24     38.13
 49.97   1800.15     42.43
 50.07   2224.95     47.17
 50.17   2554.00     50.54
 50.27   2447.00     49.47
 50.37   2317.12     48.14
 50.47   1849.00     43.00
 50.57   1438.29     37.92
 50.67   1103.00     33.21
 50.77    842.96     29.03
 50.87    752.40     27.43
 50.97    693.12     26.33
 51.07    621.00     24.92
 51.17    633.00     25.16
 51.27    621.55     24.93
 51.37    610.00     24.70
 51.47    563.00     23.73
 51.57    565.00     23.77
 51.67    526.00     22.93
 51.77    581.00     24.10
 51.87    551.00     23.47
 51.97    510.00     22.58
 52.07    580.00     24.08
 52.17    553.00     23.52
 52.27    544.94     23.34
 52.37    555.43     23.57
 52.47    584.55     24.18
 52.57    581.00     24.10
 52.67    594.83     24.39
 52.77    568.00     23.83
 52.87    628.00     25.06
 52.97    679.00     26.06
 53.07    864.00     29.39
 53.17    873.41     29.55
 53.27   1054.00     32.47
 53.37   1131.00     33.63
 53.47   1251.41     35.38
 53.57   1192.00     34.53
 53.67   1112.00     33.35
 53.77    956.50     30.93
 53.87    887.00     29.78
 53.97    773.00     27.80
 54.07    656.63     25.62
 54.17    611.00     24.72
 54.27    569.17     23.86
 54.37    575.22     23.98
 54.47    570.00     23.87
 54.57    596.34     24.42
 54.67    521.40     22.83
 54.77    562.84     23.72
 54.87    560.00     23.66
 54.97    575.00     23.98
 55.07    550.00     23.45
 55.17    589.65     24.28
 55.27    591.00     24.31
 55.37    581.30     24.11
 55.47    557.00     23.60
 55.57    600.00     24.49
 55.67    540.00     23.24
 55.77    592.64     24.34
 55.87    571.00     23.90
 55.97    643.54     25.37
 56.07    644.96     25.40
 56.17    774.00     27.82
 56.27    916.00     30.27
 56.37   1130.00     33.62
 56.47   1350.00     36.74
 56.57   1771.00     42.08
 56.67   2209.11     47.00
 56.77   2450.00     49.50
 56.87   2527.00     50.27
 56.97   2674.82     51.72
 57.07   2375.00     48.73
 57.17   2056.05     45.34
 57.27   1622.97     40.29
 57.37   1300.85     36.07
 57.47   1005.81     31.71
 57.57    919.96     30.33
 57.67    748.46     27.36
 57.77    722.00     26.87
 57.87    688.00     26.23
 57.97    710.76     26.66
 58.07    673.00     25.94
 58.17    743.01     27.26
 58.27    788.00     28.07
 58.37    878.00     29.63
 58.47    918.00     30.30
 58.57   1034.00     32.16
 58.67   1114.00     33.38
 58.77   1344.00     36.66
 58.87   1430.00     37.82
 58.97   1382.00     37.18
 59.07   1494.00     38.65
 59.17   1499.00     38.72
 59.27   1408.00     37.52
 59.37   1295.00     35.99
 59.47   1215.00     34.86
 59.57   1198.00     34.61
 59.67   1143.00     33.81
 59.77   1147.00     33.87
 59.87   1184.94     34.42
 59.97   1321.00     36.35
 60.07   1472.00     38.37
 60.17   1589.00     39.86
 60.27   1522.00     39.01
 60.37   1495.00     38.67
 60.47   1403.10     37.46
 60.57   1233.00     35.11
 60.67   1021.49     31.96
 60.77    902.00     30.03
 60.87    805.94     28.39
 60.97    716.77     26.77
 61.07    711.95     26.68
 61.17    657.00     25.63
 61.27    598.38     24.46
 61.37    667.00     25.83
 61.47    700.00     26.46
 61.57    806.00     28.39
 61.67    817.00     28.58
 61.77   1001.71     31.65
 61.87   1098.00     33.14
 61.97   1191.00     34.51
 62.07   1317.00     36.29
 62.17   1338.00     36.58
 62.27   1296.00     36.00
 62.37   1295.00     35.99
 62.47   1219.00     34.91
 62.57   1068.70     32.69
 62.67    870.00     29.50
 62.77    746.00     27.31
 62.87    749.76     27.38
 62.97    602.00     24.54
 63.07    635.26     25.20
 63.17    601.61     24.53
 63.27    557.50     23.61
 63.37    595.10     24.39
 63.47    578.00     24.04
 63.57    590.38     24.30
 63.67    622.00     24.94
 63.77    633.00     25.16
 63.87    664.00     25.77
 63.97    687.00     26.21
 64.07    740.00     27.20
 64.17    778.00     27.89
 64.27    887.00     29.78
 64.37    907.00     30.12
 64.47    949.00     30.81
 64.57    954.50     30.90
 64.67   1079.00     32.85
 64.77    996.80     31.57
 64.87   1011.00     31.80
 64.97    948.00     30.79
 65.07    887.00     29.78
 65.17    823.64     28.70
 65.27    730.00     27.02
 65.37    664.23     25.77
 65.47    602.00     24.54
 65.57    678.75     26.05
 65.67    562.00     23.71
 65.77    584.00     24.17
 65.87    570.00     23.87
 65.97    536.00     23.15
 66.07    575.38     23.99
 66.17    551.00     23.47
 66.27    545.00     23.35
 66.37    597.26     24.44
 66.47    562.28     23.71
 66.57    525.99     22.93
 66.67    525.00     22.91
 66.77    559.00     23.64
 66.87    562.00     23.71
 66.97    572.74     23.93
 67.07    603.00     24.56
 67.17    708.32     26.61
 67.27    757.61     27.52
 67.37    930.37     30.50
 67.47   1088.00     32.98
 67.57   1240.00     35.21
 67.67   1577.45     39.72
 67.77   1752.71     41.87
 67.87   2082.00     45.63
 67.97   2283.00     47.78
 68.07   2350.26     48.48
 68.17   2477.00     49.77
 68.27   2310.00     48.06
 68.37   2014.00     44.88
 68.47   1784.04     42.24
 68.57   1519.00     38.97
 68.67   1210.93     34.80
 68.77   1058.00     32.53
 68.87    906.00     30.10
 68.97    795.14     28.20
 69.07    664.00     25.77
 69.17    665.00     25.79
 69.27    669.00     25.87
 69.37    579.00     24.06
 69.47    597.00     24.43
 69.57    580.90     24.10
 69.67    560.00     23.66
 69.77    528.60     22.99
 69.87    596.08     24.41
 69.97    602.83     24.55
 70.07    524.00     22.89
 70.17    553.00     23.52
 70.27    597.00     24.43
 70.37    587.00     24.23
 70.47    528.57     22.99
 70.57    589.00     24.27
 70.67    536.58     23.16
 70.77    601.00     24.52
 70.87    646.13     25.42
 70.97    621.56     24.93
 71.07    684.85     26.17
 71.17    735.00     27.11
 71.27    865.00     29.41
 71.37    958.00     30.95
 71.47   1054.00     32.47
 71.57   1291.95     35.94
 71.67   1489.76     38.60
 71.77   1623.00     40.29
 71.87   1822.90     42.70
 71.97   1894.00     43.52
 72.07   1864.00     43.17
 72.17   1910.00     43.70
 72.27   1784.00     42.24
 72.37   1667.00     40.83
 72.47   1402.08     37.44
 72.57   1278.49     35.76
 72.67   1094.00     33.08
 72.77   1042.54     32.29
 72.87    901.00     30.02
 72.97    854.19     29.23
 73.07    767.00     27.69
 73.17    746.16     27.32
 73.27    722.00     26.87
 73.37    694.00     26.34
 73.47    690.35     26.27
 73.57    659.70     25.68
 73.67    609.00     24.68
 73.77    560.32     23.67
 73.87    618.00     24.86
 73.97    583.60     24.16
 74.07    565.30     23.78
 74.17    616.00     24.82
 74.27    610.00     24.70
 74.37    644.00     25.38
 74.47    630.00     25.10
 74.57    609.00     24.68
 74.67    597.00     24.43
 74.77    613.00     24.76
 74.87    655.00     25.59
 74.97    609.00     24.68
 75.07    582.00     24.12
 75.17    562.00     23.71
 75.27    553.00     23.52
 75.37    528.03     22.98
 75.47    579.00     24.06
 75.57    543.00     23.30
 75.67    585.69     24.20
 75.77    539.70     23.23
 75.87    576.00     24.00
 75.97    612.75     24.75
 76.07    615.00     24.80
 76.17    699.00     26.44
 76.27    627.62     25.05
 76.37    675.00     25.98
 76.47    745.09     27.30
 76.57    689.00     26.25
 76.67    739.00     27.18
 76.77    688.72     26.24
 76.87    647.74     25.45
 76.97    660.00     25.69
 77.07    607.00     24.64
 77.17    576.00     24.00
 77.27    565.00     23.77
 77.37    568.00     23.83
 77.47    543.00     23.30
 77.57    506.00     22.49
 77.67    531.10     23.05
 77.77    524.00     22.89
 77.87    564.13     23.75
 77.97    518.00     22.76
 78.07    541.09     23.26
 78.17    518.00     22.76
 78.27    493.00     22.20
 78.37    534.35     23.12
 78.47    536.66     23.17
 78.57    532.00     23.07
 78.67    540.98     23.26
 78.77    500.63     22.37
 78.87    506.00     22.49
 78.97    527.00     22.96
 79.07    569.82     23.87
 79.17    492.00     22.18
 79.27    543.00     23.30
 79.37    491.62     22.17
 79.47    520.00     22.80
 79.57    559.00     23.64
 79.67    519.72     22.80
 79.77    536.00     23.15
 79.87    517.00     22.74
 79.97    508.00     22.54
 80.07    565.69     23.78
 80.17    563.00     23.73
 80.27    546.00     23.37
 80.37    603.00     24.56
 80.47    584.00     24.17
 80.57    649.30     25.48
 80.67    638.00     25.26
 80.77    617.00     24.84
 80.87    694.00     26.34
 80.97    739.00     27.18
 81.07    760.75     27.58
 81.17    702.00     26.50
 81.27    742.00     27.24
 81.37    753.00     27.44
 81.47    703.00     26.51
 81.57    718.00     26.80
 81.67    794.00     28.18
 81.77    768.00     27.71
 81.87    684.00     26.15
 81.97    721.00     26.85
 82.07    716.00     26.76
 82.17    661.91     25.73
 82.27    641.00     25.32
 82.37    645.00     25.40
 82.47    576.00     24.00
 82.57    542.00     23.28
 82.67    540.00     23.24
 82.77    598.75     24.47
 82.87    565.55     23.78
 82.97    538.00     23.19
 83.07    536.00     23.15
 83.17    547.00     23.39
 83.27    525.00     22.91
 83.37    563.00     23.73
 83.47    540.00     23.24
 83.57    573.00     23.94
 83.67    600.35     24.50
 83.77    523.00     22.87
 83.87    580.16     24.09
 83.97    622.92     24.96
 84.07    597.76     24.45
 84.17    577.00     24.02
 84.27    589.00     24.27
 84.37    571.00     23.90
 84.47    585.00     24.19
 84.57    553.00     23.52
 84.67    551.00     23.47
 84.77    545.00     23.35
 84.87    551.06     23.47
 84.97    513.00     22.65
 85.07    489.25     22.12
 85.17    500.37     22.37
 85.27    547.00     23.39
 85.37    495.00     22.25
 85.47    493.56     22.22
 85.57    545.70     23.36
 85.67    505.92     22.49
 85.77    553.00     23.52
 85.87    519.25     22.79
 85.97    553.00     23.52
 86.07    543.65     23.32
 86.17    538.00     23.19
 86.27    511.00     22.61
 86.37    534.00     23.11
 86.47    522.00     22.85
 86.57    541.00     23.26
 86.67    497.00     22.29
 86.77    596.45     24.42
 86.87    624.75     25.00
 86.97    597.98     24.45
 87.07    658.22     25.66
 87.17    584.56     24.18
 87.27    616.52     24.83
 87.37    655.00     25.59
 87.47    593.44     24.36
 87.57    629.00     25.08
 87.67    640.00     25.30
 87.77    581.04     24.10
 87.87    632.00     25.14
 87.97    613.39     24.77
 88.07    584.87     24.18
 88.17    632.00     25.14
 88.27    547.97     23.41
 88.37    579.00     24.06
 88.47    582.00     24.12
 88.57    582.80     24.14
 88.67    632.00     25.14
 88.77    601.00     24.52
 88.87    604.83     24.59
 88.97    623.72     24.97
 89.07    625.16     25.00
 89.17    606.00     24.62
 89.27    568.00     23.83
 89.37    560.15     23.67
 89.47    616.00     24.82
 89.57    613.00     24.76
 89.67    612.00     24.74
 89.77    593.00     24.35
 89.87    574.00     23.96
 89.97    576.00     24.00
 90.07    542.90     23.30
 90.17    502.00     22.41
 90.27    507.96     22.54
 90.37    513.00     22.65
 90.47    518.00     22.76
 90.57    512.00     22.63
 90.67    515.00     22.69
 90.77    531.75     23.06
 90.87    548.00     23.41
 90.97    540.44     23.25
 91.07    528.00     22.98
 91.17    497.00     22.29
 91.27    522.00     22.85
 91.37    522.00     22.85
 91.47    545.18     23.35
 91.57    534.00     23.11
 91.67    523.00     22.87
 91.77    533.00     23.09
 91.87    488.00     22.09
 91.97    578.96     24.06
 92.07    593.39     24.36
 92.17    572.65     23.93
 92.27    589.00     24.27
 92.37    576.81     24.02
 92.47    620.00     24.90
 92.57    646.52     25.43
 92.67    665.70     25.80
 92.77    669.00     25.87
 92.87    732.00     27.06
 92.97    728.00     26.98
 93.07    747.40     27.34
 93.17    784.00     28.00
 93.27    805.00     28.37
 93.37    810.00     28.46
 93.47    823.57     28.70
 93.57    784.00     28.00
 93.67    807.03     28.41
 93.77    783.00     27.98
 93.87    817.00     28.58
 93.97    777.53     27.88
 94.07    885.28     29.75
 94.17    876.00     29.60
 94.27    910.00     30.17
 94.37    844.00     29.05
 94.47    914.92     30.25
 94.57    935.86     30.59
 94.67    891.00     29.85
 94.77    888.00     29.80
 94.87    943.00     30.71
 94.97    902.05     30.03
 95.07    937.00     30.61
 95.17    890.00     29.83
 95.27    831.00     28.83
 95.37    780.40     27.94
 95.47    766.00     27.68
 95.57    786.71     28.05
 95.67    763.00     27.62
 95.77    727.00     26.96
 95.87    686.00     26.19
 95.97    658.00     25.65
 96.07    659.75     25.69
 96.17    682.00     26.12
 96.27    743.00     27.26
 96.37    774.00     27.82
 96.47    787.00     28.05
 96.57    886.00     29.77
 96.67    904.44     30.07
 96.77   1018.64     31.92
 96.87   1020.94     31.95
 96.97   1166.00     34.15
 97.07   1169.00     34.19
 97.17   1315.00     36.26
 97.27   1359.05     36.87
 97.37   1386.00     37.23
 97.47   1385.11     37.22
 97.57   1501.00     38.74
 97.67   1435.00     37.88
 97.77   1384.00     37.20
 97.87   1315.00     36.26
 97.97   1235.00     35.14
 98.07   1268.81     35.62
 98.17   1172.00     34.23
 98.27   1075.90     32.80
 98.37   1071.00     32.73
 98.47    993.25     31.52
 98.57    855.01     29.24
 98.67    849.00     29.14
 98.77    783.00     27.98
 98.87    800.00     28.28
 98.97    783.00     27.98
 99.07    814.00     28.53
 99.17    860.00     29.33
 99.27    882.00     29.70
 99.37    903.60     30.06
 99.47    992.00     31.50
 99.57   1043.39     32.30
 99.67   1193.00     34.54
 99.77   1309.62     36.19
 99.87   1396.00     37.36
 99.97   1564.00     39.55
100.07   1682.00     41.01
100.17   1727.00     41.56
100.27   1802.00     42.45
100.37   1880.48     43.36
100.47   1929.99     43.93
100.57   2070.00     45.50
100.67   2072.00     45.52
100.77   2057.00     45.35
100.87   1953.49     44.20
100.97   2047.00     45.24
101.07   1987.66     44.58
101.17   1913.00     43.74
101.27   1796.89     42.39
101.37   1713.00     41.39
101.47   1585.00     39.81
101.57   1529.00     39.10
101.67   1415.00     37.62
101.77   1350.00     36.74
101.87   1258.00     35.47
101.97   1228.00     35.04
102.07   1238.27     35.19
102.17   1155.06     33.99
102.27   1133.00     33.66
102.37   1077.00     32.82
102.47   1074.00     32.77
102.57   1037.00     32.20
102.67   1103.01     33.21
102.77   1012.56     31.82
102.87   1058.00     32.53
102.97   1002.48     31.66
103.07    987.95     31.43
103.17    882.05     29.70
103.27    796.61     28.22
103.37    789.00     28.09
103.47    766.00     27.68
103.57    778.00     27.89
103.67    737.56     27.16
103.77    657.00     25.63
103.87    652.00     25.53
103.97    701.00     26.48
104.07    630.37     25.11
104.17    563.00     23.73
104.27    574.49     23.97
104.37    577.37     24.03
104.47    580.77     24.10
104.57    551.00     23.47
104.67    532.54     23.08
104.77    589.00     24.27
104.87    528.00     22.98
104.97    527.00     22.96
105.07    531.00     23.04
105.17    557.00     23.60
105.27    556.77     23.60
105.37    511.00     22.61
105.47    519.07     22.78
105.57    544.00     23.32
105.67    549.04     23.43
105.77    557.00     23.60
105.87    574.00     23.96
105.97    548.37     23.42
106.07    584.91     24.18
106.17    639.00     25.28
106.27    586.00     24.21
106.37    628.00     25.06
106.47    592.43     24.34
106.57    581.27     24.11
106.67    616.89     24.84
106.77    627.59     25.05
106.87    692.89     26.32
106.97    600.00     24.49
107.07    687.00     26.21
107.17    666.00     25.81
107.27    673.73     25.96
107.37    692.00     26.31
107.47    673.00     25.94
107.57    621.00     24.92
107.67    672.85     25.94
107.77    693.00     26.32
107.87    716.10     26.76
107.97    715.00     26.74
108.07    698.62     26.43
108.17    699.31     26.44
108.27    668.00     25.85
108.37    706.00     26.57
108.47    669.00     25.87
108.57    663.00     25.75
108.67    686.66     26.20
108.77    686.00     26.19
108.87    654.00     25.57
108.97    682.00     26.12
109.07    708.00     26.61
109.17    734.00     27.09
109.27    712.00     26.68
109.37    642.00     25.34
109.47    624.00     24.98
109.57    634.00     25.18
109.67    622.62     24.95
109.77    589.00     24.27
109.87    564.45     23.76
109.97    622.00     24.94
110.07    599.00     24.47
110.17    558.00     23.62
110.27    583.85     24.16
110.37    553.10     23.52
110.47    550.00     23.45
110.57    582.00     24.12
110.67    537.00     23.17
110.77    559.41     23.65
110.87    545.00     23.35
110.97    551.52     23.48
111.07    573.00     23.94
111.17    498.66     22.33
111.27    564.23     23.75
111.37    604.00     24.58
111.47    517.00     22.74
111.57    544.00     23.32
111.67    598.32     24.46
111.77    565.00     23.77
111.87    553.00     23.52
111.97    599.00     24.47
112.07    590.00     24.29
112.17    520.00     22.80
112.27    582.08     24.13
112.37    600.42     24.50
112.47    586.81     24.22
112.57    611.00     24.72
112.67    673.00     25.94
112.77    585.00     24.19
112.87    688.64     26.24
112.97    657.93     25.65
113.07    698.60     26.43
113.17    642.00     25.34
113.27    722.00     26.87
113.37    708.00     26.61
113.47    728.00     26.98
113.57    766.00     27.68
113.67    755.00     27.48
113.77    832.00     28.84
113.87    847.00     29.10
113.97    896.58     29.94
114.07    959.00     30.97
114.17   1039.89     32.25
114.27   1086.00     32.95
114.37   1142.00     33.79
114.47   1194.79     34.57
114.57   1423.00     37.72
114.67   1423.37     37.73
114.77   1570.69     39.63
114.87   1737.15     41.68
114.97   2103.00     45.86
115.07   2295.00     47.91
115.17   2604.00     51.03
115.27   2709.18     52.05
115.37   3150.00     56.12
115.47   3338.18     57.78
115.57   3702.91     60.85
115.67   4104.00     64.06
115.77   4445.00     66.67
115.87   5029.55     70.92
115.97   5223.00     72.27
116.07   5577.36     74.68
116.17   5959.00     77.19
116.27   6284.00     79.27
116.37   6574.00     81.08
116.47   6680.10     81.73
116.57   6707.89     81.90
116.67   6892.43     83.02
116.77   6841.00     82.71
116.87   6883.00     82.96
116.97   6493.00     80.58
117.07   6369.12     79.81
117.17   6135.53     78.33
117.27   5781.32     76.03
117.37   5187.00     72.02
117.47   5024.02     70.88
117.57   4604.96     67.86
117.67   4272.18     65.36
117.77   3879.00     62.28
117.87   3623.00     60.19
117.97   3151.00     56.13
118.07   2960.00     54.41
118.17   2577.14     50.77
118.27   2273.26     47.68
118.37   2068.55     45.48
118.47   1840.00     42.90
118.57   1567.00     39.59
118.67   1363.00     36.92
118.77   1239.00     35.20
118.87   1084.00     32.92
118.97   1029.00     32.08
119.07   1003.00     31.67
119.17    877.15     29.62
119.27    851.52     29.18
119.37    744.16     27.28
119.47    739.00     27.18
119.57    679.00     26.06
119.67    671.00     25.90
119.77    640.00     25.30
119.87    677.56     26.03
119.97    626.00     25.02
120.07    638.00     25.26
120.17    601.00     24.52
120.27    572.00     23.92
120.37    618.00     24.86
120.47    560.22     23.67
120.57    590.42     24.30
120.67    611.00     24.72
120.77    617.00     24.84
120.87    596.00     24.41
120.97    598.00     24.45
121.07    581.00     24.10
121.17    555.93     23.58
121.27    620.28     24.91
121.37    557.00     23.60
121.47    596.00     24.41
121.57    599.00     24.47
121.67    586.00     24.21
121.77    625.00     25.00
121.87    615.00     24.80
121.97    574.71     23.97
122.07    614.00     24.78
122.17    621.00     24.92
122.27    643.44     25.37
122.37    671.00     25.90
122.47    651.00     25.51
122.57    634.00     25.18
122.67    676.59     26.01
122.77    652.34     25.54
122.87    601.12     24.52
122.97    688.73     26.24
123.07    622.20     24.94
123.17    672.00     25.92
123.27    637.00     25.24
123.37    589.00     24.27
123.47    687.45     26.22
123.57    652.02     25.53
123.67    633.90     25.18
123.77    608.16     24.66
123.87    631.00     25.12
123.97    602.80     24.55
124.07    583.96     24.17
124.17    649.00     25.48
124.27    616.13     24.82
124.37    629.00     25.08
124.47    602.00     24.54
124.57    592.00     24.33
124.67    630.25     25.10
124.77    583.28     24.15
124.87    595.65     24.41
124.97    561.00     23.69
