XYDATA



INTER 1.0 1.0 0 0
TEMP 859.925
  9.97    616.00     24.82
 10.07    571.00     23.90
 10.17    558.94     23.64
 10.27    604.00     24.58
 10.37    585.00     24.19
 10.47    593.00     24.35
 10.57    609.00     24.68
 10.67    573.00     23.94
 10.77    582.00     24.12
 10.87    517.25     22.74
 10.97    594.15     24.38
 11.07    596.00     24.41
 11.17    614.00     24.78
 11.27    577.00     24.02
 11.37    647.00     25.44
 11.47    568.00     23.83
 11.57    552.00     23.49
 11.67    576.00     24.00
 11.77    531.30     23.05
 11.87    636.00     25.22
 11.97    655.07     25.59
 12.07    605.76     24.61
 12.17    674.00     25.96
 12.27    650.00     25.50
 12.37    625.00     25.00
 12.47    620.00     24.90
 12.57    566.00     23.79
 12.67    631.49     25.13
 12.77    631.00     25.12
 12.87    523.00     22.87
 12.97    555.00     23.56
 13.07    561.01     23.69
 13.17    576.00     24.00
 13.27    560.00     23.66
 13.37    518.00     22.76
 13.47    549.21     23.44
 13.57    589.00     24.27
 13.67    566.00     23.79
 13.77    557.00     23.60
 13.87    569.18     23.86
 13.97    568.00     23.83
 14.07    571.00     23.90
 14.17    541.00     23.26
 14.27    556.00     23.58
 14.37    538.67     23.21
 14.47    597.91     24.45
 14.57    552.37     23.50
 14.67    577.84     24.04
 14.77    532.00     23.07
 14.87    518.00     22.76
 14.97    553.34     23.52
 15.07    571.55     23.91
 15.17    544.77     23.34
 15.27    523.32     22.88
 15.37    541.00     23.26
 15.47    515.06     22.69
 15.57    559.00     23.64
 15.67    521.00     22.83
 15.77    503.00     22.43
 15.87    529.41     23.01
 15.97    529.00     23.00
 16.07    579.00     24.06
 16.17    539.00     23.22
 16.27    529.00     23.00
 16.37    562.54     23.72
 16.47    561.00     23.69
 16.57    529.00     23.00
 16.67    600.00     24.49
 16.77    597.66     24.45
 16.87    576.00     24.00
 16.97    545.00     23.35
 17.07    554.67     23.55
 17.17    574.62     23.97
 17.27    592.05     24.33
 17.37    541.00     23.26
 17.47    517.00     22.74
 17.57    572.00     23.92
 17.67    603.36     24.56
 17.77    544.00     23.32
 17.87    543.42     23.31
 17.97    565.70     23.78
 18.07    575.17     23.98
 18.17    573.00     23.94
 18.27    600.30     24.50
 18.37    610.31     24.70
 18.47    582.97     24.14
 18.57    594.87     24.39
 18.67    542.00     23.28
 18.77    580.00     24.08
 18.87    566.00     23.79
 18.97    532.00     23.07
 19.07    577.00     24.02
 19.17    559.91     23.66
 19.27    540.00     23.24
 19.37    539.00     23.22
 19.47    609.66     24.69
 19.57    565.00     23.77
 19.67    518.19     22.76
 19.77    522.10     22.85
 19.87    577.00     24.02
 19.97    556.01     23.58
 20.07    606.52     24.63
 20.17    593.51     24.36
 20.27    567.00     23.81
 20.37    561.00     23.69
 20.47    524.17     22.89
 20.57    524.00     22.89
 20.67    552.76     23.51
 20.77    558.00     23.62
 20.87    584.11     24.17
 20.97    547.00     23.39
 21.07    564.00     23.75
 21.17    536.08     23.15
 21.27    516.00     22.72
 21.37    552.00     23.49
 21.47    539.00     23.22
 21.57    594.68     24.39
 21.67    575.00     23.98
 21.77    529.00     23.00
 21.87    555.00     23.56
 21.97    571.00     23.90
 22.07    525.05     22.91
 22.17    538.00     23.19
 22.27    568.00     23.83
 22.37    569.71     23.87
 22.47    557.23     23.61
 22.57    546.77     23.38
 22.67    536.00     23.15
 22.77    531.00     23.04
 22.87    551.03     23.47
 22.97    551.00     23.47
 23.07    556.00     23.58
 23.17    540.00     23.24
 23.27    555.59     23.57
 23.37    561.00     23.69
 23.47    528.00     22.98
 23.57    598.00     24.45
 23.67    568.00     23.83
 23.77    526.00     22.93
 23.87    567.00     23.81
 23.97    555.00     23.56
 24.07    558.40     23.63
 24.17    537.74     23.19
 24.27    557.00     23.60
 24.37    572.00     23.92
 24.47    600.00     24.49
 24.57    541.97     23.28
 24.67    618.61     24.87
 24.77    621.00     24.92
 24.87    608.02     24.66
 24.97    635.00     25.20
 25.07    567.45     23.82
 25.17    588.02     24.25
 25.27    575.00     23.98
 25.37    594.00     24.37
 25.47    518.99     22.78
 25.57    559.09     23.65
 25.67    554.54     23.55
 25.77    586.28     24.21
 25.87    570.00     23.87
 25.97    540.00     23.24
 26.07    556.77     23.60
 26.17    565.00     23.77
 26.27    540.35     23.25
 26.37    568.00     23.83
 26.47    624.00     24.98
 26.57    515.75     22.71
 26.67    604.00     24.58
 26.77    564.00     23.75
 26.87    496.00     22.27
 26.97    602.00     24.54
 27.07    640.00     25.30
 27.17    544.00     23.32
 27.27    579.00     24.06
 27.37    599.00     24.47
 27.47    623.00     24.96
 27.57    568.00     23.83
 27.67    575.00     23.98
 27.77    563.00     23.73
 27.87    604.00     24.58
 27.97    653.83     25.57
 28.07    700.45     26.47
 28.17    854.00     29.22
 28.27    882.48     29.71
 28.37    940.00     30.66
 28.47    896.00     29.93
 28.57    799.00     28.27
 28.67    708.00     26.61
 28.77    765.00     27.66
 28.87    778.00     27.89
 28.97    862.01     29.36
 29.07    850.73     29.17
 29.17    787.00     28.05
 29.27    740.93     27.22
 29.37    649.12     25.48
 29.47    636.00     25.22
 29.57    596.00     24.41
 29.67    589.33     24.28
 29.77    557.35     23.61
 29.87    652.00     25.53
 29.97    504.99     22.47
 30.07    521.56     22.84
 30.17    564.00     23.75
 30.27    581.00     24.10
 30.37    555.00     23.56
 30.47    535.23     23.14
 30.57    542.00     23.28
 30.67    609.00     24.68
 30.77    575.38     23.99
 30.87    603.00     24.56
 30.97    670.00     25.88
 31.07    587.00     24.23
 31.17    605.00     24.60
 31.27    591.00     24.31
 31.37    570.56     23.89
 31.47    560.00     23.66
 31.57    571.00     23.90
 31.67    536.00     23.15
 31.77    565.00     23.77
 31.87    537.00     23.17
 31.97    528.00     22.98
 32.07    588.00     24.25
 32.17    551.00     23.47
 32.27    567.00     23.81
 32.37    541.00     23.26
 32.47    561.35     23.69
 32.57    499.00     22.34
 32.67    552.00     23.49
 32.77    542.00     23.28
 32.87    546.00     23.37
 32.97    528.00     22.98
 33.07    540.00     23.24
 33.17    584.00     24.17
 33.27    589.00     24.27
 33.37    530.16     23.03
 33.47    587.90     24.25
 33.57    532.14     23.07
 33.67    647.98     25.46
 33.77    671.45     25.91
 33.87    728.00     26.98
 33.97    901.00     30.02
 34.07    934.00     30.56
 34.17    964.00     31.05
 34.27    974.00     31.21
 34.37    827.00     28.76
 34.47    808.49     28.43
 34.57    648.00     25.46
 34.67    609.39     24.69
 34.77    560.91     23.68
 34.87    522.00     22.85
 34.97    545.00     23.35
 35.07    573.41     23.95
 35.17    507.00     22.52
 35.27    519.00     22.78
 35.37    529.61     23.01
 35.47    531.23     23.05
 35.57    532.00     23.07
 35.67    516.00     22.72
 35.77    506.00     22.49
 35.87    513.00     22.65
 35.97    517.00     22.74
 36.07    536.35     23.16
 36.17    502.38     22.41
 36.27    478.00     21.86
 36.37    494.00     22.23
 36.47    489.00     22.11
 36.57    476.00     21.82
 36.67    479.00     21.89
 36.77    467.00     21.61
 36.87    551.85     23.49
 36.97    521.00     22.83
 37.07    472.00     21.73
 37.17    500.00     22.36
 37.27    497.70     22.31
 37.37    470.20     21.68
 37.47    545.00     23.35
 37.57    537.32     23.18
 37.67    509.64     22.58
 37.77    554.13     23.54
 37.87    537.00     23.17
 37.97    532.59     23.08
 38.07    514.00     22.67
 38.17    518.59     22.77
 38.27    492.00     22.18
 38.37    525.00     22.91
 38.47    528.66     22.99
 38.57    500.00     22.36
 38.67    547.97     23.41
 38.77    476.31     21.82
 38.87    546.00     23.37
 38.97    463.00     21.52
 39.07    485.75     22.04
 39.17    472.00     21.73
 39.27    485.00     22.02
 39.37    516.00     22.72
 39.47    472.00     21.73
 39.57    496.47     22.28
 39.67    510.12     22.59
 39.77    492.00     22.18
 39.87    494.00     22.23
 39.97    467.26     21.62
 40.07    480.00     21.91
 40.17    486.00     22.05
 40.27    543.59     23.31
 40.37    540.28     23.24
 40.47    518.00     22.76
 40.57    549.00     23.43
 40.67    522.27     22.85
 40.77    496.00     22.27
 40.87    470.00     21.68
 40.97    469.00     21.66
 41.07    470.00     21.68
 41.17    500.41     22.37
 41.27    497.00     22.29
 41.37    515.00     22.69
 41.47    489.90     22.13
 41.57    470.35     21.69
 41.67    506.20     22.50
 41.77    501.00     22.38
 41.87    516.00     22.72
 41.97    505.31     22.48
 42.07    475.02     21.80
 42.17    499.00     22.34
 42.27    490.00     22.14
 42.37    488.00     22.09
 42.47    549.00     23.43
 42.57    585.27     24.19
 42.67    570.00     23.87
 42.77    616.97     24.84
 42.87    576.00     24.00
 42.97    596.00     24.41
 43.07    579.47     24.07
 43.17    502.00     22.41
 43.27    517.48     22.75
 43.37    563.96     23.75
 43.47    510.00     22.58
 43.57    480.00     21.91
 43.67    483.00     21.98
 43.77    504.00     22.45
 43.87    537.56     23.19
 43.97    504.00     22.45
 44.07    461.00     21.47
 44.17    469.00     21.66
 44.27    520.00     22.80
 44.37    488.69     22.11
 44.47    451.24     21.24
 44.57    482.00     21.95
 44.67    524.00     22.89
 44.77    490.00     22.14
 44.87    500.00     22.36
 44.97    486.00     22.05
 45.07    505.00     22.47
 45.17    485.00     22.02
 45.27    502.00     22.41
 45.37    535.00     23.13
 45.47    480.66     21.92
 45.57    486.00     22.05
 45.67    496.02     22.27
 45.77    453.00     21.28
 45.87    481.32     21.94
 45.97    495.00     22.25
 46.07    513.00     22.65
 46.17    471.00     21.70
 46.27    524.00     22.89
 46.37    505.00     22.47
 46.47    519.00     22.78
 46.57    474.00     21.77
 46.67    461.05     21.47
 46.77    475.15     21.80
 46.87    509.00     22.56
 46.97    490.00     22.14
 47.07    464.00     21.54
 47.17    524.30     22.90
 47.27    499.00     22.34
 47.37    510.39     22.59
 47.47    548.00     23.41
 47.57    523.00     22.87
 47.67    554.00     23.54
 47.77    569.77     23.87
 47.87    589.00     24.27
 47.97    585.29     24.19
 48.07    568.00     23.83
 48.17    560.00     23.66
 48.27    581.00     24.10
 48.37    537.00     23.17
 48.47    554.00     23.54
 48.57    527.31     22.96
 48.67    572.72     23.93
 48.77    552.00     23.49
 48.87    491.96     22.18
 48.97    548.00     23.41
 49.07    570.00     23.87
 49.17    588.00     24.25
 49.27    595.99     24.41
 49.37    606.27     24.62
 49.47    541.47     23.27
 49.57    626.00     25.02
 49.67    717.00     26.78
 49.77    822.74     28.68
 49.87   1033.00     32.14
 49.97   1312.00     36.22
 50.07   1680.00     40.99
 50.17   2065.97     45.45
 50.27   2363.09     48.61
 50.37   2382.00     48.81
 50.47   2205.00     46.96
 50.57   1898.00     43.57
 50.67   1456.00     38.16
 50.77   1152.91     33.95
 50.87    985.33     31.39
 50.97    743.17     27.26
 51.07    659.00     25.67
 51.17    669.00     25.87
 51.27    620.00     24.90
 51.37    578.38     24.05
 51.47    599.00     24.47
 51.57    574.86     23.98
 51.67    585.00     24.19
 51.77    505.54     22.48
 51.87    531.00     23.04
 51.97    561.00     23.69
 52.07    570.00     23.87
 52.17    506.47     22.50
 52.27    548.00     23.41
 52.37    534.00     23.11
 52.47    593.00     24.35
 52.57    612.00     24.74
 52.67    587.00     24.23
 52.77    527.88     22.98
 52.87    555.62     23.57
 52.97    646.00     25.42
 53.07    640.10     25.30
 53.17    758.64     27.54
 53.27    890.28     29.84
 53.37    923.00     30.38
 53.47    987.83     31.43
 53.57   1173.00     34.25
 53.67   1148.00     33.88
 53.77   1177.56     34.32
 53.87   1083.46     32.92
 53.97    993.00     31.51
 54.07    830.00     28.81
 54.17    774.00     27.82
 54.27    694.00     26.34
 54.37    665.55     25.80
 54.47    631.00     25.12
 54.57    566.41     23.80
 54.67    566.00     23.79
 54.77    525.58     22.93
 54.87    561.00     23.69
 54.97    592.00     24.33
 55.07    579.00     24.06
 55.17    544.67     23.34
 55.27    538.00     23.19
 55.37    544.18     23.33
 55.47    562.00     23.71
 55.57    526.62     22.95
 55.67    630.00     25.10
 55.77    579.00     24.06
 55.87    604.00     24.58
 55.97    616.00     24.82
 56.07    659.00     25.67
 56.17    700.00     26.46
 56.27    748.00     27.35
 56.37    896.00     29.93
 56.47   1112.22     33.35
 56.57   1307.84     36.16
 56.67   1571.00     39.64
 56.77   1948.00     44.14
 56.87   2260.00     47.54
 56.97   2483.00     49.83
 57.07   2469.00     49.69
 57.17   2352.00     48.50
 57.27   2158.03     46.45
 57.37   1792.12     42.33
 57.47   1530.00     39.12
 57.57   1286.88     35.87
 57.67   1037.58     32.21
 57.77    834.00     28.88
 57.87    741.28     27.23
 57.97    723.00     26.89
 58.07    710.00     26.65
 58.17    685.63     26.18
 58.27    675.79     26.00
 58.37    755.00     27.48
 58.47    839.79     28.98
 58.57    820.86     28.65
 58.67    965.99     31.08
 58.77   1063.35     32.61
 58.87   1094.00     33.08
 58.97   1115.00     33.39
 59.07   1228.00     35.04
 59.17   1268.00     35.61
 59.27   1204.71     34.71
 59.37   1232.00     35.10
 59.47   1243.86     35.27
 59.57   1132.61     33.65
 59.67   1136.00     33.70
 59.77   1108.79     33.30
 59.87   1179.21     34.34
 59.97   1231.00     35.09
 60.07   1301.72     36.08
 60.17   1321.00     36.35
 60.27   1541.00     39.26
 60.37   1540.00     39.24
 60.47   1451.77     38.10
 60.57   1493.00     38.64
 60.67   1365.00     36.95
 60.77   1189.00     34.48
 60.87    969.88     31.14
 60.97    889.12     29.82
 61.07    824.00     28.71
 61.17    722.00     26.87
 61.27    667.00     25.83
 61.37    696.00     26.38
 61.47    690.00     26.27
 61.57    723.00     26.89
 61.67    724.00     26.91
 61.77    792.00     28.14
 61.87    848.00     29.12
 61.97   1079.96     32.86
 62.07   1163.59     34.11
 62.17   1317.00     36.29
 62.27   1410.92     37.56
 62.37   1382.37     37.18
 62.47   1300.00     36.06
 62.57   1183.00     34.39
 62.67   1088.85     33.00
 62.77    983.00     31.35
 62.87    929.98     30.50
 62.97    795.82     28.21
 63.07    691.00     26.29
 63.17    626.00     25.02
 63.27    573.82     23.95
 63.37    588.00     24.25
 63.47    575.00     23.98
 63.57    626.00     25.02
 63.67    617.58     24.85
 63.77    580.00     24.08
 63.87    547.49     23.40
 63.97    618.00     24.86
 64.07    680.00     26.08
 64.17    662.29     25.74
 64.27    721.00     26.85
 64.37    789.68     28.10
 64.47    894.92     29.92
 64.57    863.11     29.38
 64.67    937.00     30.61
 64.77   1010.00     31.78
 64.87    982.00     31.34
 64.97    951.49     30.85
 65.07    998.00     31.59
 65.17    910.73     30.18
 65.27    828.34     28.78
 65.37    759.00     27.55
 65.47    733.02     27.07
 65.57    646.00     25.42
 65.67    666.77     25.82
 65.77    617.00     24.84
 65.87    618.00     24.86
 65.97    604.89     24.59
 66.07    566.00     23.79
 66.17    581.00     24.10
 66.27    589.00     24.27
 66.37    553.00     23.52
 66.47    543.00     23.30
 66.57    556.56     23.59
 66.67    577.00     24.02
 66.77    548.54     23.42
 66.87    614.89     24.80
 66.97    610.05     24.70
 67.07    627.48     25.05
 67.17    685.22     26.18
 67.27    681.00     26.10
 67.37    789.00     28.09
 67.47    796.00     28.21
 67.57   1021.63     31.96
 67.67   1117.13     33.42
 67.77   1322.75     36.37
 67.87   1566.00     39.57
 67.97   1900.85     43.60
 68.07   2144.89     46.31
 68.17   2217.00     47.09
 68.27   2376.00     48.74
 68.37   2271.14     47.66
 68.47   2156.71     46.44
 68.57   2043.00     45.20
 68.67   1889.00     43.46
 68.77   1583.00     39.79
 68.87   1339.00     36.59
 68.97   1092.00     33.05
 69.07   1014.00     31.84
 69.17    808.00     28.43
 69.27    766.00     27.68
 69.37    638.82     25.27
 69.47    663.00     25.75
 69.57    618.00     24.86
 69.67    564.85     23.77
 69.77    555.00     23.56
 69.87    559.00     23.64
 69.97    577.00     24.02
 70.07    623.00     24.96
 70.17    567.00     23.81
 70.27    574.00     23.96
 70.37    607.72     24.65
 70.47    601.07     24.52
 70.57    554.00     23.54
 70.67    620.98     24.92
 70.77    570.01     23.87
 70.87    589.00     24.27
 70.97    634.00     25.18
 71.07    650.00     25.50
 71.17    645.00     25.40
 71.27    705.00     26.55
 71.37    772.00     27.78
 71.47    852.00     29.19
 71.57    958.83     30.96
 71.67   1123.00     33.51
 71.77   1259.75     35.49
 71.87   1436.00     37.89
 71.97   1557.00     39.46
 72.07   1732.66     41.63
 72.17   1763.00     41.99
 72.27   1863.92     43.17
 72.37   1864.93     43.18
 72.47   1677.00     40.95
 72.57   1575.00     39.69
 72.67   1492.00     38.63
 72.77   1247.00     35.31
 72.87   1125.00     33.54
 72.97    996.46     31.57
 73.07    907.32     30.12
 73.17    821.00     28.65
 73.27    768.00     27.71
 73.37    651.44     25.52
 73.47    656.00     25.61
 73.57    597.34     24.44
 73.67    669.00     25.87
 73.77    617.00     24.84
 73.87    566.87     23.81
 73.97    581.00     24.10
 74.07    560.07     23.67
 74.17    547.14     23.39
 74.27    598.86     24.47
 74.37    604.99     24.60
 74.47    582.24     24.13
 74.57    566.00     23.79
 74.67    596.00     24.41
 74.77    606.33     24.62
 74.87    572.26     23.92
 74.97    622.00     24.94
 75.07    611.00     24.72
 75.17    596.00     24.41
 75.27    559.46     23.65
 75.37    635.00     25.20
 75.47    509.87     22.58
 75.57    613.00     24.76
 75.67    561.00     23.69
 75.77    558.71     23.64
 75.87    581.02     24.10
 75.97    590.29     24.30
 76.07    580.00     24.08
 76.17    530.00     23.02
 76.27    598.48     24.46
 76.37    636.20     25.22
 76.47    618.46     24.87
 76.57    664.00     25.77
 76.67    652.82     25.55
 76.77    672.00     25.92
 76.87    668.64     25.86
 76.97    664.00     25.77
 77.07    680.00     26.08
 77.17    603.00     24.56
 77.27    659.15     25.67
 77.37    578.00     24.04
 77.47    574.00     23.96
 77.57    569.30     23.86
 77.67    564.00     23.75
 77.77    541.00     23.26
 77.87    515.00     22.69
 77.97    504.00     22.45
 78.07    512.00     22.63
 78.17    481.00     21.93
 78.27    501.00     22.38
 78.37    531.00     23.04
 78.47    547.00     23.39
 78.57    457.00     21.38
 78.67    538.00     23.19
 78.77    483.66     21.99
 78.87    508.00     22.54
 78.97    542.20     23.29
 79.07    534.59     23.12
 79.17    482.00     21.95
 79.27    465.00     21.56
 79.37    462.30     21.50
 79.47    481.74     21.95
 79.57    501.00     22.38
 79.67    493.00     22.20
 79.77    514.12     22.67
 79.87    513.00     22.65
 79.97    494.38     22.23
 80.07    490.00     22.14
 80.17    538.00     23.19
 80.27    488.00     22.09
 80.37    527.00     22.96
 80.47    514.00     22.67
 80.57    510.00     22.58
 80.67    576.00     24.00
 80.77    553.00     23.52
 80.87    637.82     25.26
 80.97    600.00     24.49
 81.07    676.77     26.01
 81.17    701.00     26.48
 81.27    662.00     25.73
 81.37    751.03     27.40
 81.47    757.07     27.51
 81.57    711.00     26.66
 81.67    676.00     26.00
 81.77    723.00     26.89
 81.87    750.00     27.39
 81.97    670.74     25.90
 82.07    700.00     26.46
 82.17    704.00     26.53
 82.27    703.69     26.53
 82.37    695.00     26.36
 82.47    599.00     24.47
 82.57    609.00     24.68
 82.67    549.88     23.45
 82.77    560.00     23.66
 82.87    586.00     24.21
 82.97    546.79     23.38
 83.07    555.05     23.56
 83.17    542.00     23.28
 83.27    515.00     22.69
 83.37    546.23     23.37
 83.47    531.79     23.06
 83.57    519.00     22.78
 83.67    516.00     22.72
 83.77    536.85     23.17
 83.87    540.12     23.24
 83.97    545.00     23.35
 84.07    550.00     23.45
 84.17    551.05     23.47
 84.27    507.00     22.52
 84.37    541.00     23.26
 84.47    588.09     24.25
 84.57    532.68     23.08
 84.67    538.00     23.19
 84.77    545.00     23.35
 84.87    501.00     22.38
 84.97    553.00     23.52
 85.07    519.00     22.78
 85.17    477.00     21.84
 85.27    480.00     21.91
 85.37    498.00     22.32
 85.47    494.45     22.24
 85.57    495.00     22.25
 85.67    524.00     22.89
 85.77    491.00     22.16
 85.87    533.00     23.09
 85.97    543.00     23.30
 86.07    562.00     23.71
 86.17    541.00     23.26
 86.27    543.00     23.30
 86.37    521.00     22.83
 86.47    509.65     22.58
 86.57    523.00     22.87
 86.67    507.84     22.54
 86.77    549.59     23.44
 86.87    498.62     22.33
 86.97    519.38     22.79
 87.07    543.45     23.31
 87.17    590.23     24.29
 87.27    591.00     24.31
 87.37    607.00     24.64
 87.47    600.00     24.49
 87.57    576.00     24.00
 87.67    626.00     25.02
 87.77    633.00     25.16
 87.87    660.00     25.69
 87.97    637.00     25.24
 88.07    575.90     24.00
 88.17    591.69     24.32
 88.27    590.00     24.29
 88.37    534.00     23.11
 88.47    567.00     23.81
 88.57    564.90     23.77
 88.67    571.00     23.90
 88.77    561.00     23.69
 88.87    538.00     23.19
 88.97    552.00     23.49
 89.07    568.00     23.83
 89.17    585.00     24.19
 89.27    575.00     23.98
 89.37    577.00     24.02
 89.47    592.00     24.33
 89.57    571.99     23.92
 89.67    611.00     24.72
 89.77    520.00     22.80
 89.87    562.00     23.71
 89.97    518.25     22.76
 90.07    531.00     23.04
 90.17    556.05     23.58
 90.27    511.50     22.62
 90.37    571.51     23.91
 90.47    575.38     23.99
 90.57    479.00     21.89
 90.67    509.00     22.56
 90.77    558.25     23.63
 90.87    490.00     22.14
 90.97    493.00     22.20
 91.07    519.28     22.79
 91.17    524.00     22.89
 91.27    505.00     22.47
 91.37    483.00     21.98
 91.47    522.00     22.85
 91.57    542.10     23.28
 91.67    518.78     22.78
 91.77    487.00     22.07
 91.87    478.00     21.86
 91.97    561.59     23.70
 92.07    530.00     23.02
 92.17    526.79     22.95
 92.27    563.00     23.73
 92.37    522.62     22.86
 92.47    566.84     23.81
 92.57    563.79     23.74
 92.67    605.00     24.60
 92.77    577.00     24.02
 92.87    581.00     24.10
 92.97    657.00     25.63
 93.07    695.00     26.36
 93.17    648.00     25.46
 93.27    740.65     27.21
 93.37    663.32     25.75
 93.47    711.00     26.66
 93.57    782.00     27.96
 93.67    715.00     26.74
 93.77    704.00     26.53
 93.87    785.00     28.02
 93.97    751.00     27.40
 94.07    833.00     28.86
 94.17    852.00     29.19
 94.27    910.00     30.17
 94.37    846.00     29.09
 94.47    799.25     28.27
 94.57    857.00     29.27
 94.67    902.56     30.04
 94.77    928.00     30.46
 94.87    838.26     28.95
 94.97    933.86     30.56
 95.07    851.09     29.17
 95.17    865.00     29.41
 95.27    901.00     30.02
 95.37    800.27     28.29
 95.47    835.00     28.90
 95.57    818.00     28.60
 95.67    801.03     28.30
 95.77    791.99     28.14
 95.87    753.00     27.44
 95.97    751.00     27.40
 96.07    710.00     26.65
 96.17    691.00     26.29
 96.27    723.00     26.89
 96.37    688.00     26.23
 96.47    724.00     26.91
 96.57    725.00     26.93
 96.67    807.00     28.41
 96.77    841.00     29.00
 96.87    891.04     29.85
 96.97    917.00     30.28
 97.07   1023.12     31.99
 97.17   1130.92     33.63
 97.27   1126.23     33.56
 97.37   1198.18     34.61
 97.47   1206.20     34.73
 97.57   1279.00     35.76
 97.67   1416.00     37.63
 97.77   1425.00     37.75
 97.87   1499.00     38.72
 97.97   1423.16     37.72
 98.07   1415.67     37.63
 98.17   1412.00     37.58
 98.27   1317.00     36.29
 98.37   1240.00     35.21
 98.47   1243.34     35.26
 98.57   1186.08     34.44
 98.67   1074.42     32.78
 98.77   1067.00     32.66
 98.87    904.00     30.07
 98.97    928.49     30.47
 99.07    936.00     30.59
 99.17    870.18     29.50
 99.27    879.00     29.65
 99.37    896.00     29.93
 99.47    877.43     29.62
 99.57    969.26     31.13
 99.67    989.00     31.45
 99.77   1050.60     32.41
 99.87   1153.86     33.97
 99.97   1242.41     35.25
100.07   1296.16     36.00
100.17   1343.00     36.65
100.27   1441.00     37.96
100.37   1580.00     39.75
100.47   1632.00     40.40
100.57   1819.50     42.66
100.67   1787.00     42.27
100.77   1833.97     42.82
100.87   1948.65     44.14
100.97   1991.00     44.62
101.07   1930.00     43.93
101.17   1967.00     44.35
101.27   1951.77     44.18
101.37   1962.68     44.30
101.47   1875.00     43.30
101.57   1788.00     42.28
101.67   1674.00     40.91
101.77   1561.32     39.51
101.87   1593.42     39.92
101.97   1483.41     38.52
102.07   1411.00     37.56
102.17   1402.00     37.44
102.27   1261.85     35.52
102.37   1263.00     35.54
102.47   1218.00     34.90
102.57   1159.07     34.05
102.67   1139.00     33.75
102.77   1145.00     33.84
102.87   1080.00     32.86
102.97   1104.00     33.23
103.07   1015.00     31.86
103.17   1052.00     32.43
103.27    998.00     31.59
103.37    920.29     30.34
103.47    974.00     31.21
103.57    870.00     29.50
103.67    871.00     29.51
103.77    797.00     28.23
103.87    723.00     26.89
103.97    747.00     27.33
104.07    739.00     27.18
104.17    654.18     25.58
104.27    677.16     26.02
104.37    637.88     25.26
104.47    606.70     24.63
104.57    576.00     24.00
104.67    577.00     24.02
104.77    578.00     24.04
104.87    583.00     24.15
104.97    562.00     23.71
105.07    524.00     22.89
105.17    582.00     24.12
105.27    520.00     22.80
105.37    519.91     22.80
105.47    536.00     23.15
105.57    492.47     22.19
105.67    536.00     23.15
105.77    505.56     22.48
105.87    550.00     23.45
105.97    556.00     23.58
106.07    573.37     23.95
106.17    578.00     24.04
106.27    596.00     24.41
106.37    553.28     23.52
106.47    621.00     24.92
106.57    532.62     23.08
106.67    553.00     23.52
106.77    637.00     25.24
106.87    592.71     24.35
106.97    672.14     25.93
107.07    650.16     25.50
107.17    679.82     26.07
107.27    692.50     26.32
107.37    708.14     26.61
107.47    689.00     26.25
107.57    659.00     25.67
107.67    701.04     26.48
107.77    650.00     25.50
107.87    695.25     26.37
107.97    639.00     25.28
108.07    678.00     26.04
108.17    640.96     25.32
108.27    718.21     26.80
108.37    681.38     26.10
108.47    647.00     25.44
108.57    648.00     25.46
108.67    730.29     27.02
108.77    676.00     26.00
108.87    663.54     25.76
108.97    687.00     26.21
109.07    700.00     26.46
109.17    663.00     25.75
109.27    676.00     26.00
109.37    671.00     25.90
109.47    715.00     26.74
109.57    681.00     26.10
109.67    664.00     25.77
109.77    653.00     25.55
109.87    669.00     25.87
109.97    693.49     26.33
110.07    668.95     25.86
110.17    638.82     25.27
110.27    618.06     24.86
110.37    569.86     23.87
110.47    558.34     23.63
110.57    565.08     23.77
110.67    583.00     24.15
110.77    588.99     24.27
110.87    548.00     23.41
110.97    546.00     23.37
111.07    591.00     24.31
111.17    592.00     24.33
111.27    559.00     23.64
111.37    552.00     23.49
111.47    557.22     23.61
111.57    532.58     23.08
111.67    573.00     23.94
111.77    546.00     23.37
111.87    541.00     23.26
111.97    540.08     23.24
112.07    545.00     23.35
112.17    526.80     22.95
112.27    589.00     24.27
112.37    592.63     24.34
112.47    552.00     23.49
112.57    583.11     24.15
112.67    563.11     23.73
112.77    538.00     23.19
112.87    557.00     23.60
112.97    603.00     24.56
113.07    631.46     25.13
113.17    608.00     24.66
113.27    563.00     23.73
113.37    670.52     25.89
113.47    575.00     23.98
113.57    632.00     25.14
113.67    651.00     25.51
113.77    646.00     25.42
113.87    678.00     26.04
113.97    731.94     27.05
114.07    708.00     26.61
114.17    759.00     27.55
114.27    794.50     28.19
114.37    895.87     29.93
114.47    953.72     30.88
114.57    897.00     29.95
114.67   1095.89     33.10
114.77   1111.00     33.33
114.87   1217.00     34.89
114.97   1348.00     36.72
115.07   1519.00     38.97
115.17   1754.00     41.88
115.27   1847.77     42.99
115.37   2210.00     47.01
115.47   2324.90     48.22
115.57   2688.00     51.85
115.67   2952.62     54.34
115.77   3115.31     55.81
115.87   3527.25     59.39
115.97   4022.00     63.42
116.07   4263.95     65.30
116.17   4741.00     68.85
116.27   4924.00     70.17
116.37   5380.00     73.35
116.47   5835.00     76.39
116.57   6192.15     78.69
116.67   6505.00     80.65
116.77   6586.34     81.16
116.87   6868.16     82.87
116.97   6910.00     83.13
117.07   6941.00     83.31
117.17   6794.46     82.43
117.27   6760.00     82.22
117.37   6506.00     80.66
117.47   6553.84     80.96
117.57   6239.38     78.99
117.67   5594.00     74.79
117.77   5406.61     73.53
117.87   5088.23     71.33
117.97   4769.67     69.06
118.07   4391.00     66.26
118.17   4208.27     64.87
118.27   3824.00     61.84
118.37   3292.44     57.38
118.47   2973.00     54.53
118.57   2747.00     52.41
118.67   2483.32     49.83
118.77   2179.00     46.68
118.87   1933.00     43.97
118.97   1761.00     41.96
119.07   1614.47     40.18
119.17   1433.00     37.85
119.27   1263.00     35.54
119.37   1206.00     34.73
119.47   1131.00     33.63
119.57    959.86     30.98
119.67    939.00     30.64
119.77    903.00     30.05
119.87    887.00     29.78
119.97    772.00     27.78
120.07    808.00     28.43
120.17    682.79     26.13
120.27    653.00     25.55
120.37    629.80     25.10
120.47    602.81     24.55
120.57    623.00     24.96
120.67    620.00     24.90
120.77    617.00     24.84
120.87    638.00     25.26
120.97    624.00     24.98
121.07    563.00     23.73
121.17    608.00     24.66
121.27    574.00     23.96
121.37    560.00     23.66
121.47    570.00     23.87
121.57    596.00     24.41
121.67    567.08     23.81
121.77    571.00     23.90
121.87    600.40     24.50
121.97    547.00     23.39
122.07    612.00     24.74
122.17    603.00     24.56
122.27    552.00     23.49
122.37    579.00     24.06
122.47    607.63     24.65
122.57    564.62     23.76
122.67    585.00     24.19
122.77    641.64     25.33
122.87    602.00     24.54
122.97    642.74     25.35
123.07    632.00     25.14
123.17    611.11     24.72
123.27    675.00     25.98
123.37    616.00     24.82
123.47    633.00     25.16
123.57    587.38     24.24
123.67    634.00     25.18
123.77    572.50     23.93
123.87    636.00     25.22
123.97    571.00     23.90
124.07    592.87     24.35
124.17    600.00     24.49
124.27    604.00     24.58
124.37    558.62     23.64
124.47    599.13     24.48
124.57    601.00     24.52
124.67    617.00     24.84
124.77    596.00     24.41
124.87    602.85     24.55
124.97    562.00     23.71
