XYDATA



INTER 1.0 1.0 0 0
TEMP 1074.0
  9.97    615.00     24.80
 10.07    600.55     24.51
 10.17    594.00     24.37
 10.27    582.00     24.12
 10.37    602.00     24.54
 10.47    608.08     24.66
 10.57    578.00     24.04
 10.67    555.83     23.58
 10.77    621.94     24.94
 10.87    569.00     23.85
 10.97    578.00     24.04
 11.07    610.00     24.70
 11.17    572.98     23.94
 11.27    586.00     24.21
 11.37    545.88     23.36
 11.47    629.00     25.08
 11.57    600.00     24.49
 11.67    620.41     24.91
 11.77    654.00     25.57
 11.87    657.00     25.63
 11.97    664.00     25.77
 12.07    718.00     26.80
 12.17    752.80     27.44
 12.27    728.00     26.98
 12.37    697.00     26.40
 12.47    639.90     25.30
 12.57    576.11     24.00
 12.67    608.00     24.66
 12.77    555.00     23.56
 12.87    560.00     23.66
 12.97    559.29     23.65
 13.07    564.60     23.76
 13.17    581.79     24.12
 13.27    571.00     23.90
 13.37    540.74     23.25
 13.47    585.98     24.21
 13.57    658.00     25.65
 13.67    554.24     23.54
 13.77    560.00     23.66
 13.87    585.24     24.19
 13.97    552.62     23.51
 14.07    540.02     23.24
 14.17    561.00     23.69
 14.27    609.36     24.69
 14.37    584.00     24.17
 14.47    558.96     23.64
 14.57    555.00     23.56
 14.67    561.00     23.69
 14.77    559.76     23.66
 14.87    603.00     24.56
 14.97    558.00     23.62
 15.07    580.00     24.08
 15.17    541.59     23.27
 15.27    528.00     22.98
 15.37    572.00     23.92
 15.47    560.00     23.66
 15.57    562.95     23.73
 15.67    580.03     24.08
 15.77    557.00     23.60
 15.87    594.05     24.37
 15.97    535.12     23.13
 16.07    561.00     23.69
 16.17    543.00     23.30
 16.27    589.00     24.27
 16.37    588.00     24.25
 16.47    595.00     24.39
 16.57    551.10     23.48
 16.67    551.00     23.47
 16.77    545.00     23.35
 16.87    566.22     23.80
 16.97    550.47     23.46
 17.07    590.00     24.29
 17.17    542.58     23.29
 17.27    537.56     23.19
 17.37    545.13     23.35
 17.47    588.28     24.25
 17.57    579.00     24.06
 17.67    569.00     23.85
 17.77    507.00     22.52
 17.87    559.46     23.65
 17.97    542.00     23.28
 18.07    565.00     23.77
 18.17    521.00     22.83
 18.27    558.00     23.62
 18.37    527.00     22.96
 18.47    550.38     23.46
 18.57    538.23     23.20
 18.67    555.00     23.56
 18.77    584.13     24.17
 18.87    557.00     23.60
 18.97    533.46     23.10
 19.07    568.00     23.83
 19.17    535.39     23.14
 19.27    509.00     22.56
 19.37    540.00     23.24
 19.47    526.00     22.93
 19.57    518.74     22.78
 19.67    573.00     23.94
 19.77    523.51     22.88
 19.87    557.00     23.60
 19.97    524.89     22.91
 20.07    529.00     23.00
 20.17    598.16     24.46
 20.27    565.00     23.77
 20.37    612.00     24.74
 20.47    523.00     22.87
 20.57    541.00     23.26
 20.67    590.30     24.30
 20.77    558.01     23.62
 20.87    570.00     23.87
 20.97    552.00     23.49
 21.07    596.00     24.41
 21.17    587.90     24.25
 21.27    557.00     23.60
 21.37    570.84     23.89
 21.47    582.00     24.12
 21.57    553.00     23.52
 21.67    523.00     22.87
 21.77    592.00     24.33
 21.87    585.00     24.19
 21.97    573.00     23.94
 22.07    559.00     23.64
 22.17    536.00     23.15
 22.27    570.00     23.87
 22.37    512.00     22.63
 22.47    543.00     23.30
 22.57    587.00     24.23
 22.67    578.25     24.05
 22.77    501.00     22.38
 22.87    541.00     23.26
 22.97    581.63     24.12
 23.07    572.00     23.92
 23.17    565.00     23.77
 23.27    567.00     23.81
 23.37    563.00     23.73
 23.47    589.48     24.28
 23.57    545.00     23.35
 23.67    558.00     23.62
 23.77    567.00     23.81
 23.87    558.00     23.62
 23.97    538.00     23.19
 24.07    565.62     23.78
 24.17    539.00     23.22
 24.27    550.00     23.45
 24.37    558.00     23.62
 24.47    577.00     24.02
 24.57    559.28     23.65
 24.67    640.00     25.30
 24.77    681.27     26.10
 24.87    598.00     24.45
 24.97    612.00     24.74
 25.07    625.00     25.00
 25.17    583.00     24.15
 25.27    544.77     23.34
 25.37    531.60     23.06
 25.47    600.00     24.49
 25.57    565.00     23.77
 25.67    535.00     23.13
 25.77    554.62     23.55
 25.87    562.00     23.71
 25.97    571.00     23.90
 26.07    516.57     22.73
 26.17    564.00     23.75
 26.27    582.00     24.12
 26.37    556.00     23.58
 26.47    540.00     23.24
 26.57    565.00     23.77
 26.67    541.00     23.26
 26.77    510.81     22.60
 26.87    514.00     22.67
 26.97    570.57     23.89
 27.07    523.32     22.88
 27.17    590.00     24.29
 27.27    580.00     24.08
 27.37    548.00     23.41
 27.47    502.22     22.41
 27.57    536.00     23.15
 27.67    561.00     23.69
 27.77    555.00     23.56
 27.87    650.00     25.50
 27.97    686.00     26.19
 28.07    803.00     28.34
 28.17    849.07     29.14
 28.27    980.00     31.30
 28.37    883.78     29.73
 28.47    848.00     29.12
 28.57    697.98     26.42
 28.67    696.41     26.39
 28.77    712.13     26.69
 28.87    811.00     28.48
 28.97    898.41     29.97
 29.07    794.44     28.19
 29.17    703.00     26.51
 29.27    624.00     24.98
 29.37    625.00     25.00
 29.47    589.00     24.27
 29.57    613.00     24.76
 29.67    574.54     23.97
 29.77    614.00     24.78
 29.87    594.85     24.39
 29.97    569.00     23.85
 30.07    554.00     23.54
 30.17    539.87     23.24
 30.27    573.00     23.94
 30.37    529.08     23.00
 30.47    506.75     22.51
 30.57    576.00     24.00
 30.67    542.00     23.28
 30.77    590.00     24.29
 30.87    584.00     24.17
 30.97    614.00     24.78
 31.07    558.60     23.63
 31.17    590.74     24.31
 31.27    565.00     23.77
 31.37    534.00     23.11
 31.47    511.00     22.61
 31.57    534.00     23.11
 31.67    551.94     23.49
 31.77    558.00     23.62
 31.87    523.00     22.87
 31.97    550.00     23.45
 32.07    554.00     23.54
 32.17    578.00     24.04
 32.27    523.00     22.87
 32.37    516.00     22.72
 32.47    546.00     23.37
 32.57    491.95     22.18
 32.67    598.00     24.45
 32.77    548.94     23.43
 32.87    545.20     23.35
 32.97    499.84     22.36
 33.07    572.00     23.92
 33.17    567.89     23.83
 33.27    500.98     22.38
 33.37    553.00     23.52
 33.47    545.00     23.35
 33.57    576.29     24.01
 33.67    577.00     24.02
 33.77    794.00     28.18
 33.87    886.78     29.78
 33.97    985.00     31.38
 34.07   1116.05     33.41
 34.17    975.37     31.23
 34.27    931.00     30.51
 34.37    718.12     26.80
 34.47    612.00     24.74
 34.57    575.00     23.98
 34.67    572.00     23.92
 34.77    566.25     23.80
 34.87    538.86     23.21
 34.97    522.00     22.85
 35.07    515.65     22.71
 35.17    524.00     22.89
 35.27    538.00     23.19
 35.37    572.00     23.92
 35.47    526.65     22.95
 35.57    530.00     23.02
 35.67    477.00     21.84
 35.77    516.40     22.72
 35.87    518.51     22.77
 35.97    558.00     23.62
 36.07    499.00     22.34
 36.17    553.16     23.52
 36.27    521.00     22.83
 36.37    504.00     22.45
 36.47    517.00     22.74
 36.57    497.18     22.30
 36.67    463.00     21.52
 36.77    498.00     22.32
 36.87    518.00     22.76
 36.97    473.33     21.76
 37.07    531.82     23.06
 37.17    527.00     22.96
 37.27    492.00     22.18
 37.37    507.90     22.54
 37.47    485.89     22.04
 37.57    527.61     22.97
 37.67    525.00     22.91
 37.77    523.00     22.87
 37.87    493.87     22.22
 37.97    523.00     22.87
 38.07    558.93     23.64
 38.17    504.00     22.45
 38.27    485.00     22.02
 38.37    475.00     21.79
 38.47    442.00     21.02
 38.57    483.00     21.98
 38.67    485.00     22.02
 38.77    500.00     22.36
 38.87    523.00     22.87
 38.97    503.00     22.43
 39.07    504.00     22.45
 39.17    520.00     22.80
 39.27    520.00     22.80
 39.37    534.26     23.11
 39.47    527.00     22.96
 39.57    510.00     22.58
 39.67    498.33     22.32
 39.77    501.00     22.38
 39.87    520.47     22.81
 39.97    470.49     21.69
 40.07    497.29     22.30
 40.17    487.00     22.07
 40.27    471.00     21.70
 40.37    496.00     22.27
 40.47    501.00     22.38
 40.57    475.12     21.80
 40.67    487.12     22.07
 40.77    528.00     22.98
 40.87    486.00     22.05
 40.97    534.00     23.11
 41.07    519.08     22.78
 41.17    514.00     22.67
 41.27    477.00     21.84
 41.37    495.00     22.25
 41.47    482.70     21.97
 41.57    469.24     21.66
 41.67    522.00     22.85
 41.77    483.00     21.98
 41.87    548.16     23.41
 41.97    484.00     22.00
 42.07    504.00     22.45
 42.17    567.00     23.81
 42.27    512.00     22.63
 42.37    577.00     24.02
 42.47    570.00     23.87
 42.57    585.12     24.19
 42.67    608.00     24.66
 42.77    592.00     24.33
 42.87    580.00     24.08
 42.97    578.37     24.05
 43.07    586.38     24.22
 43.17    562.67     23.72
 43.27    511.89     22.62
 43.37    550.90     23.47
 43.47    514.00     22.67
 43.57    505.57     22.48
 43.67    508.00     22.54
 43.77    509.61     22.57
 43.87    464.00     21.54
 43.97    470.61     21.69
 44.07    487.00     22.07
 44.17    515.00     22.69
 44.27    514.00     22.67
 44.37    521.00     22.83
 44.47    488.58     22.10
 44.57    520.00     22.80
 44.67    462.00     21.49
 44.77    506.00     22.49
 44.87    509.00     22.56
 44.97    502.00     22.41
 45.07    532.55     23.08
 45.17    490.27     22.14
 45.27    523.00     22.87
 45.37    516.00     22.72
 45.47    520.42     22.81
 45.57    513.56     22.66
 45.67    523.00     22.87
 45.77    463.94     21.54
 45.87    491.00     22.16
 45.97    525.00     22.91
 46.07    520.38     22.81
 46.17    538.93     23.21
 46.27    502.48     22.42
 46.37    509.84     22.58
 46.47    514.00     22.67
 46.57    476.00     21.82
 46.67    517.00     22.74
 46.77    517.82     22.76
 46.87    478.00     21.86
 46.97    553.00     23.52
 47.07    461.00     21.47
 47.17    544.00     23.32
 47.27    565.00     23.77
 47.37    487.00     22.07
 47.47    498.11     22.32
 47.57    509.33     22.57
 47.67    614.21     24.78
 47.77    610.52     24.71
 47.87    612.00     24.74
 47.97    599.00     24.47
 48.07    592.00     24.33
 48.17    557.00     23.60
 48.27    552.00     23.49
 48.37    534.00     23.11
 48.47    497.00     22.29
 48.57    514.00     22.67
 48.67    501.00     22.38
 48.77    535.08     23.13
 48.87    520.00     22.80
 48.97    577.32     24.03
 49.07    609.00     24.68
 49.17    583.00     24.15
 49.27    661.53     25.72
 49.37    667.95     25.84
 49.47    701.00     26.48
 49.57    749.76     27.38
 49.67    920.00     30.33
 49.77   1162.00     34.09
 49.87   1515.99     38.94
 49.97   1912.62     43.73
 50.07   2296.00     47.92
 50.17   2554.00     50.54
 50.27   2459.00     49.59
 50.37   2308.00     48.04
 50.47   1854.00     43.06
 50.57   1435.84     37.89
 50.67   1078.05     32.83
 50.77    733.00     27.07
 50.87    711.00     26.66
 50.97    674.68     25.97
 51.07    608.00     24.66
 51.17    671.00     25.90
 51.27    560.76     23.68
 51.37    612.00     24.74
 51.47    565.00     23.77
 51.57    599.00     24.47
 51.67    526.19     22.94
 51.77    534.00     23.11
 51.87    529.12     23.00
 51.97    520.90     22.82
 52.07    545.00     23.35
 52.17    514.00     22.67
 52.27    576.00     24.00
 52.37    553.00     23.52
 52.47    506.56     22.51
 52.57    577.12     24.02
 52.67    622.00     24.94
 52.77    620.00     24.90
 52.87    653.00     25.55
 52.97    638.60     25.27
 53.07    782.00     27.96
 53.17    851.72     29.18
 53.27   1043.00     32.30
 53.37   1188.29     34.47
 53.47   1190.00     34.50
 53.57   1196.11     34.58
 53.67   1152.23     33.94
 53.77   1015.00     31.86
 53.87    889.00     29.82
 53.97    772.00     27.78
 54.07    634.77     25.19
 54.17    626.00     25.02
 54.27    588.00     24.25
 54.37    558.00     23.62
 54.47    556.00     23.58
 54.57    539.93     23.24
 54.67    588.39     24.26
 54.77    607.00     24.64
 54.87    589.00     24.27
 54.97    529.09     23.00
 55.07    557.00     23.60
 55.17    538.30     23.20
 55.27    586.00     24.21
 55.37    547.61     23.40
 55.47    560.00     23.66
 55.57    568.00     23.83
 55.67    564.00     23.75
 55.77    564.86     23.77
 55.87    622.00     24.94
 55.97    640.00     25.30
 56.07    681.00     26.10
 56.17    766.00     27.68
 56.27    963.88     31.05
 56.37   1194.30     34.56
 56.47   1478.40     38.45
 56.57   1698.00     41.21
 56.67   2064.00     45.43
 56.77   2530.00     50.30
 56.87   2751.21     52.45
 56.97   2613.00     51.12
 57.07   2396.00     48.95
 57.17   2045.20     45.22
 57.27   1611.00     40.14
 57.37   1294.44     35.98
 57.47   1075.86     32.80
 57.57    796.67     28.23
 57.67    748.40     27.36
 57.77    666.99     25.83
 57.87    681.00     26.10
 57.97    681.46     26.10
 58.07    692.00     26.31
 58.17    757.95     27.53
 58.27    760.00     27.57
 58.37    903.87     30.06
 58.47    947.00     30.77
 58.57   1159.76     34.06
 58.67   1275.94     35.72
 58.77   1340.98     36.62
 58.87   1513.08     38.90
 58.97   1553.00     39.41
 59.07   1541.67     39.26
 59.17   1521.00     39.00
 59.27   1403.00     37.46
 59.37   1280.00     35.78
 59.47   1287.00     35.87
 59.57   1221.00     34.94
 59.67   1080.00     32.86
 59.77   1148.14     33.88
 59.87   1236.00     35.16
 59.97   1354.00     36.80
 60.07   1440.00     37.95
 60.17   1454.21     38.13
 60.27   1495.14     38.67
 60.37   1579.00     39.74
 60.47   1459.00     38.20
 60.57   1329.00     36.46
 60.67   1189.00     34.48
 60.77    944.00     30.72
 60.87    786.00     28.04
 60.97    736.70     27.14
 61.07    675.00     25.98
 61.17    675.81     26.00
 61.27    577.19     24.02
 61.37    704.00     26.53
 61.47    654.66     25.59
 61.57    767.00     27.69
 61.67    799.90     28.28
 61.77   1013.47     31.84
 61.87   1074.00     32.77
 61.97   1238.00     35.19
 62.07   1343.98     36.66
 62.17   1443.00     37.99
 62.27   1423.00     37.72
 62.37   1322.00     36.36
 62.47   1200.95     34.65
 62.57    987.00     31.42
 62.67    943.59     30.72
 62.77    712.00     26.68
 62.87    659.00     25.67
 62.97    668.40     25.85
 63.07    614.82     24.80
 63.17    584.11     24.17
 63.27    550.00     23.45
 63.37    602.14     24.54
 63.47    531.83     23.06
 63.57    567.00     23.81
 63.67    541.33     23.27
 63.77    650.00     25.50
 63.87    602.00     24.54
 63.97    684.00     26.15
 64.07    655.72     25.61
 64.17    744.00     27.28
 64.27    830.72     28.82
 64.37    879.85     29.66
 64.47    966.89     31.09
 64.57    952.56     30.86
 64.67   1003.00     31.67
 64.77   1058.00     32.53
 64.87    955.00     30.90
 64.97    962.00     31.02
 65.07    829.00     28.79
 65.17    815.00     28.55
 65.27    763.00     27.62
 65.37    661.00     25.71
 65.47    678.33     26.04
 65.57    614.00     24.78
 65.67    622.00     24.94
 65.77    542.00     23.28
 65.87    579.71     24.08
 65.97    605.63     24.61
 66.07    544.00     23.32
 66.17    546.27     23.37
 66.27    533.00     23.09
 66.37    546.00     23.37
 66.47    543.60     23.32
 66.57    595.00     24.39
 66.67    574.00     23.96
 66.77    540.00     23.24
 66.87    568.00     23.83
 66.97    559.00     23.64
 67.07    605.00     24.60
 67.17    701.62     26.49
 67.27    770.00     27.75
 67.37    872.44     29.54
 67.47    930.00     30.50
 67.57   1307.00     36.15
 67.67   1515.00     38.92
 67.77   1806.49     42.50
 67.87   2178.00     46.67
 67.97   2359.11     48.57
 68.07   2502.00     50.02
 68.17   2350.88     48.49
 68.27   2256.00     47.50
 68.37   2060.00     45.39
 68.47   1883.00     43.39
 68.57   1456.30     38.16
 68.67   1312.00     36.22
 68.77   1078.89     32.85
 68.87    859.00     29.31
 68.97    743.92     27.27
 69.07    705.00     26.55
 69.17    654.85     25.59
 69.27    626.00     25.02
 69.37    634.98     25.20
 69.47    563.67     23.74
 69.57    593.00     24.35
 69.67    596.28     24.42
 69.77    530.19     23.03
 69.87    567.00     23.81
 69.97    528.00     22.98
 70.07    549.71     23.45
 70.17    600.00     24.49
 70.27    618.00     24.86
 70.37    592.00     24.33
 70.47    568.00     23.83
 70.57    591.16     24.31
 70.67    579.00     24.06
 70.77    542.00     23.28
 70.87    632.00     25.14
 70.97    624.62     24.99
 71.07    619.00     24.88
 71.17    682.00     26.12
 71.27    766.06     27.68
 71.37    929.10     30.48
 71.47   1066.00     32.65
 71.57   1201.56     34.66
 71.67   1481.64     38.49
 71.77   1597.00     39.96
 71.87   1758.23     41.93
 71.97   1909.40     43.70
 72.07   1999.00     44.71
 72.17   1925.00     43.87
 72.27   1754.00     41.88
 72.37   1642.19     40.52
 72.47   1572.00     39.65
 72.57   1323.03     36.37
 72.67   1202.00     34.67
 72.77   1070.00     32.71
 72.87    957.00     30.94
 72.97    936.00     30.59
 73.07    783.00     27.98
 73.17    764.12     27.64
 73.27    759.64     27.56
 73.37    746.79     27.33
 73.47    649.02     25.48
 73.57    629.01     25.08
 73.67    591.00     24.31
 73.77    576.54     24.01
 73.87    564.00     23.75
 73.97    552.05     23.50
 74.07    590.00     24.29
 74.17    609.00     24.68
 74.27    601.48     24.53
 74.37    585.40     24.19
 74.47    659.00     25.67
 74.57    628.00     25.06
 74.67    638.00     25.26
 74.77    629.00     25.08
 74.87    586.28     24.21
 74.97    619.00     24.88
 75.07    616.00     24.82
 75.17    582.00     24.12
 75.27    591.00     24.31
 75.37    553.67     23.53
 75.47    570.00     23.87
 75.57    558.02     23.62
 75.67    539.28     23.22
 75.77    548.00     23.41
 75.87    625.47     25.01
 75.97    622.00     24.94
 76.07    625.00     25.00
 76.17    623.00     24.96
 76.27    681.00     26.10
 76.37    724.00     26.91
 76.47    711.23     26.67
 76.57    705.00     26.55
 76.67    727.00     26.96
 76.77    662.00     25.73
 76.87    674.97     25.98
 76.97    667.14     25.83
 77.07    644.00     25.38
 77.17    588.00     24.25
 77.27    561.43     23.69
 77.37    532.40     23.07
 77.47    545.00     23.35
 77.57    534.00     23.11
 77.67    547.92     23.41
 77.77    575.64     23.99
 77.87    508.00     22.54
 77.97    532.00     23.07
 78.07    509.00     22.56
 78.17    541.00     23.26
 78.27    487.35     22.08
 78.37    488.93     22.11
 78.47    487.00     22.07
 78.57    528.00     22.98
 78.67    517.00     22.74
 78.77    506.00     22.49
 78.87    535.00     23.13
 78.97    540.00     23.24
 79.07    519.12     22.78
 79.17    560.00     23.66
 79.27    523.00     22.87
 79.37    543.00     23.30
 79.47    529.71     23.02
 79.57    525.79     22.93
 79.67    526.30     22.94
 79.77    519.00     22.78
 79.87    513.00     22.65
 79.97    565.00     23.77
 80.07    505.00     22.47
 80.17    525.00     22.91
 80.27    565.13     23.77
 80.37    621.60     24.93
 80.47    582.38     24.13
 80.57    614.76     24.79
 80.67    599.00     24.47
 80.77    641.00     25.32
 80.87    686.73     26.21
 80.97    683.00     26.13
 81.07    743.13     27.26
 81.17    756.00     27.50
 81.27    776.48     27.87
 81.37    762.00     27.60
 81.47    839.00     28.97
 81.57    706.63     26.58
 81.67    714.00     26.72
 81.77    683.27     26.14
 81.87    720.23     26.84
 81.97    658.51     25.66
 82.07    738.00     27.17
 82.17    694.00     26.34
 82.27    650.00     25.50
 82.37    642.00     25.34
 82.47    597.00     24.43
 82.57    574.00     23.96
 82.67    531.00     23.04
 82.77    568.00     23.83
 82.87    549.33     23.44
 82.97    479.00     21.89
 83.07    577.92     24.04
 83.17    541.00     23.26
 83.27    576.00     24.00
 83.37    551.00     23.47
 83.47    562.00     23.71
 83.57    587.34     24.24
 83.67    528.42     22.99
 83.77    555.00     23.56
 83.87    555.00     23.56
 83.97    531.00     23.04
 84.07    598.70     24.47
 84.17    529.00     23.00
 84.27    561.00     23.69
 84.37    512.00     22.63
 84.47    548.00     23.41
 84.57    567.00     23.81
 84.67    564.00     23.75
 84.77    541.00     23.26
 84.87    520.00     22.80
 84.97    533.00     23.09
 85.07    561.16     23.69
 85.17    525.00     22.91
 85.27    487.00     22.07
 85.37    537.20     23.18
 85.47    533.00     23.09
 85.57    565.00     23.77
 85.67    513.00     22.65
 85.77    508.00     22.54
 85.87    515.09     22.70
 85.97    531.00     23.04
 86.07    507.24     22.52
 86.17    519.11     22.78
 86.27    530.42     23.03
 86.37    529.58     23.01
 86.47    564.62     23.76
 86.57    546.00     23.37
 86.67    560.66     23.68
 86.77    537.55     23.19
 86.87    607.00     24.64
 86.97    610.00     24.70
 87.07    631.00     25.12
 87.17    635.00     25.20
 87.27    640.00     25.30
 87.37    579.00     24.06
 87.47    608.00     24.66
 87.57    678.00     26.04
 87.67    624.00     24.98
 87.77    620.87     24.92
 87.87    637.00     25.24
 87.97    614.00     24.78
 88.07    622.00     24.94
 88.17    537.80     23.19
 88.27    576.43     24.01
 88.37    582.00     24.12
 88.47    566.00     23.79
 88.57    548.68     23.42
 88.67    579.08     24.06
 88.77    580.00     24.08
 88.87    595.00     24.39
 88.97    538.35     23.20
 89.07    631.00     25.12
 89.17    558.37     23.63
 89.27    624.54     24.99
 89.37    594.04     24.37
 89.47    563.60     23.74
 89.57    583.28     24.15
 89.67    594.00     24.37
 89.77    581.00     24.10
 89.87    569.68     23.87
 89.97    576.82     24.02
 90.07    530.00     23.02
 90.17    575.00     23.98
 90.27    523.07     22.87
 90.37    561.06     23.69
 90.47    548.00     23.41
 90.57    512.57     22.64
 90.67    497.00     22.29
 90.77    553.46     23.53
 90.87    536.00     23.15
 90.97    508.00     22.54
 91.07    527.00     22.96
 91.17    516.00     22.72
 91.27    479.00     21.89
 91.37    541.16     23.26
 91.47    512.00     22.63
 91.57    533.00     23.09
 91.67    520.00     22.80
 91.77    554.16     23.54
 91.87    582.08     24.13
 91.97    559.00     23.64
 92.07    552.78     23.51
 92.17    614.00     24.78
 92.27    585.93     24.21
 92.37    596.29     24.42
 92.47    655.00     25.59
 92.57    660.00     25.69
 92.67    648.00     25.46
 92.77    679.00     26.06
 92.87    734.54     27.10
 92.97    712.00     26.68
 93.07    767.00     27.69
 93.17    820.00     28.64
 93.27    777.99     27.89
 93.37    794.30     28.18
 93.47    846.00     29.09
 93.57    815.00     28.55
 93.67    870.40     29.50
 93.77    850.83     29.17
 93.87    775.36     27.85
 93.97    852.00     29.19
 94.07    806.62     28.40
 94.17    800.00     28.28
 94.27    906.00     30.10
 94.37    921.00     30.35
 94.47    933.00     30.55
 94.57    893.90     29.90
 94.67    940.54     30.67
 94.77    946.00     30.76
 94.87    918.00     30.30
 94.97    892.00     29.87
 95.07    842.31     29.02
 95.17    810.04     28.46
 95.27    866.00     29.43
 95.37    806.00     28.39
 95.47    793.00     28.16
 95.57    788.00     28.07
 95.67    728.00     26.98
 95.77    737.00     27.15
 95.87    688.52     26.24
 95.97    719.94     26.83
 96.07    713.05     26.70
 96.17    702.00     26.50
 96.27    710.00     26.65
 96.37    748.00     27.35
 96.47    748.00     27.35
 96.57    887.00     29.78
 96.67    866.00     29.43
 96.77    935.00     30.58
 96.87   1070.13     32.71
 96.97   1080.55     32.87
 97.07   1180.00     34.35
 97.17   1314.33     36.25
 97.27   1289.13     35.90
 97.37   1387.47     37.25
 97.47   1354.25     36.80
 97.57   1475.00     38.41
 97.67   1438.68     37.93
 97.77   1340.66     36.62
 97.87   1334.69     36.53
 97.97   1221.00     34.94
 98.07   1269.84     35.63
 98.17   1221.00     34.94
 98.27   1123.00     33.51
 98.37    993.00     31.51
 98.47    875.00     29.58
 98.57    923.37     30.39
 98.67    853.80     29.22
 98.77    806.00     28.39
 98.87    775.00     27.84
 98.97    800.00     28.28
 99.07    849.31     29.14
 99.17    847.00     29.10
 99.27    825.33     28.73
 99.37    959.00     30.97
 99.47   1049.00     32.39
 99.57   1107.81     33.28
 99.67   1189.00     34.48
 99.77   1316.00     36.28
 99.87   1358.03     36.85
 99.97   1428.26     37.79
100.07   1577.00     39.71
100.17   1747.00     41.80
100.27   1859.76     43.12
100.37   1908.00     43.68
100.47   2036.00     45.12
100.57   2114.00     45.98
100.67   2045.00     45.22
100.77   2097.78     45.80
100.87   2082.00     45.63
100.97   2075.00     45.55
101.07   2044.00     45.21
101.17   1865.00     43.19
101.27   1860.04     43.13
101.37   1675.00     40.93
101.47   1686.00     41.06
101.57   1527.00     39.08
101.67   1406.00     37.50
101.77   1382.00     37.18
101.87   1361.70     36.90
101.97   1276.56     35.73
102.07   1243.00     35.26
102.17   1166.00     34.15
102.27   1096.00     33.11
102.37   1078.00     32.83
102.47   1094.00     33.08
102.57   1023.00     31.98
102.67    993.00     31.51
102.77   1036.00     32.19
102.87    971.00     31.16
102.97    988.00     31.43
103.07    939.00     30.64
103.17    866.00     29.43
103.27    851.67     29.18
103.37    808.00     28.43
103.47    778.00     27.89
103.57    677.75     26.03
103.67    675.00     25.98
103.77    629.85     25.10
103.87    642.51     25.35
103.97    653.00     25.55
104.07    565.58     23.78
104.17    603.00     24.56
104.27    603.52     24.57
104.37    566.00     23.79
104.47    573.00     23.94
104.57    558.00     23.62
104.67    550.00     23.45
104.77    566.00     23.79
104.87    497.21     22.30
104.97    517.49     22.75
105.07    614.00     24.78
105.17    542.00     23.28
105.27    543.00     23.30
105.37    564.00     23.75
105.47    522.92     22.87
105.57    537.00     23.17
105.67    507.86     22.54
105.77    557.00     23.60
105.87    589.00     24.27
105.97    586.00     24.21
106.07    574.54     23.97
106.17    590.20     24.29
106.27    554.96     23.56
106.37    618.00     24.86
106.47    605.00     24.60
106.57    669.23     25.87
106.67    648.37     25.46
106.77    629.32     25.09
106.87    646.00     25.42
106.97    637.00     25.24
107.07    637.00     25.24
107.17    739.23     27.19
107.27    715.00     26.74
107.37    713.00     26.70
107.47    649.00     25.48
107.57    677.00     26.02
107.67    663.06     25.75
107.77    633.00     25.16
107.87    710.09     26.65
107.97    694.00     26.34
108.07    709.26     26.63
108.17    666.04     25.81
108.27    677.00     26.02
108.37    710.00     26.65
108.47    671.00     25.90
108.57    683.00     26.13
108.67    685.00     26.17
108.77    673.00     25.94
108.87    680.05     26.08
108.97    696.00     26.38
109.07    726.00     26.94
109.17    709.00     26.63
109.27    679.00     26.06
109.37    656.00     25.61
109.47    640.57     25.31
109.57    666.00     25.81
109.67    627.00     25.04
109.77    611.00     24.72
109.87    584.00     24.17
109.97    568.71     23.85
110.07    555.67     23.57
110.17    579.00     24.06
110.27    530.00     23.02
110.37    595.69     24.41
110.47    531.00     23.04
110.57    562.66     23.72
110.67    543.00     23.30
110.77    571.00     23.90
110.87    517.00     22.74
110.97    552.00     23.49
111.07    529.05     23.00
111.17    543.00     23.30
111.27    564.00     23.75
111.37    511.00     22.61
111.47    546.11     23.37
111.57    579.72     24.08
111.67    536.00     23.15
111.77    575.00     23.98
111.87    543.00     23.30
111.97    550.00     23.45
112.07    627.00     25.04
112.17    564.00     23.75
112.27    604.66     24.59
112.37    599.00     24.47
112.47    604.00     24.58
112.57    610.00     24.70
112.67    592.00     24.33
112.77    628.03     25.06
112.87    662.35     25.74
112.97    610.00     24.70
113.07    731.27     27.04
113.17    754.00     27.46
113.27    697.10     26.40
113.37    793.00     28.16
113.47    758.00     27.53
113.57    767.50     27.70
113.67    903.00     30.05
113.77    948.00     30.79
113.87   1016.00     31.87
113.97    965.00     31.06
114.07   1027.00     32.05
114.17   1050.00     32.40
114.27   1163.00     34.10
114.37   1233.00     35.11
114.47   1294.00     35.97
114.57   1419.00     37.67
114.67   1546.33     39.32
114.77   1765.20     42.01
114.87   1845.00     42.95
114.97   2125.00     46.10
115.07   2342.07     48.39
115.17   2670.00     51.67
115.27   2761.66     52.55
115.37   3001.00     54.78
115.47   3413.00     58.42
115.57   3861.74     62.14
115.67   4204.00     64.84
115.77   4426.00     66.53
115.87   4844.98     69.61
115.97   5241.00     72.39
116.07   5628.00     75.02
116.17   5951.00     77.14
116.27   6226.00     78.91
116.37   6597.00     81.22
116.47   6836.66     82.68
116.57   6855.00     82.79
116.67   7002.28     83.68
116.77   6859.00     82.82
116.87   6686.98     81.77
116.97   6709.00     81.91
117.07   6471.00     80.44
117.17   6120.00     78.23
117.27   5827.00     76.33
117.37   5481.92     74.04
117.47   4986.00     70.61
117.57   4615.00     67.93
117.67   4265.32     65.31
117.77   4032.00     63.50
117.87   3453.81     58.77
117.97   3219.00     56.74
118.07   2884.00     53.70
118.17   2583.00     50.82
118.27   2262.00     47.56
118.37   1989.35     44.60
118.47   1826.00     42.73
118.57   1482.00     38.50
118.67   1394.98     37.35
118.77   1276.00     35.72
118.87   1115.00     33.39
118.97   1081.13     32.88
119.07    957.00     30.94
119.17    893.00     29.88
119.27    834.00     28.88
119.37    738.00     27.17
119.47    756.29     27.50
119.57    666.00     25.81
119.67    622.00     24.94
119.77    670.00     25.88
119.87    680.40     26.08
119.97    595.00     24.39
120.07    586.00     24.21
120.17    604.00     24.58
120.27    630.76     25.11
120.37    605.00     24.60
120.47    568.00     23.83
120.57    558.00     23.62
120.67    620.98     24.92
120.77    577.00     24.02
120.87    592.00     24.33
120.97    570.00     23.87
121.07    558.02     23.62
121.17    582.64     24.14
121.27    582.00     24.12
121.37    569.00     23.85
121.47    568.52     23.84
121.57    557.11     23.60
121.67    623.00     24.96
121.77    557.33     23.61
121.87    573.44     23.95
121.97    616.56     24.83
122.07    603.00     24.56
122.17    677.00     26.02
122.27    605.00     24.60
122.37    618.00     24.86
122.47    625.00     25.00
122.57    656.00     25.61
122.67    665.89     25.80
122.77    673.96     25.96
122.87    644.66     25.39
122.97    591.12     24.31
123.07    597.74     24.45
123.17    656.82     25.63
123.27    620.00     24.90
123.37    695.00     26.36
123.47    613.00     24.76
123.57    668.38     25.85
123.67    589.00     24.27
123.77    623.00     24.96
123.87    622.00     24.94
123.97    610.00     24.70
124.07    592.00     24.33
124.17    589.85     24.29
124.27    575.00     23.98
124.37    609.00     24.68
124.47    590.20     24.29
124.57    597.59     24.45
124.67    590.03     24.29
124.77    552.79     23.51
124.87    599.00     24.47
124.97    588.02     24.25
