XYDATA



INTER 1.0 1.0 0 0
TEMP 972.096
  9.97    575.00     23.98
 10.07    557.60     23.61
 10.17    592.00     24.33
 10.27    555.00     23.56
 10.37    590.00     24.29
 10.47    596.00     24.41
 10.57    595.00     24.39
 10.67    557.80     23.62
 10.77    577.00     24.02
 10.87    588.00     24.25
 10.97    597.00     24.43
 11.07    593.00     24.35
 11.17    591.40     24.32
 11.27    584.00     24.17
 11.37    579.00     24.06
 11.47    579.00     24.06
 11.57    569.00     23.85
 11.67    585.00     24.19
 11.77    647.00     25.44
 11.87    648.25     25.46
 11.97    661.58     25.72
 12.07    647.00     25.44
 12.17    683.26     26.14
 12.27    740.09     27.20
 12.37    680.28     26.08
 12.47    660.53     25.70
 12.57    646.39     25.42
 12.67    608.00     24.66
 12.77    610.00     24.70
 12.87    551.03     23.47
 12.97    554.00     23.54
 13.07    615.23     24.80
 13.17    607.41     24.65
 13.27    559.00     23.64
 13.37    580.49     24.09
 13.47    563.00     23.73
 13.57    534.00     23.11
 13.67    527.79     22.97
 13.77    525.82     22.93
 13.87    563.00     23.73
 13.97    555.77     23.57
 14.07    542.63     23.29
 14.17    579.00     24.06
 14.27    534.75     23.12
 14.37    543.81     23.32
 14.47    566.00     23.79
 14.57    589.00     24.27
 14.67    551.82     23.49
 14.77    539.00     23.22
 14.87    538.73     23.21
 14.97    558.00     23.62
 15.07    550.77     23.47
 15.17    560.00     23.66
 15.27    598.00     24.45
 15.37    545.00     23.35
 15.47    591.70     24.32
 15.57    557.53     23.61
 15.67    567.00     23.81
 15.77    558.00     23.62
 15.87    534.00     23.11
 15.97    520.10     22.81
 16.07    602.74     24.55
 16.17    589.00     24.27
 16.27    603.00     24.56
 16.37    536.53     23.16
 16.47    550.00     23.45
 16.57    573.00     23.94
 16.67    527.00     22.96
 16.77    594.41     24.38
 16.87    526.00     22.93
 16.97    598.00     24.45
 17.07    573.97     23.96
 17.17    552.00     23.49
 17.27    537.20     23.18
 17.37    574.00     23.96
 17.47    533.00     23.09
 17.57    566.41     23.80
 17.67    516.49     22.73
 17.77    531.00     23.04
 17.87    538.00     23.19
 17.97    573.00     23.94
 18.07    563.24     23.73
 18.17    527.56     22.97
 18.27    601.66     24.53
 18.37    569.00     23.85
 18.47    554.00     23.54
 18.57    568.00     23.83
 18.67    596.62     24.43
 18.77    590.00     24.29
 18.87    561.00     23.69
 18.97    552.00     23.49
 19.07    524.00     22.89
 19.17    518.00     22.76
 19.27    505.00     22.47
 19.37    585.40     24.19
 19.47    542.62     23.29
 19.57    577.61     24.03
 19.67    557.00     23.60
 19.77    557.32     23.61
 19.87    555.00     23.56
 19.97    564.64     23.76
 20.07    549.49     23.44
 20.17    578.00     24.04
 20.27    544.00     23.32
 20.37    550.00     23.45
 20.47    519.00     22.78
 20.57    517.00     22.74
 20.67    584.28     24.17
 20.77    511.00     22.61
 20.87    592.75     24.35
 20.97    537.55     23.19
 21.07    585.14     24.19
 21.17    511.01     22.61
 21.27    562.00     23.71
 21.37    524.00     22.89
 21.47    540.00     23.24
 21.57    592.62     24.34
 21.67    589.68     24.28
 21.77    521.00     22.83
 21.87    554.23     23.54
 21.97    577.00     24.02
 22.07    516.00     22.72
 22.17    592.62     24.34
 22.27    587.00     24.23
 22.37    533.00     23.09
 22.47    557.00     23.60
 22.57    586.00     24.21
 22.67    551.00     23.47
 22.77    518.47     22.77
 22.87    549.63     23.44
 22.97    501.00     22.38
 23.07    584.00     24.17
 23.17    576.00     24.00
 23.27    537.00     23.17
 23.37    558.42     23.63
 23.47    535.06     23.13
 23.57    592.10     24.33
 23.67    507.30     22.52
 23.77    550.85     23.47
 23.87    564.00     23.75
 23.97    540.00     23.24
 24.07    550.00     23.45
 24.17    513.00     22.65
 24.27    553.00     23.52
 24.37    577.00     24.02
 24.47    544.00     23.32
 24.57    586.00     24.21
 24.67    578.22     24.05
 24.77    607.00     24.64
 24.87    614.00     24.78
 24.97    592.00     24.33
 25.07    587.00     24.23
 25.17    568.00     23.83
 25.27    545.00     23.35
 25.37    538.00     23.19
 25.47    542.57     23.29
 25.57    581.00     24.10
 25.67    536.14     23.15
 25.77    572.00     23.92
 25.87    550.00     23.45
 25.97    501.48     22.39
 26.07    508.00     22.54
 26.17    565.00     23.77
 26.27    565.00     23.77
 26.37    556.00     23.58
 26.47    562.00     23.71
 26.57    539.00     23.22
 26.67    545.44     23.35
 26.77    516.44     22.73
 26.87    518.00     22.76
 26.97    523.00     22.87
 27.07    536.00     23.15
 27.17    583.00     24.15
 27.27    570.42     23.88
 27.37    599.00     24.47
 27.47    570.00     23.87
 27.57    600.00     24.49
 27.67    566.00     23.79
 27.77    592.24     24.34
 27.87    599.29     24.48
 27.97    671.00     25.90
 28.07    739.00     27.18
 28.17    917.28     30.29
 28.27    980.54     31.31
 28.37    896.00     29.93
 28.47    812.00     28.50
 28.57    750.28     27.39
 28.67    692.00     26.31
 28.77    741.18     27.22
 28.87    818.74     28.61
 28.97    864.14     29.40
 29.07    791.00     28.12
 29.17    725.65     26.94
 29.27    664.16     25.77
 29.37    599.00     24.47
 29.47    591.03     24.31
 29.57    562.00     23.71
 29.67    598.00     24.45
 29.77    603.00     24.56
 29.87    612.00     24.74
 29.97    576.00     24.00
 30.07    519.62     22.80
 30.17    591.00     24.31
 30.27    566.00     23.79
 30.37    563.00     23.73
 30.47    565.00     23.77
 30.57    574.00     23.96
 30.67    554.00     23.54
 30.77    562.38     23.71
 30.87    607.34     24.64
 30.97    590.20     24.29
 31.07    585.00     24.19
 31.17    605.00     24.60
 31.27    520.16     22.81
 31.37    507.00     22.52
 31.47    557.00     23.60
 31.57    529.00     23.00
 31.67    520.79     22.82
 31.77    553.00     23.52
 31.87    541.00     23.26
 31.97    554.00     23.54
 32.07    533.81     23.10
 32.17    499.44     22.35
 32.27    572.00     23.92
 32.37    531.70     23.06
 32.47    513.00     22.65
 32.57    509.95     22.58
 32.67    504.98     22.47
 32.77    503.00     22.43
 32.87    571.00     23.90
 32.97    530.00     23.02
 33.07    580.00     24.08
 33.17    535.00     23.13
 33.27    549.00     23.43
 33.37    517.00     22.74
 33.47    549.37     23.44
 33.57    609.00     24.68
 33.67    640.00     25.30
 33.77    671.00     25.90
 33.87    838.00     28.95
 33.97    968.65     31.12
 34.07   1049.00     32.39
 34.17   1051.00     32.42
 34.27    888.37     29.81
 34.37    764.00     27.64
 34.47    692.00     26.31
 34.57    615.00     24.80
 34.67    579.00     24.06
 34.77    528.80     23.00
 34.87    501.00     22.38
 34.97    568.00     23.83
 35.07    507.00     22.52
 35.17    513.00     22.65
 35.27    507.00     22.52
 35.37    510.00     22.58
 35.47    525.00     22.91
 35.57    511.45     22.62
 35.67    535.00     23.13
 35.77    523.07     22.87
 35.87    528.17     22.98
 35.97    505.75     22.49
 36.07    501.00     22.38
 36.17    542.25     23.29
 36.27    481.00     21.93
 36.37    505.21     22.48
 36.47    500.00     22.36
 36.57    538.48     23.21
 36.67    513.00     22.65
 36.77    549.00     23.43
 36.87    521.81     22.84
 36.97    537.05     23.17
 37.07    468.89     21.65
 37.17    528.11     22.98
 37.27    505.00     22.47
 37.37    483.95     22.00
 37.47    508.00     22.54
 37.57    538.00     23.19
 37.67    528.54     22.99
 37.77    485.00     22.02
 37.87    503.00     22.43
 37.97    549.00     23.43
 38.07    523.69     22.88
 38.17    521.00     22.83
 38.27    549.00     23.43
 38.37    534.00     23.11
 38.47    536.00     23.15
 38.57    477.97     21.86
 38.67    525.66     22.93
 38.77    477.00     21.84
 38.87    503.13     22.43
 38.97    463.37     21.53
 39.07    485.00     22.02
 39.17    518.00     22.76
 39.27    498.73     22.33
 39.37    487.72     22.08
 39.47    541.30     23.27
 39.57    510.00     22.58
 39.67    439.00     20.95
 39.77    502.00     22.41
 39.87    531.00     23.04
 39.97    499.00     22.34
 40.07    459.00     21.42
 40.17    534.16     23.11
 40.27    532.00     23.07
 40.37    534.18     23.11
 40.47    499.78     22.36
 40.57    490.00     22.14
 40.67    448.00     21.17
 40.77    488.50     22.10
 40.87    527.43     22.97
 40.97    506.00     22.49
 41.07    481.34     21.94
 41.17    525.00     22.91
 41.27    464.75     21.56
 41.37    493.00     22.20
 41.47    520.15     22.81
 41.57    528.00     22.98
 41.67    527.00     22.96
 41.77    477.00     21.84
 41.87    467.00     21.61
 41.97    505.00     22.47
 42.07    514.00     22.67
 42.17    513.00     22.65
 42.27    507.82     22.53
 42.37    560.00     23.66
 42.47    527.69     22.97
 42.57    610.91     24.72
 42.67    554.00     23.54
 42.77    596.00     24.41
 42.87    616.27     24.82
 42.97    598.70     24.47
 43.07    525.00     22.91
 43.17    576.73     24.02
 43.27    506.00     22.49
 43.37    501.00     22.38
 43.47    481.78     21.95
 43.57    524.00     22.89
 43.67    525.97     22.93
 43.77    485.48     22.03
 43.87    540.00     23.24
 43.97    511.12     22.61
 44.07    517.78     22.75
 44.17    500.24     22.37
 44.27    531.84     23.06
 44.37    463.99     21.54
 44.47    459.11     21.43
 44.57    524.75     22.91
 44.67    517.92     22.76
 44.77    469.13     21.66
 44.87    482.00     21.95
 44.97    489.97     22.14
 45.07    528.17     22.98
 45.17    448.00     21.17
 45.27    501.00     22.38
 45.37    496.00     22.27
 45.47    502.00     22.41
 45.57    493.00     22.20
 45.67    483.00     21.98
 45.77    513.00     22.65
 45.87    511.00     22.61
 45.97    497.00     22.29
 46.07    485.00     22.02
 46.17    471.00     21.70
 46.27    522.29     22.85
 46.37    477.30     21.85
 46.47    475.00     21.79
 46.57    521.89     22.84
 46.67    517.00     22.74
 46.77    483.00     21.98
 46.87    486.00     22.05
 46.97    504.00     22.45
 47.07    471.00     21.70
 47.17    490.00     22.14
 47.27    509.80     22.58
 47.37    503.00     22.43
 47.47    551.00     23.47
 47.57    542.00     23.28
 47.67    519.00     22.78
 47.77    552.00     23.49
 47.87    588.00     24.25
 47.97    545.00     23.35
 48.07    571.00     23.90
 48.17    556.00     23.58
 48.27    574.00     23.96
 48.37    526.24     22.94
 48.47    522.00     22.85
 48.57    529.00     23.00
 48.67    529.00     23.00
 48.77    547.00     23.39
 48.87    504.60     22.46
 48.97    463.00     21.52
 49.07    520.00     22.80
 49.17    571.97     23.92
 49.27    538.75     23.21
 49.37    552.00     23.49
 49.47    601.70     24.53
 49.57    649.71     25.49
 49.67    742.00     27.24
 49.77    991.00     31.48
 49.87   1313.00     36.24
 49.97   1585.00     39.81
 50.07   1971.00     44.40
 50.17   2298.00     47.94
 50.27   2468.32     49.68
 50.37   2244.64     47.38
 50.47   1984.00     44.54
 50.57   1605.00     40.06
 50.67   1261.00     35.51
 50.77    941.00     30.68
 50.87    736.68     27.14
 50.97    702.00     26.50
 51.07    600.00     24.49
 51.17    574.41     23.97
 51.27    598.20     24.46
 51.37    570.00     23.87
 51.47    556.00     23.58
 51.57    566.63     23.80
 51.67    524.00     22.89
 51.77    501.89     22.40
 51.87    566.12     23.79
 51.97    501.00     22.38
 52.07    558.00     23.62
 52.17    503.82     22.45
 52.27    515.00     22.69
 52.37    567.00     23.81
 52.47    532.39     23.07
 52.57    512.00     22.63
 52.67    575.00     23.98
 52.77    607.10     24.64
 52.87    597.39     24.44
 52.97    645.00     25.40
 53.07    736.00     27.13
 53.17    870.00     29.50
 53.27    996.00     31.56
 53.37   1027.35     32.05
 53.47   1128.00     33.59
 53.57   1250.02     35.36
 53.67   1143.00     33.81
 53.77   1111.00     33.33
 53.87    919.00     30.32
 53.97    827.00     28.76
 54.07    714.00     26.72
 54.17    696.00     26.38
 54.27    658.00     25.65
 54.37    608.17     24.66
 54.47    613.85     24.78
 54.57    592.49     24.34
 54.67    554.55     23.55
 54.77    541.00     23.26
 54.87    575.00     23.98
 54.97    574.14     23.96
 55.07    584.00     24.17
 55.17    562.09     23.71
 55.27    526.96     22.96
 55.37    508.55     22.55
 55.47    596.29     24.42
 55.57    557.00     23.60
 55.67    606.00     24.62
 55.77    597.00     24.43
 55.87    615.00     24.80
 55.97    639.23     25.28
 56.07    670.96     25.90
 56.17    798.00     28.25
 56.27    826.71     28.75
 56.37   1112.26     33.35
 56.47   1289.00     35.90
 56.57   1526.00     39.06
 56.67   1959.00     44.26
 56.77   2286.00     47.81
 56.87   2584.02     50.83
 56.97   2517.00     50.17
 57.07   2504.00     50.04
 57.17   2192.00     46.82
 57.27   1875.00     43.30
 57.37   1557.00     39.46
 57.47   1262.00     35.52
 57.57   1008.00     31.75
 57.67    906.06     30.10
 57.77    768.00     27.71
 57.87    743.32     27.26
 57.97    740.21     27.21
 58.07    676.00     26.00
 58.17    710.00     26.65
 58.27    747.36     27.34
 58.37    750.00     27.39
 58.47    864.00     29.39
 58.57    927.00     30.45
 58.67   1022.54     31.98
 58.77   1164.00     34.12
 58.87   1203.00     34.68
 58.97   1299.26     36.05
 59.07   1344.87     36.67
 59.17   1309.00     36.18
 59.27   1238.00     35.19
 59.37   1331.00     36.48
 59.47   1231.98     35.10
 59.57   1216.00     34.87
 59.67   1097.67     33.13
 59.77   1123.61     33.52
 59.87   1220.87     34.94
 59.97   1356.00     36.82
 60.07   1420.60     37.69
 60.17   1482.04     38.50
 60.27   1488.76     38.58
 60.37   1517.31     38.95
 60.47   1460.55     38.22
 60.57   1317.00     36.29
 60.67   1219.00     34.91
 60.77   1056.00     32.50
 60.87    898.00     29.97
 60.97    773.00     27.80
 61.07    728.00     26.98
 61.17    660.00     25.69
 61.27    617.18     24.84
 61.37    637.32     25.25
 61.47    707.00     26.59
 61.57    748.00     27.35
 61.67    741.00     27.22
 61.77    906.00     30.10
 61.87    983.00     31.35
 61.97   1105.00     33.24
 62.07   1283.97     35.83
 62.17   1365.00     36.95
 62.27   1415.76     37.63
 62.37   1353.00     36.78
 62.47   1229.41     35.06
 62.57   1227.00     35.03
 62.67    985.70     31.40
 62.77    865.00     29.41
 62.87    725.00     26.93
 62.97    632.00     25.14
 63.07    652.00     25.53
 63.17    573.00     23.94
 63.27    623.00     24.96
 63.37    532.00     23.07
 63.47    539.29     23.22
 63.57    554.00     23.54
 63.67    593.00     24.35
 63.77    580.00     24.08
 63.87    646.00     25.42
 63.97    637.00     25.24
 64.07    651.00     25.51
 64.17    756.63     27.51
 64.27    767.96     27.71
 64.37    851.00     29.17
 64.47    947.00     30.77
 64.57    922.00     30.36
 64.67   1035.25     32.18
 64.77   1012.00     31.81
 64.87    939.04     30.64
 64.97    969.00     31.13
 65.07    854.00     29.22
 65.17    854.22     29.23
 65.27    706.00     26.57
 65.37    700.00     26.46
 65.47    644.00     25.38
 65.57    692.39     26.31
 65.67    600.76     24.51
 65.77    585.00     24.19
 65.87    593.00     24.35
 65.97    564.10     23.75
 66.07    562.00     23.71
 66.17    549.17     23.43
 66.27    560.00     23.66
 66.37    561.77     23.70
 66.47    519.00     22.78
 66.57    538.00     23.19
 66.67    563.00     23.73
 66.77    595.92     24.41
 66.87    552.00     23.49
 66.97    595.63     24.41
 67.07    647.05     25.44
 67.17    658.00     25.65
 67.27    754.00     27.46
 67.37    817.00     28.58
 67.47    942.52     30.70
 67.57   1147.00     33.87
 67.67   1352.00     36.77
 67.77   1588.00     39.85
 67.87   1803.13     42.46
 67.97   2172.00     46.60
 68.07   2251.00     47.44
 68.17   2358.00     48.56
 68.27   2266.20     47.60
 68.37   2219.00     47.11
 68.47   2043.26     45.20
 68.57   1795.00     42.37
 68.67   1503.00     38.77
 68.77   1308.00     36.17
 68.87   1094.13     33.08
 68.97    912.00     30.20
 69.07    732.00     27.06
 69.17    778.00     27.89
 69.27    686.04     26.19
 69.37    613.73     24.77
 69.47    657.00     25.63
 69.57    584.00     24.17
 69.67    594.23     24.38
 69.77    536.80     23.17
 69.87    599.00     24.47
 69.97    578.00     24.04
 70.07    577.00     24.02
 70.17    552.00     23.49
 70.27    527.27     22.96
 70.37    575.00     23.98
 70.47    582.00     24.12
 70.57    610.00     24.70
 70.67    618.00     24.86
 70.77    567.00     23.81
 70.87    615.58     24.81
 70.97    652.00     25.53
 71.07    657.10     25.63
 71.17    672.00     25.92
 71.27    762.00     27.60
 71.37    945.06     30.74
 71.47   1049.96     32.40
 71.57   1205.57     34.72
 71.67   1316.00     36.28
 71.77   1469.21     38.33
 71.87   1624.10     40.30
 71.97   1795.00     42.37
 72.07   1823.00     42.70
 72.17   1877.00     43.32
 72.27   1867.00     43.21
 72.37   1674.16     40.92
 72.47   1509.42     38.85
 72.57   1399.00     37.40
 72.67   1227.00     35.03
 72.77   1116.09     33.41
 72.87    918.53     30.31
 72.97    841.21     29.00
 73.07    804.00     28.35
 73.17    723.00     26.89
 73.27    692.00     26.31
 73.37    639.00     25.28
 73.47    659.00     25.67
 73.57    625.00     25.00
 73.67    575.97     24.00
 73.77    559.00     23.64
 73.87    591.07     24.31
 73.97    587.00     24.23
 74.07    637.00     25.24
 74.17    613.26     24.76
 74.27    640.00     25.30
 74.37    596.68     24.43
 74.47    636.00     25.22
 74.57    545.07     23.35
 74.67    598.36     24.46
 74.77    616.00     24.82
 74.87    632.00     25.14
 74.97    672.00     25.92
 75.07    604.54     24.59
 75.17    602.00     24.54
 75.27    589.00     24.27
 75.37    599.00     24.47
 75.47    568.31     23.84
 75.57    612.00     24.74
 75.67    535.00     23.13
 75.77    571.84     23.91
 75.87    593.90     24.37
 75.97    586.91     24.23
 76.07    595.00     24.39
 76.17    674.00     25.96
 76.27    657.98     25.65
 76.37    679.00     26.06
 76.47    706.47     26.58
 76.57    709.00     26.63
 76.67    680.00     26.08
 76.77    725.00     26.93
 76.87    670.00     25.88
 76.97    676.96     26.02
 77.07    654.00     25.57
 77.17    610.00     24.70
 77.27    574.26     23.96
 77.37    593.00     24.35
 77.47    566.76     23.81
 77.57    591.13     24.31
 77.67    501.00     22.38
 77.77    509.00     22.56
 77.87    502.45     22.42
 77.97    482.00     21.95
 78.07    499.60     22.35
 78.17    545.97     23.37
 78.27    520.43     22.81
 78.37    527.14     22.96
 78.47    511.00     22.61
 78.57    527.00     22.96
 78.67    477.00     21.84
 78.77    499.00     22.34
 78.87    517.00     22.74
 78.97    527.12     22.96
 79.07    494.74     22.24
 79.17    509.00     22.56
 79.27    517.00     22.74
 79.37    495.62     22.26
 79.47    550.00     23.45
 79.57    546.69     23.38
 79.67    540.00     23.24
 79.77    485.00     22.02
 79.87    565.00     23.77
 79.97    549.03     23.43
 80.07    535.12     23.13
 80.17    530.00     23.02
 80.27    520.00     22.80
 80.37    548.00     23.41
 80.47    579.00     24.06
 80.57    589.00     24.27
 80.67    559.00     23.64
 80.77    603.00     24.56
 80.87    630.00     25.10
 80.97    695.65     26.38
 81.07    746.59     27.32
 81.17    714.71     26.73
 81.27    766.42     27.68
 81.37    700.00     26.46
 81.47    727.96     26.98
 81.57    793.00     28.16
 81.67    790.00     28.11
 81.77    764.00     27.64
 81.87    726.25     26.95
 81.97    769.00     27.73
 82.07    690.00     26.27
 82.17    673.00     25.94
 82.27    675.00     25.98
 82.37    633.00     25.16
 82.47    603.00     24.56
 82.57    569.55     23.87
 82.67    581.00     24.10
 82.77    567.84     23.83
 82.87    564.00     23.75
 82.97    562.00     23.71
 83.07    585.50     24.20
 83.17    548.25     23.41
 83.27    541.20     23.26
 83.37    531.00     23.04
 83.47    540.00     23.24
 83.57    536.00     23.15
 83.67    564.37     23.76
 83.77    534.00     23.11
 83.87    527.00     22.96
 83.97    539.00     23.22
 84.07    567.00     23.81
 84.17    557.00     23.60
 84.27    580.00     24.08
 84.37    525.00     22.91
 84.47    540.00     23.24
 84.57    515.51     22.70
 84.67    560.00     23.66
 84.77    571.00     23.90
 84.87    557.96     23.62
 84.97    500.92     22.38
 85.07    546.00     23.37
 85.17    560.00     23.66
 85.27    525.00     22.91
 85.37    534.00     23.11
 85.47    523.17     22.87
 85.57    518.00     22.76
 85.67    528.75     22.99
 85.77    545.00     23.35
 85.87    506.32     22.50
 85.97    510.00     22.58
 86.07    524.86     22.91
 86.17    484.00     22.00
 86.27    553.00     23.52
 86.37    529.40     23.01
 86.47    508.00     22.54
 86.57    515.00     22.69
 86.67    524.00     22.89
 86.77    547.00     23.39
 86.87    571.00     23.90
 86.97    602.00     24.54
 87.07    604.00     24.58
 87.17    627.00     25.04
 87.27    636.30     25.22
 87.37    600.00     24.49
 87.47    595.00     24.39
 87.57    650.00     25.50
 87.67    679.00     26.06
 87.77    601.00     24.52
 87.87    594.00     24.37
 87.97    603.02     24.56
 88.07    579.31     24.07
 88.17    571.44     23.90
 88.27    579.88     24.08
 88.37    586.00     24.21
 88.47    558.00     23.62
 88.57    550.50     23.46
 88.67    548.00     23.41
 88.77    557.00     23.60
 88.87    520.93     22.82
 88.97    551.00     23.47
 89.07    615.00     24.80
 89.17    542.00     23.28
 89.27    541.41     23.27
 89.37    555.00     23.56
 89.47    568.68     23.85
 89.57    569.00     23.85
 89.67    628.47     25.07
 89.77    553.56     23.53
 89.87    573.00     23.94
 89.97    536.00     23.15
 90.07    557.00     23.60
 90.17    572.71     23.93
 90.27    517.00     22.74
 90.37    498.00     22.32
 90.47    493.00     22.20
 90.57    512.00     22.63
 90.67    533.73     23.10
 90.77    472.00     21.73
 90.87    496.79     22.29
 90.97    525.00     22.91
 91.07    512.87     22.65
 91.17    478.00     21.86
 91.27    513.00     22.65
 91.37    495.12     22.25
 91.47    514.00     22.67
 91.57    548.00     23.41
 91.67    505.00     22.47
 91.77    512.00     22.63
 91.87    546.08     23.37
 91.97    513.00     22.65
 92.07    519.00     22.78
 92.17    551.00     23.47
 92.27    522.62     22.86
 92.37    575.58     23.99
 92.47    639.00     25.28
 92.57    617.00     24.84
 92.67    620.00     24.90
 92.77    656.00     25.61
 92.87    683.66     26.15
 92.97    674.20     25.97
 93.07    690.00     26.27
 93.17    699.00     26.44
 93.27    777.00     27.87
 93.37    726.00     26.94
 93.47    784.00     28.00
 93.57    856.00     29.26
 93.67    793.01     28.16
 93.77    758.00     27.53
 93.87    831.00     28.83
 93.97    765.14     27.66
 94.07    835.00     28.90
 94.17    835.00     28.90
 94.27    832.00     28.84
 94.37    832.00     28.84
 94.47    913.00     30.22
 94.57    876.00     29.60
 94.67    881.00     29.68
 94.77    907.00     30.12
 94.87    848.00     29.12
 94.97    886.00     29.77
 95.07    827.00     28.76
 95.17    884.00     29.73
 95.27    845.00     29.07
 95.37    882.00     29.70
 95.47    842.00     29.02
 95.57    784.00     28.00
 95.67    723.92     26.91
 95.77    741.00     27.22
 95.87    722.00     26.87
 95.97    685.00     26.17
 96.07    688.52     26.24
 96.17    748.00     27.35
 96.27    679.00     26.06
 96.37    772.00     27.78
 96.47    740.79     27.22
 96.57    825.00     28.72
 96.67    904.77     30.08
 96.77    967.00     31.10
 96.87   1037.00     32.20
 96.97   1055.00     32.48
 97.07   1167.84     34.17
 97.17   1214.92     34.86
 97.27   1269.00     35.62
 97.37   1306.50     36.15
 97.47   1405.00     37.48
 97.57   1407.00     37.51
 97.67   1441.00     37.96
 97.77   1464.00     38.26
 97.87   1342.45     36.64
 97.97   1404.00     37.47
 98.07   1305.00     36.12
 98.17   1217.95     34.90
 98.27   1174.00     34.26
 98.37   1067.50     32.67
 98.47   1101.00     33.18
 98.57    997.00     31.58
 98.67    926.00     30.43
 98.77    853.00     29.21
 98.87    840.00     28.98
 98.97    841.80     29.01
 99.07    808.00     28.43
 99.17    849.00     29.14
 99.27    872.00     29.53
 99.37    938.00     30.63
 99.47    953.00     30.87
 99.57   1032.32     32.13
 99.67   1073.00     32.76
 99.77   1145.85     33.85
 99.87   1252.00     35.38
 99.97   1383.00     37.19
100.07   1480.00     38.47
100.17   1578.00     39.72
100.27   1726.00     41.55
100.37   1697.89     41.21
100.47   1926.91     43.90
100.57   1942.00     44.07
100.67   1978.64     44.48
100.77   1988.00     44.59
100.87   1955.76     44.22
100.97   1992.00     44.63
101.07   1972.00     44.41
101.17   1998.11     44.70
101.27   1878.67     43.34
101.37   1736.77     41.67
101.47   1651.22     40.64
101.57   1646.04     40.57
101.67   1531.98     39.14
101.77   1421.00     37.70
101.87   1380.00     37.15
101.97   1450.00     38.08
102.07   1260.00     35.50
102.17   1293.00     35.96
102.27   1189.00     34.48
102.37   1163.00     34.10
102.47   1231.00     35.09
102.57   1158.00     34.03
102.67   1131.00     33.63
102.77   1080.00     32.86
102.87   1027.81     32.06
102.97   1030.00     32.09
103.07   1028.00     32.06
103.17   1003.00     31.67
103.27    936.02     30.59
103.37    889.32     29.82
103.47    791.95     28.14
103.57    790.13     28.11
103.67    795.00     28.20
103.77    723.93     26.91
103.87    676.91     26.02
103.97    612.18     24.74
104.07    622.00     24.94
104.17    651.00     25.51
104.27    637.00     25.24
104.37    562.00     23.71
104.47    544.00     23.32
104.57    549.00     23.43
104.67    566.90     23.81
104.77    542.00     23.28
104.87    512.00     22.63
104.97    555.14     23.56
105.07    481.04     21.93
105.17    537.00     23.17
105.27    542.55     23.29
105.37    513.00     22.65
105.47    588.00     24.25
105.57    538.09     23.20
105.67    519.00     22.78
105.77    549.00     23.43
105.87    542.22     23.29
105.97    498.47     22.33
106.07    556.00     23.58
106.17    577.56     24.03
106.27    586.72     24.22
106.37    621.00     24.92
106.47    583.00     24.15
106.57    616.00     24.82
106.67    588.00     24.25
106.77    598.65     24.47
106.87    650.22     25.50
106.97    627.00     25.04
107.07    653.00     25.55
107.17    657.00     25.63
107.27    637.00     25.24
107.37    634.00     25.18
107.47    652.00     25.53
107.57    661.44     25.72
107.67    674.00     25.96
107.77    704.00     26.53
107.87    665.00     25.79
107.97    678.00     26.04
108.07    711.00     26.66
108.17    653.00     25.55
108.27    693.85     26.34
108.37    663.00     25.75
108.47    672.41     25.93
108.57    660.00     25.69
108.67    692.89     26.32
108.77    740.00     27.20
108.87    648.37     25.46
108.97    716.00     26.76
109.07    677.00     26.02
109.17    645.00     25.40
109.27    730.00     27.02
109.37    681.24     26.10
109.47    713.00     26.70
109.57    685.00     26.17
109.67    602.52     24.55
109.77    603.01     24.56
109.87    606.91     24.64
109.97    600.00     24.49
110.07    632.00     25.14
110.17    598.00     24.45
110.27    578.00     24.04
110.37    594.00     24.37
110.47    575.87     24.00
110.57    584.13     24.17
110.67    554.56     23.55
110.77    578.00     24.04
110.87    544.00     23.32
110.97    531.00     23.04
111.07    551.00     23.47
111.17    578.77     24.06
111.27    564.23     23.75
111.37    564.29     23.75
111.47    562.60     23.72
111.57    569.00     23.85
111.67    533.76     23.10
111.77    548.00     23.41
111.87    570.00     23.87
111.97    535.00     23.13
112.07    512.00     22.63
112.17    559.00     23.64
112.27    518.00     22.76
112.37    561.00     23.69
112.47    548.00     23.41
112.57    549.00     23.43
112.67    576.67     24.01
112.77    645.36     25.40
112.87    625.32     25.01
112.97    640.52     25.31
113.07    591.00     24.31
113.17    620.00     24.90
113.27    629.34     25.09
113.37    638.00     25.26
113.47    640.72     25.31
113.57    658.00     25.65
113.67    688.00     26.23
113.77    758.45     27.54
113.87    725.00     26.93
113.97    790.00     28.11
114.07    753.00     27.44
114.17    884.89     29.75
114.27    921.04     30.35
114.37   1002.03     31.65
114.47   1065.53     32.64
114.57   1068.92     32.69
114.67   1174.08     34.26
114.77   1376.86     37.11
114.87   1560.34     39.50
114.97   1753.00     41.87
115.07   1838.88     42.88
115.17   2145.00     46.31
115.27   2528.00     50.28
115.37   2657.18     51.55
115.47   2847.00     53.36
115.57   3225.00     56.79
115.67   3637.00     60.31
115.77   3867.00     62.19
115.87   4455.44     66.75
115.97   4659.00     68.26
116.07   4988.00     70.63
116.17   5540.43     74.43
116.27   5544.00     74.46
116.37   6168.00     78.54
116.47   6539.00     80.86
116.57   6475.00     80.47
116.67   6675.73     81.71
116.77   6718.11     81.96
116.87   6802.00     82.47
116.97   6798.00     82.45
117.07   6689.00     81.79
117.17   6410.00     80.06
117.27   6225.00     78.90
117.37   5825.00     76.32
117.47   5391.00     73.42
117.57   5196.00     72.08
117.67   4752.00     68.93
117.77   4436.89     66.61
117.87   4245.00     65.15
117.97   3773.50     61.43
118.07   3390.05     58.22
118.17   3278.00     57.25
118.27   2739.25     52.34
118.37   2602.00     51.01
118.47   2207.00     46.98
118.57   2019.31     44.94
118.67   1880.00     43.36
118.77   1596.60     39.96
118.87   1457.00     38.17
118.97   1301.00     36.07
119.07   1154.61     33.98
119.17   1059.60     32.55
119.27   1014.33     31.85
119.37    912.00     30.20
119.47    869.00     29.48
119.57    776.20     27.86
119.67    759.42     27.56
119.77    768.00     27.71
119.87    744.00     27.28
119.97    689.00     26.25
120.07    688.62     26.24
120.17    666.57     25.82
120.27    609.64     24.69
120.37    625.21     25.00
120.47    583.00     24.15
120.57    608.00     24.66
120.67    553.00     23.52
120.77    581.00     24.10
120.87    605.00     24.60
120.97    594.44     24.38
121.07    547.00     23.39
121.17    611.00     24.72
121.27    565.00     23.77
121.37    616.00     24.82
121.47    595.17     24.40
121.57    588.00     24.25
121.67    549.66     23.44
121.77    611.31     24.72
121.87    550.00     23.45
121.97    586.00     24.21
122.07    641.49     25.33
122.17    580.41     24.09
122.27    617.00     24.84
122.37    593.25     24.36
122.47    590.83     24.31
122.57    624.00     24.98
122.67    640.13     25.30
122.77    585.00     24.19
122.87    691.00     26.29
122.97    668.89     25.86
123.07    681.92     26.11
123.17    640.00     25.30
123.27    654.00     25.57
123.37    663.98     25.77
123.47    622.00     24.94
123.57    582.00     24.12
123.67    663.00     25.75
123.77    631.00     25.12
123.87    660.00     25.69
123.97    640.00     25.30
124.07    636.27     25.22
124.17    626.22     25.02
124.27    573.00     23.94
124.37    584.00     24.17
124.47    628.00     25.06
124.57    642.00     25.34
124.67    632.00     25.14
124.77    619.00     24.88
124.87    582.00     24.12
124.97    553.00     23.52
