XYDATA



INTER 1.0 1.0 0 0
TEMP 1074.1
  9.97    592.00     24.33
 10.07    604.41     24.58
 10.17    539.75     23.23
 10.27    575.00     23.98
 10.37    531.10     23.05
 10.47    559.76     23.66
 10.57    580.00     24.08
 10.67    533.59     23.10
 10.77    616.00     24.82
 10.87    618.17     24.86
 10.97    604.00     24.58
 11.07    585.00     24.19
 11.17    608.76     24.67
 11.27    539.92     23.24
 11.37    584.73     24.18
 11.47    596.00     24.41
 11.57    561.18     23.69
 11.67    622.00     24.94
 11.77    607.83     24.65
 11.87    656.00     25.61
 11.97    660.00     25.69
 12.07    641.00     25.32
 12.17    647.00     25.44
 12.27    713.00     26.70
 12.37    721.54     26.86
 12.47    580.00     24.08
 12.57    618.00     24.86
 12.67    573.00     23.94
 12.77    618.69     24.87
 12.87    595.76     24.41
 12.97    515.00     22.69
 13.07    559.72     23.66
 13.17    533.05     23.09
 13.27    564.00     23.75
 13.37    567.36     23.82
 13.47    526.00     22.93
 13.57    565.00     23.77
 13.67    575.88     24.00
 13.77    537.10     23.18
 13.87    565.51     23.78
 13.97    563.00     23.73
 14.07    561.00     23.69
 14.17    579.00     24.06
 14.27    537.00     23.17
 14.37    596.16     24.42
 14.47    559.00     23.64
 14.57    606.19     24.62
 14.67    579.00     24.06
 14.77    584.00     24.17
 14.87    570.00     23.87
 14.97    533.00     23.09
 15.07    500.00     22.36
 15.17    553.00     23.52
 15.27    613.17     24.76
 15.37    557.00     23.60
 15.47    568.01     23.83
 15.57    584.00     24.17
 15.67    588.58     24.26
 15.77    568.00     23.83
 15.87    595.66     24.41
 15.97    600.41     24.50
 16.07    510.00     22.58
 16.17    554.19     23.54
 16.27    520.26     22.81
 16.37    567.00     23.81
 16.47    574.00     23.96
 16.57    544.00     23.32
 16.67    539.00     23.22
 16.77    558.00     23.62
 16.87    564.45     23.76
 16.97    563.00     23.73
 17.07    561.38     23.69
 17.17    557.30     23.61
 17.27    589.00     24.27
 17.37    593.00     24.35
 17.47    550.50     23.46
 17.57    568.45     23.84
 17.67    579.00     24.06
 17.77    556.00     23.58
 17.87    566.00     23.79
 17.97    559.00     23.64
 18.07    610.00     24.70
 18.17    521.76     22.84
 18.27    576.00     24.00
 18.37    549.30     23.44
 18.47    556.17     23.58
 18.57    571.43     23.90
 18.67    521.00     22.83
 18.77    592.00     24.33
 18.87    555.00     23.56
 18.97    610.71     24.71
 19.07    504.00     22.45
 19.17    554.00     23.54
 19.27    587.00     24.23
 19.37    591.03     24.31
 19.47    550.00     23.45
 19.57    525.00     22.91
 19.67    520.00     22.80
 19.77    553.00     23.52
 19.87    542.57     23.29
 19.97    590.31     24.30
 20.07    558.00     23.62
 20.17    547.01     23.39
 20.27    553.00     23.52
 20.37    544.00     23.32
 20.47    540.00     23.24
 20.57    570.00     23.87
 20.67    588.00     24.25
 20.77    509.20     22.57
 20.87    569.57     23.87
 20.97    571.00     23.90
 21.07    565.00     23.77
 21.17    562.71     23.72
 21.27    541.00     23.26
 21.37    522.55     22.86
 21.47    507.67     22.53
 21.57    549.84     23.45
 21.67    552.00     23.49
 21.77    544.08     23.33
 21.87    589.00     24.27
 21.97    582.56     24.14
 22.07    508.02     22.54
 22.17    543.00     23.30
 22.27    564.42     23.76
 22.37    535.16     23.13
 22.47    582.92     24.14
 22.57    549.00     23.43
 22.67    530.00     23.02
 22.77    539.61     23.23
 22.87    565.00     23.77
 22.97    586.00     24.21
 23.07    576.00     24.00
 23.17    547.00     23.39
 23.27    543.00     23.30
 23.37    534.00     23.11
 23.47    533.00     23.09
 23.57    545.00     23.35
 23.67    561.00     23.69
 23.77    589.00     24.27
 23.87    551.00     23.47
 23.97    564.00     23.75
 24.07    589.00     24.27
 24.17    535.59     23.14
 24.27    602.00     24.54
 24.37    570.78     23.89
 24.47    615.00     24.80
 24.57    647.36     25.44
 24.67    562.00     23.71
 24.77    672.00     25.92
 24.87    637.00     25.24
 24.97    571.00     23.90
 25.07    567.94     23.83
 25.17    576.00     24.00
 25.27    589.00     24.27
 25.37    595.00     24.39
 25.47    535.00     23.13
 25.57    539.00     23.22
 25.67    562.00     23.71
 25.77    575.00     23.98
 25.87    521.00     22.83
 25.97    511.00     22.61
 26.07    550.00     23.45
 26.17    553.00     23.52
 26.27    575.00     23.98
 26.37    589.92     24.29
 26.47    569.00     23.85
 26.57    501.00     22.38
 26.67    591.92     24.33
 26.77    570.00     23.87
 26.87    540.00     23.24
 26.97    530.00     23.02
 27.07    569.00     23.85
 27.17    543.00     23.30
 27.27    531.28     23.05
 27.37    499.32     22.35
 27.47    544.00     23.32
 27.57    557.00     23.60
 27.67    571.83     23.91
 27.77    571.00     23.90
 27.87    602.00     24.54
 27.97    689.00     26.25
 28.07    795.00     28.20
 28.17    842.00     29.02
 28.27    992.00     31.50
 28.37    936.66     30.60
 28.47    826.80     28.75
 28.57    700.00     26.46
 28.67    692.00     26.31
 28.77    704.12     26.54
 28.87    759.00     27.55
 28.97    805.00     28.37
 29.07    771.00     27.77
 29.17    687.00     26.21
 29.27    649.00     25.48
 29.37    635.00     25.20
 29.47    611.00     24.72
 29.57    589.00     24.27
 29.67    599.00     24.47
 29.77    532.46     23.08
 29.87    598.82     24.47
 29.97    572.84     23.93
 30.07    518.61     22.77
 30.17    567.60     23.82
 30.27    527.00     22.96
 30.37    573.52     23.95
 30.47    584.42     24.17
 30.57    590.37     24.30
 30.67    548.00     23.41
 30.77    596.00     24.41
 30.87    584.78     24.18
 30.97    611.63     24.73
 31.07    591.00     24.31
 31.17    576.92     24.02
 31.27    613.18     24.76
 31.37    586.00     24.21
 31.47    518.09     22.76
 31.57    549.00     23.43
 31.67    580.30     24.09
 31.77    566.00     23.79
 31.87    521.00     22.83
 31.97    529.00     23.00
 32.07    579.00     24.06
 32.17    538.00     23.19
 32.27    565.00     23.77
 32.37    547.30     23.39
 32.47    559.00     23.64
 32.57    539.31     23.22
 32.67    570.00     23.87
 32.77    562.68     23.72
 32.87    567.00     23.81
 32.97    546.00     23.37
 33.07    571.00     23.90
 33.17    596.00     24.41
 33.27    540.00     23.24
 33.37    601.00     24.52
 33.47    561.00     23.69
 33.57    598.00     24.45
 33.67    678.00     26.04
 33.77    770.00     27.75
 33.87    919.00     30.32
 33.97   1105.00     33.24
 34.07   1040.00     32.25
 34.17    990.28     31.47
 34.27    823.00     28.69
 34.37    784.00     28.00
 34.47    663.28     25.75
 34.57    591.00     24.31
 34.67    537.52     23.18
 34.77    534.00     23.11
 34.87    499.37     22.35
 34.97    536.00     23.15
 35.07    529.00     23.00
 35.17    567.00     23.81
 35.27    476.00     21.82
 35.37    498.00     22.32
 35.47    520.00     22.80
 35.57    496.12     22.27
 35.67    527.70     22.97
 35.77    549.61     23.44
 35.87    512.00     22.63
 35.97    504.00     22.45
 36.07    557.00     23.60
 36.17    509.00     22.56
 36.27    482.00     21.95
 36.37    525.00     22.91
 36.47    551.54     23.48
 36.57    495.00     22.25
 36.67    531.00     23.04
 36.77    560.57     23.68
 36.87    565.00     23.77
 36.97    543.00     23.30
 37.07    516.00     22.72
 37.17    481.95     21.95
 37.27    497.00     22.29
 37.37    494.00     22.23
 37.47    516.00     22.72
 37.57    523.00     22.87
 37.67    501.86     22.40
 37.77    529.00     23.00
 37.87    569.95     23.87
 37.97    536.00     23.15
 38.07    558.56     23.63
 38.17    496.00     22.27
 38.27    533.00     23.09
 38.37    470.00     21.68
 38.47    477.80     21.86
 38.57    487.00     22.07
 38.67    478.00     21.86
 38.77    491.00     22.16
 38.87    499.48     22.35
 38.97    520.00     22.80
 39.07    477.76     21.86
 39.17    504.00     22.45
 39.27    519.00     22.78
 39.37    553.43     23.53
 39.47    495.00     22.25
 39.57    521.00     22.83
 39.67    483.00     21.98
 39.77    528.00     22.98
 39.87    503.00     22.43
 39.97    476.69     21.83
 40.07    498.00     22.32
 40.17    503.35     22.44
 40.27    497.00     22.29
 40.37    441.00     21.00
 40.47    497.42     22.30
 40.57    489.00     22.11
 40.67    503.00     22.43
 40.77    519.00     22.78
 40.87    485.00     22.02
 40.97    467.20     21.61
 41.07    505.00     22.47
 41.17    472.00     21.73
 41.27    515.00     22.69
 41.37    526.00     22.93
 41.47    518.00     22.76
 41.57    487.00     22.07
 41.67    510.47     22.59
 41.77    536.54     23.16
 41.87    479.00     21.89
 41.97    489.22     22.12
 42.07    475.00     21.79
 42.17    531.00     23.04
 42.27    521.00     22.83
 42.37    524.54     22.90
 42.47    555.00     23.56
 42.57    619.00     24.88
 42.67    637.54     25.25
 42.77    576.00     24.00
 42.87    576.80     24.02
 42.97    571.00     23.90
 43.07    558.20     23.63
 43.17    495.00     22.25
 43.27    568.88     23.85
 43.37    499.88     22.36
 43.47    496.00     22.27
 43.57    514.00     22.67
 43.67    554.74     23.55
 43.77    510.00     22.58
 43.87    529.00     23.00
 43.97    510.00     22.58
 44.07    475.61     21.81
 44.17    485.00     22.02
 44.27    534.21     23.11
 44.37    536.00     23.15
 44.47    473.15     21.75
 44.57    503.58     22.44
 44.67    503.00     22.43
 44.77    498.56     22.33
 44.87    550.24     23.46
 44.97    464.27     21.55
 45.07    472.85     21.75
 45.17    533.00     23.09
 45.27    513.00     22.65
 45.37    486.94     22.07
 45.47    551.00     23.47
 45.57    498.00     22.32
 45.67    505.86     22.49
 45.77    483.00     21.98
 45.87    505.00     22.47
 45.97    492.60     22.19
 46.07    523.00     22.87
 46.17    482.22     21.96
 46.27    488.04     22.09
 46.37    509.00     22.56
 46.47    527.00     22.96
 46.57    484.00     22.00
 46.67    540.00     23.24
 46.77    518.00     22.76
 46.87    509.00     22.56
 46.97    500.20     22.37
 47.07    514.00     22.67
 47.17    512.00     22.63
 47.27    548.00     23.41
 47.37    494.00     22.23
 47.47    521.88     22.84
 47.57    564.00     23.75
 47.67    595.00     24.39
 47.77    650.00     25.50
 47.87    599.00     24.47
 47.97    608.60     24.67
 48.07    601.67     24.53
 48.17    596.00     24.41
 48.27    550.00     23.45
 48.37    512.54     22.64
 48.47    562.77     23.72
 48.57    535.61     23.14
 48.67    518.00     22.76
 48.77    540.00     23.24
 48.87    508.00     22.54
 48.97    590.82     24.31
 49.07    604.00     24.58
 49.17    575.80     24.00
 49.27    631.00     25.12
 49.37    666.75     25.82
 49.47    654.93     25.59
 49.57    815.82     28.56
 49.67    888.98     29.82
 49.77   1125.19     33.54
 49.87   1444.00     38.00
 49.97   1851.00     43.02
 50.07   2201.90     46.92
 50.17   2522.00     50.22
 50.27   2525.00     50.25
 50.37   2372.00     48.70
 50.47   1954.00     44.20
 50.57   1450.00     38.08
 50.67   1099.00     33.15
 50.77    824.30     28.71
 50.87    720.00     26.83
 50.97    653.00     25.55
 51.07    635.00     25.20
 51.17    658.00     25.65
 51.27    658.00     25.65
 51.37    545.00     23.35
 51.47    516.80     22.73
 51.57    556.04     23.58
 51.67    535.00     23.13
 51.77    574.00     23.96
 51.87    577.23     24.03
 51.97    514.83     22.69
 52.07    486.70     22.06
 52.17    533.00     23.09
 52.27    553.00     23.52
 52.37    499.78     22.36
 52.47    549.00     23.43
 52.57    583.11     24.15
 52.67    553.00     23.52
 52.77    580.00     24.08
 52.87    663.00     25.75
 52.97    655.15     25.60
 53.07    852.00     29.19
 53.17    945.00     30.74
 53.27    967.72     31.11
 53.37   1132.00     33.65
 53.47   1140.49     33.77
 53.57   1167.00     34.16
 53.67   1055.00     32.48
 53.77   1015.00     31.86
 53.87    881.00     29.68
 53.97    712.27     26.69
 54.07    674.96     25.98
 54.17    641.00     25.32
 54.27    550.34     23.46
 54.37    575.51     23.99
 54.47    584.00     24.17
 54.57    570.00     23.87
 54.67    552.00     23.49
 54.77    567.00     23.81
 54.87    580.00     24.08
 54.97    566.95     23.81
 55.07    584.89     24.18
 55.17    531.06     23.04
 55.27    516.48     22.73
 55.37    577.32     24.03
 55.47    625.00     25.00
 55.57    581.00     24.10
 55.67    542.00     23.28
 55.77    530.19     23.03
 55.87    576.00     24.00
 55.97    605.68     24.61
 56.07    660.00     25.69
 56.17    714.00     26.72
 56.27    889.00     29.82
 56.37   1140.00     33.76
 56.47   1374.51     37.07
 56.57   1772.72     42.10
 56.67   2047.00     45.24
 56.77   2467.00     49.67
 56.87   2659.00     51.57
 56.97   2637.39     51.36
 57.07   2413.00     49.12
 57.17   2036.00     45.12
 57.27   1634.00     40.42
 57.37   1225.52     35.01
 57.47    996.00     31.56
 57.57    893.24     29.89
 57.67    768.69     27.73
 57.77    762.00     27.60
 57.87    699.00     26.44
 57.97    647.00     25.44
 58.07    672.00     25.92
 58.17    660.00     25.69
 58.27    732.97     27.07
 58.37    874.06     29.56
 58.47    973.00     31.19
 58.57   1066.68     32.66
 58.67   1284.00     35.83
 58.77   1436.62     37.90
 58.87   1435.00     37.88
 58.97   1553.00     39.41
 59.07   1619.00     40.24
 59.17   1649.00     40.61
 59.27   1485.00     38.54
 59.37   1426.00     37.76
 59.47   1295.00     35.99
 59.57   1168.34     34.18
 59.67   1181.28     34.37
 59.77   1073.48     32.76
 59.87   1180.00     34.35
 59.97   1255.27     35.43
 60.07   1441.00     37.96
 60.17   1567.00     39.59
 60.27   1561.00     39.51
 60.37   1615.00     40.19
 60.47   1397.00     37.38
 60.57   1284.00     35.83
 60.67   1092.10     33.05
 60.77    875.00     29.58
 60.87    765.00     27.66
 60.97    655.00     25.59
 61.07    650.00     25.50
 61.17    634.99     25.20
 61.27    626.00     25.02
 61.37    638.00     25.26
 61.47    665.34     25.79
 61.57    749.00     27.37
 61.67    846.00     29.09
 61.77    942.37     30.70
 61.87   1071.00     32.73
 61.97   1217.00     34.89
 62.07   1354.00     36.80
 62.17   1367.45     36.98
 62.27   1348.00     36.72
 62.37   1246.00     35.30
 62.47   1160.00     34.06
 62.57   1012.47     31.82
 62.67    924.00     30.40
 62.77    743.71     27.27
 62.87    720.65     26.84
 62.97    697.00     26.40
 63.07    592.00     24.33
 63.17    586.07     24.21
 63.27    525.34     22.92
 63.37    570.00     23.87
 63.47    596.00     24.41
 63.57    616.00     24.82
 63.67    588.42     24.26
 63.77    606.00     24.62
 63.87    597.00     24.43
 63.97    644.75     25.39
 64.07    661.76     25.72
 64.17    785.00     28.02
 64.27    861.06     29.34
 64.37    889.79     29.83
 64.47   1020.00     31.94
 64.57    984.00     31.37
 64.67   1031.00     32.11
 64.77   1065.94     32.65
 64.87    956.00     30.92
 64.97    889.70     29.83
 65.07    835.55     28.91
 65.17    802.70     28.33
 65.27    736.00     27.13
 65.37    667.00     25.83
 65.47    617.48     24.85
 65.57    607.00     24.64
 65.67    591.61     24.32
 65.77    561.00     23.69
 65.87    593.35     24.36
 65.97    540.00     23.24
 66.07    542.00     23.28
 66.17    520.00     22.80
 66.27    544.00     23.32
 66.37    540.32     23.24
 66.47    538.88     23.21
 66.57    560.27     23.67
 66.67    596.00     24.41
 66.77    603.00     24.56
 66.87    565.86     23.79
 66.97    601.79     24.53
 67.07    619.00     24.88
 67.17    654.00     25.57
 67.27    801.00     28.30
 67.37    862.52     29.37
 67.47   1054.00     32.47
 67.57   1262.00     35.52
 67.67   1479.00     38.46
 67.77   1750.00     41.83
 67.87   2134.00     46.20
 67.97   2266.51     47.61
 68.07   2414.00     49.13
 68.17   2348.00     48.46
 68.27   2175.84     46.65
 68.37   2120.18     46.05
 68.47   1883.00     43.39
 68.57   1530.00     39.12
 68.67   1236.00     35.16
 68.77   1018.00     31.91
 68.87    879.00     29.65
 68.97    753.00     27.44
 69.07    637.57     25.25
 69.17    705.00     26.55
 69.27    652.00     25.53
 69.37    614.59     24.79
 69.47    576.00     24.00
 69.57    599.00     24.47
 69.67    609.21     24.68
 69.77    595.00     24.39
 69.87    588.00     24.25
 69.97    570.00     23.87
 70.07    597.00     24.43
 70.17    569.00     23.85
 70.27    501.00     22.38
 70.37    518.66     22.77
 70.47    600.00     24.49
 70.57    574.55     23.97
 70.67    540.79     23.25
 70.77    586.00     24.21
 70.87    564.66     23.76
 70.97    577.00     24.02
 71.07    608.00     24.66
 71.17    720.26     26.84
 71.27    814.00     28.53
 71.37    915.00     30.25
 71.47   1061.00     32.57
 71.57   1291.00     35.93
 71.67   1424.87     37.75
 71.77   1617.00     40.21
 71.87   1811.63     42.56
 71.97   1917.49     43.79
 72.07   1960.00     44.27
 72.17   1915.00     43.76
 72.27   1832.00     42.80
 72.37   1764.00     42.00
 72.47   1551.42     39.39
 72.57   1330.00     36.47
 72.67   1273.77     35.69
 72.77   1082.00     32.89
 72.87   1033.54     32.15
 72.97    934.03     30.56
 73.07    807.00     28.41
 73.17    784.30     28.01
 73.27    766.92     27.69
 73.37    692.00     26.31
 73.47    710.56     26.66
 73.57    660.29     25.70
 73.67    625.00     25.00
 73.77    595.00     24.39
 73.87    607.00     24.64
 73.97    540.36     23.25
 74.07    572.00     23.92
 74.17    553.83     23.53
 74.27    563.00     23.73
 74.37    548.04     23.41
 74.47    612.09     24.74
 74.57    598.07     24.46
 74.67    521.93     22.85
 74.77    649.00     25.48
 74.87    566.38     23.80
 74.97    570.46     23.88
 75.07    667.00     25.83
 75.17    583.00     24.15
 75.27    546.55     23.38
 75.37    570.00     23.87
 75.47    527.45     22.97
 75.57    552.00     23.49
 75.67    553.00     23.52
 75.77    591.00     24.31
 75.87    603.00     24.56
 75.97    656.06     25.61
 76.07    632.00     25.14
 76.17    646.00     25.42
 76.27    632.00     25.14
 76.37    708.00     26.61
 76.47    701.00     26.48
 76.57    726.00     26.94
 76.67    725.00     26.93
 76.77    680.00     26.08
 76.87    680.00     26.08
 76.97    598.00     24.45
 77.07    625.05     25.00
 77.17    573.00     23.94
 77.27    569.00     23.85
 77.37    548.55     23.42
 77.47    512.61     22.64
 77.57    513.00     22.65
 77.67    545.08     23.35
 77.77    574.00     23.96
 77.87    528.00     22.98
 77.97    500.06     22.36
 78.07    579.71     24.08
 78.17    522.00     22.85
 78.27    508.00     22.54
 78.37    520.00     22.80
 78.47    516.00     22.72
 78.57    549.79     23.45
 78.67    545.00     23.35
 78.77    535.00     23.13
 78.87    482.00     21.95
 78.97    571.56     23.91
 79.07    556.24     23.58
 79.17    537.30     23.18
 79.27    517.00     22.74
 79.37    507.02     22.52
 79.47    510.17     22.59
 79.57    568.00     23.83
 79.67    584.20     24.17
 79.77    570.00     23.87
 79.87    528.73     22.99
 79.97    581.33     24.11
 80.07    565.80     23.79
 80.17    557.74     23.62
 80.27    562.00     23.71
 80.37    583.65     24.16
 80.47    594.00     24.37
 80.57    634.00     25.18
 80.67    664.50     25.78
 80.77    657.00     25.63
 80.87    644.00     25.38
 80.97    736.54     27.14
 81.07    738.21     27.17
 81.17    732.00     27.06
 81.27    710.00     26.65
 81.37    771.01     27.77
 81.47    748.61     27.36
 81.57    731.91     27.05
 81.67    762.00     27.60
 81.77    715.00     26.74
 81.87    726.00     26.94
 81.97    697.00     26.40
 82.07    710.56     26.66
 82.17    669.00     25.87
 82.27    688.00     26.23
 82.37    610.00     24.70
 82.47    604.00     24.58
 82.57    578.74     24.06
 82.67    568.00     23.83
 82.77    582.00     24.12
 82.87    542.00     23.28
 82.97    563.00     23.73
 83.07    557.13     23.60
 83.17    544.23     23.33
 83.27    551.00     23.47
 83.37    598.90     24.47
 83.47    536.74     23.17
 83.57    549.00     23.43
 83.67    549.00     23.43
 83.77    551.00     23.47
 83.87    525.00     22.91
 83.97    571.00     23.90
 84.07    559.00     23.64
 84.17    569.82     23.87
 84.27    557.00     23.60
 84.37    550.00     23.45
 84.47    515.83     22.71
 84.57    541.30     23.27
 84.67    548.00     23.41
 84.77    528.00     22.98
 84.87    541.30     23.27
 84.97    530.71     23.04
 85.07    517.00     22.74
 85.17    502.00     22.41
 85.27    491.73     22.17
 85.37    533.00     23.09
 85.47    514.57     22.68
 85.57    525.21     22.92
 85.67    581.00     24.10
 85.77    525.29     22.92
 85.87    547.00     23.39
 85.97    517.00     22.74
 86.07    577.47     24.03
 86.17    534.00     23.11
 86.27    554.00     23.54
 86.37    536.00     23.15
 86.47    501.49     22.39
 86.57    539.07     23.22
 86.67    562.00     23.71
 86.77    615.20     24.80
 86.87    615.00     24.80
 86.97    589.38     24.28
 87.07    608.00     24.66
 87.17    637.92     25.26
 87.27    643.00     25.36
 87.37    647.97     25.46
 87.47    606.00     24.62
 87.57    648.00     25.46
 87.67    650.00     25.50
 87.77    667.00     25.83
 87.87    636.00     25.22
 87.97    641.22     25.32
 88.07    620.07     24.90
 88.17    607.00     24.64
 88.27    593.00     24.35
 88.37    547.00     23.39
 88.47    541.67     23.27
 88.57    593.00     24.35
 88.67    588.00     24.25
 88.77    551.00     23.47
 88.87    598.00     24.45
 88.97    620.00     24.90
 89.07    557.44     23.61
 89.17    631.00     25.12
 89.27    645.00     25.40
 89.37    590.89     24.31
 89.47    604.00     24.58
 89.57    593.00     24.35
 89.67    577.00     24.02
 89.77    601.00     24.52
 89.87    570.00     23.87
 89.97    571.00     23.90
 90.07    583.00     24.15
 90.17    540.17     23.24
 90.27    520.00     22.80
 90.37    517.00     22.74
 90.47    510.87     22.60
 90.57    541.32     23.27
 90.67    523.68     22.88
 90.77    551.00     23.47
 90.87    563.05     23.73
 90.97    498.00     22.32
 91.07    485.00     22.02
 91.17    515.00     22.69
 91.27    477.00     21.84
 91.37    563.00     23.73
 91.47    565.00     23.77
 91.57    517.00     22.74
 91.67    524.96     22.91
 91.77    514.00     22.67
 91.87    556.47     23.59
 91.97    565.00     23.77
 92.07    573.00     23.94
 92.17    624.44     24.99
 92.27    543.15     23.31
 92.37    585.00     24.19
 92.47    617.92     24.86
 92.57    657.42     25.64
 92.67    685.00     26.17
 92.77    692.00     26.31
 92.87    741.00     27.22
 92.97    674.14     25.96
 93.07    796.00     28.21
 93.17    813.00     28.51
 93.27    831.95     28.84
 93.37    820.00     28.64
 93.47    820.00     28.64
 93.57    860.37     29.33
 93.67    799.00     28.27
 93.77    862.00     29.36
 93.87    808.63     28.44
 93.97    843.04     29.04
 94.07    848.00     29.12
 94.17    876.00     29.60
 94.27    852.00     29.19
 94.37    803.84     28.35
 94.47    906.00     30.10
 94.57    918.00     30.30
 94.67    918.00     30.30
 94.77    945.00     30.74
 94.87    870.00     29.50
 94.97    875.82     29.59
 95.07    928.00     30.46
 95.17    883.00     29.72
 95.27    825.00     28.72
 95.37    838.73     28.96
 95.47    812.00     28.50
 95.57    776.00     27.86
 95.67    766.00     27.68
 95.77    681.12     26.10
 95.87    637.00     25.24
 95.97    687.00     26.21
 96.07    734.18     27.10
 96.17    715.00     26.74
 96.27    724.00     26.91
 96.37    746.00     27.31
 96.47    784.00     28.00
 96.57    869.00     29.48
 96.67    889.00     29.82
 96.77    994.82     31.54
 96.87    994.05     31.53
 96.97   1114.00     33.38
 97.07   1151.36     33.93
 97.17   1277.00     35.74
 97.27   1313.00     36.24
 97.37   1376.32     37.10
 97.47   1487.07     38.56
 97.57   1435.00     37.88
 97.67   1396.00     37.36
 97.77   1396.01     37.36
 97.87   1338.00     36.58
 97.97   1271.18     35.65
 98.07   1213.59     34.84
 98.17   1170.19     34.21
 98.27   1102.00     33.20
 98.37   1071.45     32.73
 98.47    919.00     30.32
 98.57    889.00     29.82
 98.67    845.00     29.07
 98.77    791.00     28.12
 98.87    807.00     28.41
 98.97    812.51     28.50
 99.07    767.00     27.69
 99.17    823.93     28.70
 99.27    869.00     29.48
 99.37    912.78     30.21
 99.47    984.63     31.38
 99.57   1128.00     33.59
 99.67   1104.00     33.23
 99.77   1231.70     35.10
 99.87   1383.41     37.19
 99.97   1499.76     38.73
100.07   1650.00     40.62
100.17   1700.60     41.24
100.27   1822.00     42.68
100.37   1916.16     43.77
100.47   1896.16     43.54
100.57   2124.00     46.09
100.67   2036.40     45.13
100.77   1986.54     44.57
100.87   2006.17     44.79
100.97   2014.50     44.88
101.07   1883.48     43.40
101.17   1936.00     44.00
101.27   1771.00     42.08
101.37   1719.00     41.46
101.47   1603.88     40.05
101.57   1501.00     38.74
101.67   1375.75     37.09
101.77   1449.00     38.07
101.87   1295.00     35.99
101.97   1306.85     36.15
102.07   1169.00     34.19
102.17   1121.00     33.48
102.27   1163.00     34.10
102.37   1110.75     33.33
102.47   1102.00     33.20
102.57   1028.32     32.07
102.67   1012.38     31.82
102.77   1084.00     32.92
102.87    988.60     31.44
102.97    901.00     30.02
103.07    927.00     30.45
103.17    873.48     29.55
103.27    809.94     28.46
103.37    797.00     28.23
103.47    738.60     27.18
103.57    716.10     26.76
103.67    721.00     26.85
103.77    700.00     26.46
103.87    642.00     25.34
103.97    647.00     25.44
104.07    579.61     24.08
104.17    546.01     23.37
104.27    587.00     24.23
104.37    577.00     24.02
104.47    567.00     23.81
104.57    554.00     23.54
104.67    518.00     22.76
104.77    513.00     22.65
104.87    526.00     22.93
104.97    558.00     23.62
105.07    533.00     23.09
105.17    568.00     23.83
105.27    557.00     23.60
105.37    559.00     23.64
105.47    547.00     23.39
105.57    570.00     23.87
105.67    540.00     23.24
105.77    505.61     22.49
105.87    542.02     23.28
105.97    549.00     23.43
106.07    595.33     24.40
106.17    549.00     23.43
106.27    552.00     23.49
106.37    627.00     25.04
106.47    597.69     24.45
106.57    633.00     25.16
106.67    605.00     24.60
106.77    695.58     26.37
106.87    680.55     26.09
106.97    646.00     25.42
107.07    700.97     26.48
107.17    662.70     25.74
107.27    645.00     25.40
107.37    688.00     26.23
107.47    641.00     25.32
107.57    734.02     27.09
107.67    684.00     26.15
107.77    669.15     25.87
107.87    679.85     26.07
107.97    658.00     25.65
108.07    721.90     26.87
108.17    656.00     25.61
108.27    683.00     26.13
108.37    646.08     25.42
108.47    675.00     25.98
108.57    688.35     26.24
108.67    687.00     26.21
108.77    686.00     26.19
108.87    687.50     26.22
108.97    686.00     26.19
109.07    673.00     25.94
109.17    653.23     25.56
109.27    680.09     26.08
109.37    645.28     25.40
109.47    688.00     26.23
109.57    642.29     25.34
109.67    577.91     24.04
109.77    583.00     24.15
109.87    605.33     24.60
109.97    556.00     23.58
110.07    530.00     23.02
110.17    567.00     23.81
110.27    556.00     23.58
110.37    571.00     23.90
110.47    589.00     24.27
110.57    578.46     24.05
110.67    528.96     23.00
110.77    565.00     23.77
110.87    550.00     23.45
110.97    605.00     24.60
111.07    593.00     24.35
111.17    517.00     22.74
111.27    568.73     23.85
111.37    535.00     23.13
111.47    514.22     22.68
111.57    584.00     24.17
111.67    536.00     23.15
111.77    531.69     23.06
111.87    557.13     23.60
111.97    563.84     23.75
112.07    549.00     23.43
112.17    565.00     23.77
112.27    551.00     23.47
112.37    555.00     23.56
112.47    592.00     24.33
112.57    624.30     24.99
112.67    601.36     24.52
112.77    610.00     24.70
112.87    644.00     25.38
112.97    692.00     26.31
113.07    672.29     25.93
113.17    741.00     27.22
113.27    707.00     26.59
113.37    768.00     27.71
113.47    829.00     28.79
113.57    841.00     29.00
113.67    863.00     29.38
113.77    885.00     29.75
113.87    943.00     30.71
113.97    963.52     31.04
114.07   1058.00     32.53
114.17   1087.00     32.97
114.27   1113.00     33.36
114.37   1247.57     35.32
114.47   1314.24     36.25
114.57   1479.00     38.46
114.67   1585.00     39.81
114.77   1739.00     41.70
114.87   1887.00     43.44
114.97   2039.54     45.16
115.07   2343.86     48.41
115.17   2485.00     49.85
115.27   2811.00     53.02
115.37   3146.28     56.09
115.47   3410.00     58.40
115.57   3782.00     61.50
115.67   4077.00     63.85
115.77   4478.00     66.92
115.87   4907.46     70.05
115.97   5291.00     72.74
116.07   5567.00     74.61
116.17   5832.00     76.37
116.27   6224.00     78.89
116.37   6464.00     80.40
116.47   6781.00     82.35
116.57   6802.78     82.48
116.67   6947.00     83.35
116.77   7057.73     84.01
116.87   6821.00     82.59
116.97   6583.00     81.14
117.07   6317.49     79.48
117.17   6139.00     78.35
117.27   5605.00     74.87
117.37   5517.55     74.28
117.47   4990.97     70.65
117.57   4564.00     67.56
117.67   4434.00     66.59
117.77   3893.00     62.39
117.87   3727.00     61.05
117.97   3310.00     57.53
118.07   2851.85     53.40
118.17   2646.00     51.44
118.27   2210.98     47.02
118.37   1983.07     44.53
118.47   1733.00     41.63
118.57   1593.21     39.92
118.67   1318.00     36.30
118.77   1173.00     34.25
118.87   1112.00     33.35
118.97   1083.73     32.92
119.07    896.00     29.93
119.17    863.36     29.38
119.27    818.00     28.60
119.37    679.00     26.06
119.47    730.00     27.02
119.57    674.97     25.98
119.67    630.00     25.10
119.77    658.68     25.66
119.87    640.43     25.31
119.97    627.00     25.04
120.07    569.00     23.85
120.17    555.07     23.56
120.27    584.98     24.19
120.37    559.00     23.64
120.47    569.00     23.85
120.57    572.91     23.94
120.67    616.88     24.84
120.77    571.00     23.90
120.87    588.00     24.25
120.97    598.73     24.47
121.07    610.33     24.70
121.17    593.27     24.36
121.27    569.00     23.85
121.37    585.40     24.20
121.47    584.00     24.17
121.57    611.00     24.72
121.67    590.61     24.30
121.77    575.72     23.99
121.87    589.00     24.27
121.97    625.00     25.00
122.07    634.00     25.18
122.17    625.00     25.00
122.27    627.14     25.04
122.37    600.00     24.49
122.47    616.00     24.82
122.57    585.35     24.19
122.67    675.46     25.99
122.77    651.00     25.51
122.87    644.00     25.38
122.97    634.00     25.18
123.07    659.76     25.69
123.17    614.00     24.78
123.27    714.00     26.72
123.37    649.00     25.48
123.47    652.00     25.53
123.57    643.47     25.37
123.67    629.00     25.08
123.77    613.00     24.76
123.87    652.20     25.54
123.97    604.00     24.58
124.07    649.00     25.48
124.17    616.00     24.82
124.27    623.00     24.96
124.37    637.22     25.24
124.47    618.62     24.87
124.57    613.00     24.76
124.67    602.64     24.55
124.77    665.00     25.79
124.87    544.65     23.34
124.97    571.00     23.90
