XYDATA



INTER 1.0 1.0 0 0
TEMP 894.096
  9.97    613.00     24.76
 10.07    623.00     24.96
 10.17    617.00     24.84
 10.27    566.00     23.79
 10.37    523.63     22.88
 10.47    565.26     23.78
 10.57    528.50     22.99
 10.67    574.00     23.96
 10.77    594.00     24.37
 10.87    629.00     25.08
 10.97    515.86     22.71
 11.07    592.25     24.34
 11.17    554.00     23.54
 11.27    565.00     23.77
 11.37    573.00     23.94
 11.47    588.00     24.25
 11.57    595.00     24.39
 11.67    575.52     23.99
 11.77    611.31     24.72
 11.87    648.00     25.46
 11.97    632.20     25.14
 12.07    676.00     26.00
 12.17    647.00     25.44
 12.27    725.85     26.94
 12.37    641.45     25.33
 12.47    609.42     24.69
 12.57    579.00     24.06
 12.67    548.00     23.41
 12.77    563.00     23.73
 12.87    568.00     23.83
 12.97    529.00     23.00
 13.07    563.00     23.73
 13.17    522.02     22.85
 13.27    600.50     24.51
 13.37    560.13     23.67
 13.47    529.00     23.00
 13.57    507.00     22.52
 13.67    537.00     23.17
 13.77    523.00     22.87
 13.87    551.03     23.47
 13.97    478.00     21.86
 14.07    580.31     24.09
 14.17    521.32     22.83
 14.27    558.65     23.64
 14.37    571.58     23.91
 14.47    555.00     23.56
 14.57    518.00     22.76
 14.67    530.50     23.03
 14.77    595.56     24.40
 14.87    543.00     23.30
 14.97    547.00     23.39
 15.07    545.00     23.35
 15.17    496.00     22.27
 15.27    540.22     23.24
 15.37    558.00     23.62
 15.47    551.00     23.47
 15.57    537.00     23.17
 15.67    544.00     23.32
 15.77    552.00     23.49
 15.87    528.36     22.99
 15.97    539.00     23.22
 16.07    546.15     23.37
 16.17    515.00     22.69
 16.27    573.25     23.94
 16.37    571.13     23.90
 16.47    525.00     22.91
 16.57    578.00     24.04
 16.67    551.44     23.48
 16.77    587.00     24.23
 16.87    556.00     23.58
 16.97    553.00     23.52
 17.07    562.00     23.71
 17.17    585.00     24.19
 17.27    543.00     23.30
 17.37    543.00     23.30
 17.47    595.00     24.39
 17.57    546.00     23.37
 17.67    509.00     22.56
 17.77    542.00     23.28
 17.87    543.00     23.30
 17.97    547.00     23.39
 18.07    554.72     23.55
 18.17    542.00     23.28
 18.27    575.42     23.99
 18.37    585.59     24.20
 18.47    511.00     22.61
 18.57    548.86     23.43
 18.67    551.00     23.47
 18.77    518.21     22.76
 18.87    535.00     23.13
 18.97    537.00     23.17
 19.07    527.00     22.96
 19.17    536.00     23.15
 19.27    592.70     24.35
 19.37    535.00     23.13
 19.47    554.00     23.54
 19.57    559.00     23.64
 19.67    533.00     23.09
 19.77    489.00     22.11
 19.87    531.00     23.04
 19.97    574.00     23.96
 20.07    526.00     22.93
 20.17    533.00     23.09
 20.27    542.00     23.28
 20.37    553.28     23.52
 20.47    526.87     22.95
 20.57    521.00     22.83
 20.67    527.00     22.96
 20.77    547.50     23.40
 20.87    527.00     22.96
 20.97    554.29     23.54
 21.07    515.42     22.70
 21.17    580.00     24.08
 21.27    539.66     23.23
 21.37    515.97     22.71
 21.47    537.00     23.17
 21.57    559.00     23.64
 21.67    543.68     23.32
 21.77    595.00     24.39
 21.87    586.00     24.21
 21.97    545.00     23.35
 22.07    565.81     23.79
 22.17    534.00     23.11
 22.27    546.00     23.37
 22.37    571.08     23.90
 22.47    583.21     24.15
 22.57    512.68     22.64
 22.67    561.00     23.69
 22.77    559.06     23.64
 22.87    532.00     23.07
 22.97    529.00     23.00
 23.07    544.00     23.32
 23.17    545.00     23.35
 23.27    559.92     23.66
 23.37    572.00     23.92
 23.47    578.00     24.04
 23.57    543.77     23.32
 23.67    539.00     23.22
 23.77    509.00     22.56
 23.87    515.65     22.71
 23.97    539.00     23.22
 24.07    567.00     23.81
 24.17    608.00     24.66
 24.27    572.00     23.92
 24.37    570.04     23.88
 24.47    580.00     24.08
 24.57    595.00     24.39
 24.67    628.00     25.06
 24.77    582.03     24.13
 24.87    661.00     25.71
 24.97    600.58     24.51
 25.07    641.00     25.32
 25.17    598.00     24.45
 25.27    615.00     24.80
 25.37    608.00     24.66
 25.47    582.89     24.14
 25.57    568.00     23.83
 25.67    507.26     22.52
 25.77    568.00     23.83
 25.87    554.00     23.54
 25.97    538.18     23.20
 26.07    507.99     22.54
 26.17    581.00     24.10
 26.27    610.00     24.70
 26.37    522.61     22.86
 26.47    492.00     22.18
 26.57    571.00     23.90
 26.67    532.00     23.07
 26.77    559.00     23.64
 26.87    560.87     23.68
 26.97    582.69     24.14
 27.07    594.00     24.37
 27.17    569.00     23.85
 27.27    566.00     23.79
 27.37    595.00     24.39
 27.47    539.00     23.22
 27.57    548.96     23.43
 27.67    581.00     24.10
 27.77    622.00     24.94
 27.87    557.00     23.60
 27.97    657.00     25.63
 28.07    726.00     26.94
 28.17    816.72     28.58
 28.27    933.00     30.55
 28.37    960.00     30.98
 28.47    834.58     28.89
 28.57    746.00     27.31
 28.67    715.00     26.74
 28.77    766.00     27.68
 28.87    794.90     28.19
 28.97    847.00     29.10
 29.07    824.23     28.71
 29.17    779.25     27.92
 29.27    730.00     27.02
 29.37    655.00     25.59
 29.47    541.00     23.26
 29.57    594.00     24.37
 29.67    617.00     24.84
 29.77    573.00     23.94
 29.87    550.00     23.45
 29.97    539.29     23.22
 30.07    582.00     24.12
 30.17    556.00     23.58
 30.27    588.00     24.25
 30.37    559.00     23.64
 30.47    576.92     24.02
 30.57    552.00     23.49
 30.67    583.00     24.15
 30.77    630.00     25.10
 30.87    586.00     24.21
 30.97    634.73     25.19
 31.07    604.63     24.59
 31.17    632.84     25.16
 31.27    565.04     23.77
 31.37    544.00     23.32
 31.47    543.00     23.30
 31.57    527.46     22.97
 31.67    526.99     22.96
 31.77    548.00     23.41
 31.87    582.00     24.12
 31.97    590.00     24.29
 32.07    520.00     22.80
 32.17    525.00     22.91
 32.27    571.00     23.90
 32.37    545.00     23.35
 32.47    534.00     23.11
 32.57    537.00     23.17
 32.67    577.00     24.02
 32.77    539.00     23.22
 32.87    538.03     23.20
 32.97    543.00     23.30
 33.07    567.48     23.82
 33.17    561.00     23.69
 33.27    546.00     23.37
 33.37    520.00     22.80
 33.47    557.00     23.60
 33.57    574.40     23.97
 33.67    650.73     25.51
 33.77    684.00     26.15
 33.87    768.00     27.71
 33.97    917.00     30.28
 34.07   1063.00     32.60
 34.17    995.65     31.55
 34.27    954.00     30.89
 34.37    851.17     29.17
 34.47    772.55     27.79
 34.57    646.35     25.42
 34.67    610.00     24.70
 34.77    583.46     24.15
 34.87    559.00     23.64
 34.97    565.00     23.77
 35.07    525.00     22.91
 35.17    498.00     22.32
 35.27    489.05     22.11
 35.37    505.09     22.47
 35.47    558.91     23.64
 35.57    506.00     22.49
 35.67    512.34     22.63
 35.77    488.00     22.09
 35.87    497.00     22.29
 35.97    499.44     22.35
 36.07    527.23     22.96
 36.17    541.26     23.27
 36.27    477.64     21.85
 36.37    512.00     22.63
 36.47    532.41     23.07
 36.57    511.00     22.61
 36.67    496.00     22.27
 36.77    477.00     21.84
 36.87    459.00     21.42
 36.97    468.00     21.63
 37.07    481.00     21.93
 37.17    529.84     23.02
 37.27    467.00     21.61
 37.37    503.00     22.43
 37.47    514.75     22.69
 37.57    531.00     23.04
 37.67    541.08     23.26
 37.77    514.00     22.67
 37.87    521.00     22.83
 37.97    502.77     22.42
 38.07    516.41     22.72
 38.17    485.00     22.02
 38.27    498.00     22.32
 38.37    457.00     21.38
 38.47    504.00     22.45
 38.57    474.00     21.77
 38.67    524.99     22.91
 38.77    520.00     22.80
 38.87    515.58     22.71
 38.97    472.00     21.73
 39.07    516.00     22.72
 39.17    492.00     22.18
 39.27    490.00     22.14
 39.37    508.66     22.55
 39.47    518.00     22.76
 39.57    536.11     23.15
 39.67    502.11     22.41
 39.77    485.00     22.02
 39.87    474.14     21.77
 39.97    496.00     22.27
 40.07    476.35     21.83
 40.17    504.18     22.45
 40.27    516.00     22.72
 40.37    511.70     22.62
 40.47    507.00     22.52
 40.57    479.00     21.89
 40.67    532.51     23.08
 40.77    459.50     21.44
 40.87    464.62     21.56
 40.97    486.00     22.05
 41.07    516.00     22.72
 41.17    468.62     21.65
 41.27    468.00     21.63
 41.37    485.00     22.02
 41.47    470.00     21.68
 41.57    504.00     22.45
 41.67    530.00     23.02
 41.77    540.44     23.25
 41.87    514.00     22.67
 41.97    488.00     22.09
 42.07    498.00     22.32
 42.17    481.00     21.93
 42.27    499.59     22.35
 42.37    496.07     22.27
 42.47    577.56     24.03
 42.57    574.00     23.96
 42.67    528.00     22.98
 42.77    634.52     25.19
 42.87    589.00     24.27
 42.97    574.66     23.97
 43.07    560.00     23.66
 43.17    525.00     22.91
 43.27    502.00     22.41
 43.37    516.00     22.72
 43.47    484.57     22.01
 43.57    465.77     21.58
 43.67    503.00     22.43
 43.77    501.61     22.40
 43.87    480.00     21.91
 43.97    533.00     23.09
 44.07    454.88     21.33
 44.17    519.81     22.80
 44.27    481.00     21.93
 44.37    464.13     21.54
 44.47    495.00     22.25
 44.57    508.00     22.54
 44.67    533.73     23.10
 44.77    532.39     23.07
 44.87    480.63     21.92
 44.97    510.87     22.60
 45.07    517.87     22.76
 45.17    467.00     21.61
 45.27    527.68     22.97
 45.37    506.00     22.49
 45.47    495.38     22.26
 45.57    518.00     22.76
 45.67    509.52     22.57
 45.77    472.00     21.73
 45.87    490.00     22.14
 45.97    499.00     22.34
 46.07    499.00     22.34
 46.17    467.00     21.61
 46.27    498.00     22.32
 46.37    495.20     22.25
 46.47    534.00     23.11
 46.57    483.73     21.99
 46.67    513.00     22.65
 46.77    524.14     22.89
 46.87    468.00     21.63
 46.97    506.55     22.51
 47.07    487.00     22.07
 47.17    471.00     21.70
 47.27    534.00     23.11
 47.37    532.00     23.07
 47.47    528.35     22.99
 47.57    570.77     23.89
 47.67    563.00     23.73
 47.77    586.84     24.22
 47.87    580.00     24.08
 47.97    563.00     23.73
 48.07    569.85     23.87
 48.17    544.08     23.33
 48.27    567.00     23.81
 48.37    559.00     23.64
 48.47    529.00     23.00
 48.57    523.00     22.87
 48.67    500.45     22.37
 48.77    509.00     22.56
 48.87    565.00     23.77
 48.97    502.00     22.41
 49.07    525.16     22.92
 49.17    558.00     23.62
 49.27    552.00     23.49
 49.37    588.00     24.25
 49.47    599.00     24.47
 49.57    631.35     25.13
 49.67    670.00     25.88
 49.77    833.00     28.86
 49.87   1097.95     33.14
 49.97   1430.00     37.82
 50.07   1818.71     42.65
 50.17   2096.00     45.78
 50.27   2413.00     49.12
 50.37   2349.54     48.47
 50.47   2068.45     45.48
 50.57   1851.00     43.02
 50.67   1321.00     36.35
 50.77   1066.00     32.65
 50.87    856.00     29.26
 50.97    750.00     27.39
 51.07    660.00     25.69
 51.17    674.00     25.96
 51.27    617.32     24.85
 51.37    643.00     25.36
 51.47    606.00     24.62
 51.57    583.98     24.17
 51.67    573.00     23.94
 51.77    555.33     23.57
 51.87    558.00     23.62
 51.97    516.00     22.72
 52.07    566.69     23.81
 52.17    537.00     23.17
 52.27    552.00     23.49
 52.37    512.16     22.63
 52.47    542.00     23.28
 52.57    573.87     23.96
 52.67    602.00     24.54
 52.77    542.62     23.29
 52.87    609.00     24.68
 52.97    671.85     25.92
 53.07    687.00     26.21
 53.17    765.64     27.67
 53.27    915.00     30.25
 53.37    948.00     30.79
 53.47   1164.00     34.12
 53.57   1095.06     33.09
 53.67   1111.37     33.34
 53.77   1060.81     32.57
 53.87   1016.00     31.87
 53.97    971.64     31.17
 54.07    796.00     28.21
 54.17    702.00     26.50
 54.27    634.00     25.18
 54.37    578.82     24.06
 54.47    574.00     23.96
 54.57    542.21     23.29
 54.67    529.12     23.00
 54.77    559.44     23.65
 54.87    519.40     22.79
 54.97    538.81     23.21
 55.07    560.00     23.66
 55.17    520.00     22.80
 55.27    581.00     24.10
 55.37    552.00     23.49
 55.47    548.00     23.41
 55.57    558.94     23.64
 55.67    600.71     24.51
 55.77    595.00     24.39
 55.87    600.00     24.49
 55.97    626.77     25.04
 56.07    653.00     25.55
 56.17    698.00     26.42
 56.27    795.00     28.20
 56.37    894.00     29.90
 56.47   1115.24     33.40
 56.57   1480.37     38.48
 56.67   1695.00     41.17
 56.77   2116.05     46.00
 56.87   2346.00     48.44
 56.97   2489.00     49.89
 57.07   2534.57     50.34
 57.17   2277.00     47.72
 57.27   1980.00     44.50
 57.37   1724.00     41.52
 57.47   1416.00     37.63
 57.57   1164.54     34.13
 57.67    973.00     31.19
 57.77    807.00     28.41
 57.87    801.11     28.30
 57.97    749.00     27.37
 58.07    706.00     26.57
 58.17    720.00     26.83
 58.27    708.00     26.61
 58.37    752.00     27.42
 58.47    830.68     28.82
 58.57    880.00     29.66
 58.67    930.29     30.50
 58.77    965.00     31.06
 58.87   1118.12     33.44
 58.97   1259.00     35.48
 59.07   1272.00     35.67
 59.17   1320.00     36.33
 59.27   1361.00     36.89
 59.37   1255.00     35.43
 59.47   1236.00     35.16
 59.57   1105.71     33.25
 59.67   1081.32     32.88
 59.77   1147.00     33.87
 59.87   1176.15     34.30
 59.97   1243.00     35.26
 60.07   1256.14     35.44
 60.17   1432.00     37.84
 60.27   1459.00     38.20
 60.37   1559.87     39.50
 60.47   1458.63     38.19
 60.57   1488.00     38.57
 60.67   1275.00     35.71
 60.77   1108.35     33.29
 60.87   1004.00     31.69
 60.97    805.05     28.37
 61.07    781.00     27.95
 61.17    686.00     26.19
 61.27    676.00     26.00
 61.37    664.00     25.77
 61.47    642.00     25.34
 61.57    679.64     26.07
 61.67    740.00     27.20
 61.77    766.00     27.68
 61.87    893.00     29.88
 61.97   1120.64     33.48
 62.07   1184.00     34.41
 62.17   1311.00     36.21
 62.27   1377.07     37.11
 62.37   1261.00     35.51
 62.47   1259.00     35.48
 62.57   1202.00     34.67
 62.67   1106.69     33.27
 62.77    952.19     30.86
 62.87    840.00     28.98
 62.97    785.00     28.02
 63.07    685.00     26.17
 63.17    609.00     24.68
 63.27    556.33     23.59
 63.37    642.00     25.34
 63.47    594.00     24.37
 63.57    533.84     23.10
 63.67    574.00     23.96
 63.77    608.00     24.66
 63.87    591.50     24.32
 63.97    652.00     25.53
 64.07    649.00     25.48
 64.17    684.72     26.17
 64.27    810.00     28.46
 64.37    792.00     28.14
 64.47    828.98     28.79
 64.57    859.00     29.31
 64.67    931.78     30.53
 64.77    965.93     31.08
 64.87   1044.87     32.32
 64.97   1006.80     31.73
 65.07    913.99     30.23
 65.17    844.00     29.05
 65.27    828.67     28.79
 65.37    738.00     27.17
 65.47    739.68     27.20
 65.57    687.24     26.22
 65.67    636.00     25.22
 65.77    636.00     25.22
 65.87    583.77     24.16
 65.97    608.44     24.67
 66.07    581.10     24.11
 66.17    592.69     24.35
 66.27    606.22     24.62
 66.37    576.00     24.00
 66.47    551.00     23.47
 66.57    557.00     23.60
 66.67    555.00     23.56
 66.77    570.00     23.87
 66.87    623.73     24.97
 66.97    614.00     24.78
 67.07    642.00     25.34
 67.17    617.00     24.84
 67.27    693.00     26.32
 67.37    713.00     26.70
 67.47    873.00     29.55
 67.57   1033.00     32.14
 67.67   1169.15     34.19
 67.77   1451.00     38.09
 67.87   1639.00     40.48
 67.97   1931.00     43.94
 68.07   2275.00     47.70
 68.17   2205.34     46.96
 68.27   2396.09     48.95
 68.37   2338.00     48.35
 68.47   2149.00     46.36
 68.57   1950.99     44.17
 68.67   1724.00     41.52
 68.77   1424.00     37.74
 68.87   1227.33     35.03
 68.97   1022.00     31.97
 69.07    897.95     29.97
 69.17    772.56     27.79
 69.27    728.40     26.99
 69.37    634.00     25.18
 69.47    659.97     25.69
 69.57    582.00     24.12
 69.67    598.00     24.45
 69.77    586.01     24.21
 69.87    586.00     24.21
 69.97    568.00     23.83
 70.07    573.43     23.95
 70.17    580.00     24.08
 70.27    618.00     24.86
 70.37    522.00     22.85
 70.47    530.34     23.03
 70.57    568.51     23.84
 70.67    603.36     24.56
 70.77    586.27     24.21
 70.87    570.00     23.87
 70.97    654.00     25.57
 71.07    650.24     25.50
 71.17    660.00     25.69
 71.27    712.66     26.70
 71.37    789.00     28.09
 71.47    897.00     29.95
 71.57   1025.00     32.02
 71.67   1195.00     34.57
 71.77   1296.54     36.01
 71.87   1484.00     38.52
 71.97   1615.00     40.19
 72.07   1853.44     43.05
 72.17   1820.00     42.66
 72.27   1882.00     43.38
 72.37   1752.00     41.86
 72.47   1655.00     40.68
 72.57   1455.00     38.14
 72.67   1306.27     36.14
 72.77   1178.00     34.32
 72.87   1076.00     32.80
 72.97    948.00     30.79
 73.07    844.00     29.05
 73.17    773.40     27.81
 73.27    760.00     27.57
 73.37    690.00     26.27
 73.47    615.00     24.80
 73.57    606.70     24.63
 73.67    603.00     24.56
 73.77    605.00     24.60
 73.87    587.00     24.23
 73.97    598.70     24.47
 74.07    514.00     22.67
 74.17    598.00     24.45
 74.27    614.00     24.78
 74.37    597.00     24.43
 74.47    616.06     24.82
 74.57    625.00     25.00
 74.67    560.27     23.67
 74.77    629.00     25.08
 74.87    609.22     24.68
 74.97    623.00     24.96
 75.07    609.00     24.68
 75.17    521.15     22.83
 75.27    560.00     23.66
 75.37    559.00     23.64
 75.47    561.00     23.69
 75.57    516.83     22.73
 75.67    565.03     23.77
 75.77    574.00     23.96
 75.87    598.00     24.45
 75.97    554.41     23.55
 76.07    591.48     24.32
 76.17    616.00     24.82
 76.27    642.87     25.35
 76.37    677.58     26.03
 76.47    633.00     25.16
 76.57    635.00     25.20
 76.67    683.00     26.13
 76.77    732.80     27.07
 76.87    706.00     26.57
 76.97    667.00     25.83
 77.07    701.68     26.49
 77.17    627.89     25.06
 77.27    577.00     24.02
 77.37    547.00     23.39
 77.47    613.00     24.76
 77.57    578.00     24.04
 77.67    559.00     23.64
 77.77    527.00     22.96
 77.87    497.34     22.30
 77.97    546.66     23.38
 78.07    516.00     22.72
 78.17    498.06     22.32
 78.27    478.85     21.88
 78.37    518.47     22.77
 78.47    513.84     22.67
 78.57    497.00     22.29
 78.67    508.56     22.55
 78.77    538.14     23.20
 78.87    458.00     21.40
 78.97    512.07     22.63
 79.07    530.08     23.02
 79.17    531.00     23.04
 79.27    542.00     23.28
 79.37    482.00     21.95
 79.47    522.00     22.85
 79.57    541.68     23.27
 79.67    542.00     23.28
 79.77    542.57     23.29
 79.87    508.54     22.55
 79.97    504.09     22.45
 80.07    505.10     22.47
 80.17    504.73     22.47
 80.27    537.00     23.17
 80.37    553.00     23.52
 80.47    573.00     23.94
 80.57    590.00     24.29
 80.67    548.78     23.43
 80.77    578.57     24.05
 80.87    583.00     24.15
 80.97    608.13     24.66
 81.07    648.00     25.46
 81.17    689.00     26.25
 81.27    724.00     26.91
 81.37    711.00     26.66
 81.47    720.14     26.84
 81.57    691.25     26.29
 81.67    713.06     26.70
 81.77    736.91     27.15
 81.87    676.68     26.01
 81.97    710.00     26.65
 82.07    643.00     25.36
 82.17    705.97     26.57
 82.27    635.00     25.20
 82.37    693.00     26.32
 82.47    655.00     25.59
 82.57    628.00     25.06
 82.67    570.48     23.88
 82.77    561.00     23.69
 82.87    578.00     24.04
 82.97    528.00     22.98
 83.07    498.00     22.32
 83.17    498.00     22.32
 83.27    523.82     22.89
 83.37    494.00     22.23
 83.47    538.00     23.19
 83.57    492.00     22.18
 83.67    522.00     22.85
 83.77    555.97     23.58
 83.87    576.00     24.00
 83.97    517.03     22.74
 84.07    531.00     23.04
 84.17    551.00     23.47
 84.27    509.00     22.56
 84.37    520.46     22.81
 84.47    567.01     23.81
 84.57    563.68     23.74
 84.67    576.21     24.00
 84.77    519.00     22.78
 84.87    535.97     23.15
 84.97    564.78     23.77
 85.07    534.89     23.13
 85.17    491.00     22.16
 85.27    527.10     22.96
 85.37    559.00     23.64
 85.47    537.00     23.17
 85.57    485.00     22.02
 85.67    501.00     22.38
 85.77    517.89     22.76
 85.87    535.24     23.14
 85.97    485.34     22.03
 86.07    526.00     22.93
 86.17    539.00     23.22
 86.27    583.00     24.15
 86.37    517.11     22.74
 86.47    549.00     23.43
 86.57    533.93     23.11
 86.67    519.26     22.79
 86.77    570.09     23.88
 86.87    568.00     23.83
 86.97    565.00     23.77
 87.07    519.10     22.78
 87.17    560.00     23.66
 87.27    611.00     24.72
 87.37    638.85     25.28
 87.47    592.00     24.33
 87.57    607.00     24.64
 87.67    660.00     25.69
 87.77    630.00     25.10
 87.87    618.25     24.86
 87.97    615.50     24.81
 88.07    609.25     24.68
 88.17    600.00     24.49
 88.27    585.00     24.19
 88.37    547.00     23.39
 88.47    632.00     25.14
 88.57    518.69     22.77
 88.67    583.00     24.15
 88.77    594.72     24.39
 88.87    552.00     23.49
 88.97    544.00     23.32
 89.07    564.00     23.75
 89.17    579.00     24.06
 89.27    594.00     24.37
 89.37    573.00     23.94
 89.47    545.16     23.35
 89.57    617.37     24.85
 89.67    535.00     23.13
 89.77    592.00     24.33
 89.87    590.00     24.29
 89.97    560.00     23.66
 90.07    502.00     22.41
 90.17    536.00     23.15
 90.27    540.00     23.24
 90.37    540.00     23.24
 90.47    529.00     23.00
 90.57    518.35     22.77
 90.67    546.00     23.37
 90.77    508.00     22.54
 90.87    524.00     22.89
 90.97    486.76     22.06
 91.07    480.40     21.92
 91.17    484.00     22.00
 91.27    529.51     23.01
 91.37    479.61     21.90
 91.47    519.00     22.78
 91.57    536.00     23.15
 91.67    511.22     22.61
 91.77    518.00     22.76
 91.87    519.00     22.78
 91.97    554.61     23.55
 92.07    515.00     22.69
 92.17    541.00     23.26
 92.27    527.00     22.96
 92.37    572.59     23.93
 92.47    582.00     24.12
 92.57    574.00     23.96
 92.67    566.45     23.80
 92.77    595.00     24.39
 92.87    653.00     25.55
 92.97    661.00     25.71
 93.07    702.00     26.50
 93.17    644.82     25.39
 93.27    675.00     25.98
 93.37    729.33     27.01
 93.47    727.00     26.96
 93.57    753.00     27.44
 93.67    807.00     28.41
 93.77    756.00     27.50
 93.87    834.63     28.89
 93.97    799.00     28.27
 94.07    808.81     28.44
 94.17    819.99     28.64
 94.27    841.37     29.01
 94.37    877.50     29.62
 94.47    814.02     28.53
 94.57    851.43     29.18
 94.67    884.26     29.74
 94.77    901.00     30.02
 94.87    881.00     29.68
 94.97    890.00     29.83
 95.07    892.00     29.87
 95.17    917.00     30.28
 95.27    838.00     28.95
 95.37    890.00     29.83
 95.47    770.14     27.75
 95.57    785.14     28.02
 95.67    760.13     27.57
 95.77    749.00     27.37
 95.87    669.84     25.88
 95.97    733.09     27.08
 96.07    717.00     26.78
 96.17    732.40     27.06
 96.27    695.00     26.36
 96.37    659.27     25.68
 96.47    698.00     26.42
 96.57    754.00     27.46
 96.67    787.00     28.05
 96.77    814.14     28.53
 96.87    861.00     29.34
 96.97    993.00     31.51
 97.07   1026.00     32.03
 97.17   1109.02     33.30
 97.27   1174.00     34.26
 97.37   1216.00     34.87
 97.47   1260.53     35.50
 97.57   1306.79     36.15
 97.67   1417.00     37.64
 97.77   1316.00     36.28
 97.87   1353.00     36.78
 97.97   1412.29     37.58
 98.07   1378.00     37.12
 98.17   1305.00     36.12
 98.27   1284.00     35.83
 98.37   1207.00     34.74
 98.47   1144.00     33.82
 98.57   1028.00     32.06
 98.67    989.00     31.45
 98.77    978.00     31.27
 98.87    946.71     30.77
 98.97    858.97     29.31
 99.07    905.53     30.09
 99.17    850.00     29.15
 99.27    861.00     29.34
 99.37    913.00     30.22
 99.47    902.00     30.03
 99.57    927.00     30.45
 99.67   1008.00     31.75
 99.77   1043.00     32.30
 99.87   1214.46     34.85
 99.97   1298.33     36.03
100.07   1310.00     36.19
100.17   1479.33     38.46
100.27   1497.00     38.69
100.37   1599.33     39.99
100.47   1732.36     41.62
100.57   1720.00     41.47
100.67   1837.21     42.86
100.77   1881.00     43.37
100.87   1855.31     43.07
100.97   2004.00     44.77
101.07   1981.00     44.51
101.17   1946.00     44.11
101.27   1855.45     43.07
101.37   1878.00     43.34
101.47   1812.64     42.58
101.57   1746.00     41.79
101.67   1637.43     40.47
101.77   1635.00     40.44
101.87   1540.78     39.25
101.97   1426.00     37.76
102.07   1394.00     37.34
102.17   1352.00     36.77
102.27   1223.58     34.98
102.37   1231.00     35.09
102.47   1214.00     34.84
102.57   1143.00     33.81
102.67   1164.00     34.12
102.77   1144.00     33.82
102.87   1070.00     32.71
102.97   1060.00     32.56
103.07   1089.00     33.00
103.17   1060.00     32.56
103.27    957.00     30.94
103.37    967.79     31.11
103.47    877.00     29.61
103.57    911.00     30.18
103.67    829.00     28.79
103.77    792.00     28.14
103.87    802.00     28.32
103.97    741.85     27.24
104.07    644.62     25.39
104.17    671.00     25.90
104.27    648.90     25.47
104.37    616.00     24.82
104.47    626.00     25.02
104.57    621.00     24.92
104.67    575.00     23.98
104.77    532.40     23.07
104.87    515.00     22.69
104.97    586.00     24.21
105.07    539.00     23.22
105.17    581.00     24.10
105.27    555.00     23.56
105.37    511.00     22.61
105.47    552.00     23.49
105.57    540.58     23.25
105.67    532.00     23.07
105.77    560.85     23.68
105.87    570.00     23.87
105.97    534.00     23.11
106.07    555.00     23.56
106.17    564.00     23.75
106.27    570.94     23.89
106.37    503.00     22.43
106.47    615.00     24.80
106.57    595.33     24.40
106.67    606.00     24.62
106.77    577.27     24.03
106.87    592.00     24.33
106.97    623.18     24.96
107.07    606.00     24.62
107.17    606.00     24.62
107.27    601.00     24.52
107.37    670.00     25.88
107.47    641.00     25.32
107.57    606.00     24.62
107.67    642.49     25.35
107.77    673.00     25.94
107.87    697.00     26.40
107.97    726.00     26.94
108.07    634.00     25.18
108.17    672.10     25.92
108.27    659.21     25.68
108.37    668.00     25.85
108.47    681.00     26.10
108.57    663.00     25.75
108.67    706.00     26.57
108.77    711.25     26.67
108.87    634.00     25.18
108.97    707.64     26.60
109.07    728.74     27.00
109.17    673.00     25.94
109.27    638.45     25.27
109.37    636.00     25.22
109.47    678.00     26.04
109.57    662.00     25.73
109.67    666.00     25.81
109.77    627.00     25.04
109.87    651.60     25.53
109.97    626.00     25.02
110.07    624.98     25.00
110.17    586.00     24.21
110.27    618.59     24.87
110.37    599.00     24.47
110.47    615.00     24.80
110.57    583.01     24.15
110.67    573.00     23.94
110.77    569.00     23.85
110.87    514.87     22.69
110.97    552.00     23.49
111.07    579.00     24.06
111.17    567.00     23.81
111.27    493.37     22.21
111.37    500.00     22.36
111.47    503.00     22.43
111.57    519.00     22.78
111.67    555.00     23.56
111.77    581.31     24.11
111.87    567.00     23.81
111.97    552.00     23.49
112.07    591.00     24.31
112.17    550.46     23.46
112.27    539.56     23.23
112.37    525.99     22.93
112.47    559.62     23.66
112.57    558.28     23.63
112.67    553.00     23.52
112.77    605.17     24.60
112.87    564.00     23.75
112.97    614.35     24.79
113.07    641.95     25.34
113.17    610.21     24.70
113.27    594.00     24.37
113.37    557.00     23.60
113.47    614.00     24.78
113.57    577.00     24.02
113.67    638.00     25.26
113.77    727.72     26.98
113.87    725.00     26.93
113.97    729.00     27.00
114.07    679.00     26.06
114.17    764.00     27.64
114.27    869.52     29.49
114.37    936.54     30.60
114.47    950.00     30.82
114.57   1052.57     32.44
114.67   1158.00     34.03
114.77   1221.00     34.94
114.87   1296.11     36.00
114.97   1465.56     38.28
115.07   1646.00     40.57
115.17   1877.00     43.32
115.27   2071.00     45.51
115.37   2319.00     48.16
115.47   2583.00     50.82
115.57   2861.26     53.49
115.67   3240.43     56.92
115.77   3559.00     59.66
115.87   3941.97     62.79
115.97   4217.00     64.94
116.07   4478.06     66.92
116.17   4967.40     70.48
116.27   5338.60     73.07
116.37   5552.76     74.52
116.47   6004.00     77.49
116.57   6292.80     79.33
116.67   6428.93     80.18
116.77   6721.00     81.98
116.87   6865.00     82.86
116.97   6831.00     82.65
117.07   6820.00     82.58
117.17   6622.16     81.38
117.27   6643.00     81.50
117.37   6434.96     80.22
117.47   6198.34     78.73
117.57   5764.00     75.92
117.67   5481.24     74.04
117.77   5115.04     71.52
117.87   4839.88     69.57
117.97   4511.34     67.17
118.07   4145.00     64.38
118.17   3818.00     61.79
118.27   3316.04     57.59
118.37   3005.91     54.83
118.47   2731.95     52.27
118.57   2456.01     49.56
118.67   2333.00     48.30
118.77   1938.00     44.02
118.87   1777.00     42.15
118.97   1694.58     41.17
119.07   1462.45     38.24
119.17   1299.00     36.04
119.27   1138.04     33.73
119.37   1082.00     32.89
119.47   1004.00     31.69
119.57    903.75     30.06
119.67    970.00     31.14
119.77    805.00     28.37
119.87    741.07     27.22
119.97    754.59     27.47
120.07    702.00     26.50
120.17    711.00     26.66
120.27    652.71     25.55
120.37    604.33     24.58
120.47    642.00     25.34
120.57    624.00     24.98
120.67    614.00     24.78
120.77    605.00     24.60
120.87    600.00     24.49
120.97    557.00     23.60
121.07    526.00     22.93
121.17    577.23     24.03
121.27    595.00     24.39
121.37    593.00     24.35
121.47    597.00     24.43
121.57    581.00     24.10
121.67    534.07     23.11
121.77    555.00     23.56
121.87    538.00     23.19
121.97    532.00     23.07
122.07    626.66     25.03
122.17    615.00     24.80
122.27    631.03     25.12
122.37    583.00     24.15
122.47    611.00     24.72
122.57    605.00     24.60
122.67    591.00     24.31
122.77    628.00     25.06
122.87    592.62     24.34
122.97    634.87     25.20
123.07    664.00     25.77
123.17    633.00     25.16
123.27    661.00     25.71
123.37    666.00     25.81
123.47    638.68     25.27
123.57    686.00     26.19
123.67    649.00     25.48
123.77    609.00     24.68
123.87    590.00     24.29
123.97    647.01     25.44
124.07    609.00     24.68
124.17    599.84     24.49
124.27    557.29     23.61
124.37    603.00     24.56
124.47    585.00     24.19
124.57    629.87     25.10
124.67    585.00     24.19
124.77    558.70     23.64
124.87    595.00     24.39
124.97    609.00     24.68
