XYDATA



INTER 1.0 1.0 0 0
TEMP 1074.0
  9.97    577.00     24.02
 10.07    561.78     23.70
 10.17    538.22     23.20
 10.27    611.00     24.72
 10.37    616.00     24.82
 10.47    570.00     23.87
 10.57    619.03     24.88
 10.67    601.91     24.53
 10.77    590.00     24.29
 10.87    595.74     24.41
 10.97    547.88     23.41
 11.07    596.00     24.41
 11.17    600.00     24.49
 11.27    585.43     24.20
 11.37    595.00     24.39
 11.47    607.00     24.64
 11.57    575.85     24.00
 11.67    607.00     24.64
 11.77    667.00     25.83
 11.87    639.00     25.28
 11.97    644.00     25.38
 12.07    634.48     25.19
 12.17    714.00     26.72
 12.27    698.40     26.43
 12.37    610.00     24.70
 12.47    629.00     25.08
 12.57    602.00     24.54
 12.67    572.00     23.92
 12.77    564.00     23.75
 12.87    551.81     23.49
 12.97    544.00     23.32
 13.07    575.00     23.98
 13.17    579.00     24.06
 13.27    559.13     23.65
 13.37    533.00     23.09
 13.47    573.00     23.94
 13.57    529.00     23.00
 13.67    542.10     23.28
 13.77    538.84     23.21
 13.87    527.00     22.96
 13.97    560.14     23.67
 14.07    606.55     24.63
 14.17    575.64     23.99
 14.27    578.19     24.05
 14.37    541.00     23.26
 14.47    566.47     23.80
 14.57    564.00     23.75
 14.67    575.38     23.99
 14.77    576.00     24.00
 14.87    534.00     23.11
 14.97    544.01     23.32
 15.07    520.00     22.80
 15.17    573.00     23.94
 15.27    539.00     23.22
 15.37    606.90     24.64
 15.47    566.00     23.79
 15.57    551.35     23.48
 15.67    564.00     23.75
 15.77    531.48     23.05
 15.87    608.00     24.66
 15.97    559.00     23.64
 16.07    536.51     23.16
 16.17    547.00     23.39
 16.27    560.00     23.66
 16.37    539.00     23.22
 16.47    508.00     22.54
 16.57    564.00     23.75
 16.67    530.00     23.02
 16.77    556.00     23.58
 16.87    611.37     24.73
 16.97    542.00     23.28
 17.07    596.06     24.41
 17.17    569.00     23.85
 17.27    605.73     24.61
 17.37    561.43     23.69
 17.47    588.00     24.25
 17.57    565.76     23.79
 17.67    590.00     24.29
 17.77    591.32     24.32
 17.87    564.00     23.75
 17.97    555.00     23.56
 18.07    533.00     23.09
 18.17    549.00     23.43
 18.27    586.68     24.22
 18.37    554.00     23.54
 18.47    535.24     23.14
 18.57    577.00     24.02
 18.67    553.00     23.52
 18.77    579.54     24.07
 18.87    574.65     23.97
 18.97    552.00     23.49
 19.07    551.99     23.49
 19.17    563.00     23.73
 19.27    593.90     24.37
 19.37    603.00     24.56
 19.47    542.00     23.28
 19.57    551.00     23.47
 19.67    562.45     23.72
 19.77    545.00     23.35
 19.87    529.00     23.00
 19.97    524.00     22.89
 20.07    573.00     23.94
 20.17    512.00     22.63
 20.27    587.00     24.23
 20.37    577.00     24.02
 20.47    573.51     23.95
 20.57    512.00     22.63
 20.67    557.00     23.60
 20.77    539.00     23.22
 20.87    534.00     23.11
 20.97    575.00     23.98
 21.07    579.98     24.08
 21.17    575.00     23.98
 21.27    588.53     24.26
 21.37    532.45     23.07
 21.47    525.00     22.91
 21.57    528.00     22.98
 21.67    563.00     23.73
 21.77    543.00     23.30
 21.87    596.00     24.41
 21.97    595.00     24.39
 22.07    527.50     22.97
 22.17    601.00     24.52
 22.27    538.00     23.19
 22.37    514.52     22.68
 22.47    537.00     23.17
 22.57    589.84     24.29
 22.67    499.00     22.34
 22.77    530.00     23.02
 22.87    511.24     22.61
 22.97    553.00     23.52
 23.07    546.00     23.37
 23.17    512.42     22.64
 23.27    568.00     23.83
 23.37    553.78     23.53
 23.47    555.27     23.56
 23.57    533.00     23.09
 23.67    585.00     24.19
 23.77    572.00     23.92
 23.87    558.79     23.64
 23.97    526.00     22.93
 24.07    566.34     23.80
 24.17    502.65     22.42
 24.27    564.00     23.75
 24.37    535.65     23.14
 24.47    585.24     24.19
 24.57    624.81     25.00
 24.67    619.36     24.89
 24.77    616.00     24.82
 24.87    592.00     24.33
 24.97    560.14     23.67
 25.07    586.00     24.21
 25.17    600.64     24.51
 25.27    531.00     23.04
 25.37    534.86     23.13
 25.47    577.38     24.03
 25.57    547.00     23.39
 25.67    604.00     24.58
 25.77    500.00     22.36
 25.87    533.00     23.09
 25.97    520.00     22.80
 26.07    537.40     23.18
 26.17    522.69     22.86
 26.27    573.00     23.94
 26.37    530.00     23.02
 26.47    582.42     24.13
 26.57    531.00     23.04
 26.67    564.78     23.77
 26.77    499.00     22.34
 26.87    578.00     24.04
 26.97    537.00     23.17
 27.07    554.00     23.54
 27.17    513.89     22.67
 27.27    532.40     23.07
 27.37    608.00     24.66
 27.47    582.41     24.13
 27.57    576.25     24.01
 27.67    555.00     23.56
 27.77    529.53     23.01
 27.87    617.00     24.84
 27.97    654.00     25.57
 28.07    815.37     28.55
 28.17    894.00     29.90
 28.27    920.00     30.33
 28.37    911.00     30.18
 28.47    786.00     28.04
 28.57    704.00     26.53
 28.67    685.00     26.17
 28.77    693.07     26.33
 28.87    766.00     27.68
 28.97    770.00     27.75
 29.07    805.00     28.37
 29.17    675.00     25.98
 29.27    599.00     24.47
 29.37    646.55     25.43
 29.47    602.00     24.54
 29.57    543.07     23.30
 29.67    610.74     24.71
 29.77    611.00     24.72
 29.87    568.00     23.83
 29.97    574.00     23.96
 30.07    555.89     23.58
 30.17    556.00     23.58
 30.27    584.00     24.17
 30.37    564.87     23.77
 30.47    572.00     23.92
 30.57    615.00     24.80
 30.67    607.00     24.64
 30.77    551.39     23.48
 30.87    579.88     24.08
 30.97    604.00     24.58
 31.07    621.92     24.94
 31.17    593.00     24.35
 31.27    548.45     23.42
 31.37    555.00     23.56
 31.47    549.00     23.43
 31.57    530.00     23.02
 31.67    550.00     23.45
 31.77    564.00     23.75
 31.87    521.00     22.83
 31.97    508.00     22.54
 32.07    520.42     22.81
 32.17    537.00     23.17
 32.27    539.00     23.22
 32.37    525.00     22.91
 32.47    518.00     22.76
 32.57    529.00     23.00
 32.67    553.00     23.52
 32.77    538.00     23.19
 32.87    618.00     24.86
 32.97    527.00     22.96
 33.07    492.55     22.19
 33.17    535.00     23.13
 33.27    549.00     23.43
 33.37    552.00     23.49
 33.47    516.56     22.73
 33.57    607.00     24.64
 33.67    613.00     24.76
 33.77    739.00     27.18
 33.87    817.52     28.59
 33.97    975.85     31.24
 34.07   1108.00     33.29
 34.17    991.39     31.49
 34.27    871.00     29.51
 34.37    794.00     28.18
 34.47    636.00     25.22
 34.57    608.00     24.66
 34.67    560.93     23.68
 34.77    552.49     23.51
 34.87    525.00     22.91
 34.97    520.92     22.82
 35.07    503.00     22.43
 35.17    513.00     22.65
 35.27    505.88     22.49
 35.37    514.00     22.67
 35.47    483.00     21.98
 35.57    504.00     22.45
 35.67    510.42     22.59
 35.77    513.97     22.67
 35.87    561.00     23.69
 35.97    486.08     22.05
 36.07    508.86     22.56
 36.17    540.39     23.25
 36.27    519.94     22.80
 36.37    490.35     22.14
 36.47    527.00     22.96
 36.57    557.00     23.60
 36.67    545.81     23.36
 36.77    482.00     21.95
 36.87    509.00     22.56
 36.97    552.13     23.50
 37.07    491.00     22.16
 37.17    501.90     22.40
 37.27    550.12     23.45
 37.37    548.57     23.42
 37.47    531.00     23.04
 37.57    559.97     23.66
 37.67    504.00     22.45
 37.77    535.00     23.13
 37.87    529.00     23.00
 37.97    509.95     22.58
 38.07    503.13     22.43
 38.17    520.00     22.80
 38.27    558.51     23.63
 38.37    523.00     22.87
 38.47    538.00     23.19
 38.57    518.00     22.76
 38.67    510.00     22.58
 38.77    504.00     22.45
 38.87    522.00     22.85
 38.97    501.00     22.38
 39.07    460.00     21.45
 39.17    470.00     21.68
 39.27    509.00     22.56
 39.37    490.00     22.14
 39.47    469.00     21.66
 39.57    445.00     21.10
 39.67    537.00     23.17
 39.77    496.53     22.28
 39.87    515.00     22.69
 39.97    459.00     21.42
 40.07    509.00     22.56
 40.17    518.00     22.76
 40.27    504.22     22.45
 40.37    509.00     22.56
 40.47    480.61     21.92
 40.57    494.00     22.23
 40.67    482.00     21.95
 40.77    521.00     22.83
 40.87    549.46     23.44
 40.97    518.92     22.78
 41.07    498.00     22.32
 41.17    470.50     21.69
 41.27    516.00     22.72
 41.37    473.22     21.75
 41.47    496.55     22.28
 41.57    518.00     22.76
 41.67    479.61     21.90
 41.77    541.70     23.27
 41.87    479.00     21.89
 41.97    499.00     22.34
 42.07    542.83     23.30
 42.17    530.00     23.02
 42.27    523.00     22.87
 42.37    537.00     23.17
 42.47    575.00     23.98
 42.57    597.66     24.45
 42.67    583.00     24.15
 42.77    639.00     25.28
 42.87    620.79     24.92
 42.97    551.20     23.48
 43.07    529.29     23.01
 43.17    533.00     23.09
 43.27    495.01     22.25
 43.37    480.75     21.93
 43.47    505.00     22.47
 43.57    509.00     22.56
 43.67    540.88     23.26
 43.77    511.00     22.61
 43.87    518.00     22.76
 43.97    522.82     22.87
 44.07    493.00     22.20
 44.17    547.00     23.39
 44.27    468.87     21.65
 44.37    481.00     21.93
 44.47    540.44     23.25
 44.57    499.00     22.34
 44.67    533.00     23.09
 44.77    488.00     22.09
 44.87    469.87     21.68
 44.97    527.86     22.98
 45.07    520.00     22.80
 45.17    492.00     22.18
 45.27    503.00     22.43
 45.37    526.00     22.93
 45.47    481.00     21.93
 45.57    507.00     22.52
 45.67    531.00     23.04
 45.77    431.00     20.76
 45.87    497.09     22.30
 45.97    518.00     22.76
 46.07    518.00     22.76
 46.17    551.05     23.47
 46.27    500.59     22.37
 46.37    466.01     21.59
 46.47    504.00     22.45
 46.57    469.58     21.67
 46.67    492.99     22.20
 46.77    550.01     23.45
 46.87    513.00     22.65
 46.97    551.44     23.48
 47.07    521.00     22.83
 47.17    519.00     22.78
 47.27    546.00     23.37
 47.37    560.00     23.66
 47.47    529.00     23.00
 47.57    547.00     23.39
 47.67    589.00     24.27
 47.77    549.39     23.44
 47.87    604.00     24.58
 47.97    614.00     24.78
 48.07    579.00     24.06
 48.17    557.00     23.60
 48.27    521.00     22.83
 48.37    498.95     22.34
 48.47    553.00     23.52
 48.57    542.00     23.28
 48.67    553.12     23.52
 48.77    519.00     22.78
 48.87    508.89     22.56
 48.97    532.00     23.07
 49.07    619.45     24.89
 49.17    589.00     24.27
 49.27    648.00     25.46
 49.37    621.00     24.92
 49.47    690.00     26.27
 49.57    791.00     28.12
 49.67    888.00     29.80
 49.77   1152.00     33.94
 49.87   1404.80     37.48
 49.97   1857.21     43.10
 50.07   2129.00     46.14
 50.17   2419.96     49.19
 50.27   2538.32     50.38
 50.37   2269.00     47.63
 50.47   1943.79     44.09
 50.57   1459.00     38.20
 50.67   1093.00     33.06
 50.77    831.99     28.84
 50.87    767.40     27.70
 50.97    638.59     25.27
 51.07    597.00     24.43
 51.17    584.00     24.17
 51.27    591.53     24.32
 51.37    583.37     24.15
 51.47    556.00     23.58
 51.57    607.00     24.64
 51.67    522.00     22.85
 51.77    575.00     23.98
 51.87    582.00     24.12
 51.97    529.00     23.00
 52.07    577.53     24.03
 52.17    547.00     23.39
 52.27    587.00     24.23
 52.37    541.00     23.26
 52.47    585.00     24.19
 52.57    563.00     23.73
 52.67    614.00     24.78
 52.77    550.93     23.47
 52.87    653.00     25.55
 52.97    696.00     26.38
 53.07    810.00     28.46
 53.17    879.00     29.65
 53.27   1058.00     32.53
 53.37   1183.52     34.40
 53.47   1160.00     34.06
 53.57   1134.91     33.69
 53.67   1076.00     32.80
 53.77    976.35     31.25
 53.87    872.00     29.53
 53.97    728.00     26.98
 54.07    664.00     25.77
 54.17    567.00     23.81
 54.27    584.00     24.17
 54.37    534.03     23.11
 54.47    633.00     25.16
 54.57    611.00     24.72
 54.67    540.00     23.24
 54.77    496.97     22.29
 54.87    553.00     23.52
 54.97    573.00     23.94
 55.07    561.95     23.71
 55.17    586.00     24.21
 55.27    550.00     23.45
 55.37    536.00     23.15
 55.47    566.00     23.79
 55.57    586.00     24.21
 55.67    632.00     25.14
 55.77    581.72     24.12
 55.87    583.00     24.15
 55.97    637.09     25.24
 56.07    711.88     26.68
 56.17    763.11     27.62
 56.27    966.55     31.09
 56.37   1058.00     32.53
 56.47   1392.00     37.31
 56.57   1685.00     41.05
 56.67   2095.56     45.78
 56.77   2517.00     50.17
 56.87   2679.00     51.76
 56.97   2585.00     50.84
 57.07   2415.00     49.14
 57.17   2070.00     45.50
 57.27   1611.00     40.14
 57.37   1332.00     36.50
 57.47   1060.00     32.56
 57.57    857.00     29.27
 57.67    754.06     27.46
 57.77    712.00     26.68
 57.87    632.15     25.14
 57.97    676.00     26.00
 58.07    689.00     26.25
 58.17    755.00     27.48
 58.27    733.00     27.07
 58.37    824.71     28.72
 58.47    946.00     30.76
 58.57   1108.00     33.29
 58.67   1226.00     35.01
 58.77   1418.00     37.66
 58.87   1515.59     38.93
 58.97   1522.00     39.01
 59.07   1573.00     39.66
 59.17   1506.32     38.81
 59.27   1480.00     38.47
 59.37   1326.00     36.41
 59.47   1264.00     35.55
 59.57   1123.75     33.52
 59.67   1167.00     34.16
 59.77   1181.00     34.37
 59.87   1254.00     35.41
 59.97   1312.00     36.22
 60.07   1427.00     37.78
 60.17   1624.00     40.30
 60.27   1493.07     38.64
 60.37   1511.00     38.87
 60.47   1409.00     37.54
 60.57   1216.00     34.87
 60.67   1029.51     32.09
 60.77    980.00     31.30
 60.87    815.00     28.55
 60.97    681.00     26.10
 61.07    664.00     25.77
 61.17    634.00     25.18
 61.27    615.03     24.80
 61.37    670.00     25.88
 61.47    656.00     25.61
 61.57    789.21     28.09
 61.67    895.00     29.92
 61.77    961.00     31.00
 61.87   1095.69     33.10
 61.97   1236.00     35.16
 62.07   1327.00     36.43
 62.17   1372.67     37.05
 62.27   1440.28     37.95
 62.37   1288.00     35.89
 62.47   1156.00     34.00
 62.57   1003.91     31.68
 62.67    926.00     30.43
 62.77    778.64     27.90
 62.87    703.16     26.52
 62.97    589.00     24.27
 63.07    615.00     24.80
 63.17    556.17     23.58
 63.27    569.00     23.85
 63.37    534.19     23.11
 63.47    590.00     24.29
 63.57    644.00     25.38
 63.67    620.07     24.90
 63.77    574.05     23.96
 63.87    666.00     25.81
 63.97    642.32     25.34
 64.07    747.00     27.33
 64.17    779.00     27.91
 64.27    815.52     28.56
 64.37    873.00     29.55
 64.47    964.97     31.06
 64.57   1036.00     32.19
 64.67    960.78     31.00
 64.77    968.00     31.11
 64.87    924.35     30.40
 64.97    899.00     29.98
 65.07    845.00     29.07
 65.17    789.00     28.09
 65.27    733.00     27.07
 65.37    660.00     25.69
 65.47    690.23     26.27
 65.57    628.00     25.06
 65.67    590.00     24.29
 65.77    613.91     24.78
 65.87    535.96     23.15
 65.97    577.30     24.03
 66.07    601.00     24.52
 66.17    552.00     23.49
 66.27    505.00     22.47
 66.37    524.97     22.91
 66.47    597.59     24.45
 66.57    520.37     22.81
 66.67    601.20     24.52
 66.77    589.27     24.27
 66.87    633.05     25.16
 66.97    601.63     24.53
 67.07    663.74     25.76
 67.17    672.44     25.93
 67.27    736.00     27.13
 67.37    847.00     29.10
 67.47   1049.00     32.39
 67.57   1226.00     35.01
 67.67   1533.00     39.15
 67.77   1865.00     43.19
 67.87   2004.00     44.77
 67.97   2245.00     47.38
 68.07   2509.30     50.09
 68.17   2473.00     49.73
 68.27   2296.00     47.92
 68.37   2191.00     46.81
 68.47   1851.00     43.02
 68.57   1577.00     39.71
 68.67   1306.27     36.14
 68.77   1014.00     31.84
 68.87    936.16     30.60
 68.97    792.29     28.15
 69.07    731.00     27.04
 69.17    668.00     25.85
 69.27    613.00     24.76
 69.37    596.58     24.42
 69.47    626.00     25.02
 69.57    580.00     24.08
 69.67    548.99     23.43
 69.77    581.00     24.10
 69.87    548.00     23.41
 69.97    597.38     24.44
 70.07    564.00     23.75
 70.17    564.00     23.75
 70.27    595.12     24.40
 70.37    533.91     23.11
 70.47    612.96     24.76
 70.57    584.96     24.19
 70.67    526.00     22.93
 70.77    566.00     23.79
 70.87    646.24     25.42
 70.97    556.00     23.58
 71.07    637.00     25.24
 71.17    719.00     26.81
 71.27    754.00     27.46
 71.37    886.00     29.77
 71.47   1054.00     32.47
 71.57   1258.00     35.47
 71.67   1384.00     37.20
 71.77   1633.00     40.41
 71.87   1779.00     42.18
 71.97   1808.00     42.52
 72.07   1985.00     44.55
 72.17   1971.00     44.40
 72.27   1908.00     43.68
 72.37   1660.00     40.74
 72.47   1519.70     38.98
 72.57   1351.61     36.76
 72.67   1203.00     34.68
 72.77    992.00     31.50
 72.87    958.00     30.95
 72.97    842.00     29.02
 73.07    917.05     30.28
 73.17    729.00     27.00
 73.27    676.00     26.00
 73.37    678.00     26.04
 73.47    644.00     25.38
 73.57    596.00     24.41
 73.67    613.00     24.76
 73.77    588.92     24.27
 73.87    631.11     25.12
 73.97    599.21     24.48
 74.07    574.41     23.97
 74.17    628.00     25.06
 74.27    645.00     25.40
 74.37    573.87     23.96
 74.47    633.00     25.16
 74.57    663.00     25.75
 74.67    599.33     24.48
 74.77    637.00     25.24
 74.87    609.00     24.68
 74.97    559.00     23.64
 75.07    627.00     25.04
 75.17    591.00     24.31
 75.27    535.00     23.13
 75.37    583.00     24.15
 75.47    507.26     22.52
 75.57    581.00     24.10
 75.67    591.80     24.33
 75.77    549.00     23.43
 75.87    555.00     23.56
 75.97    586.21     24.21
 76.07    624.24     24.98
 76.17    638.81     25.27
 76.27    678.13     26.04
 76.37    710.99     26.66
 76.47    708.00     26.61
 76.57    672.00     25.92
 76.67    738.50     27.18
 76.77    652.36     25.54
 76.87    714.31     26.73
 76.97    669.00     25.87
 77.07    589.63     24.28
 77.17    563.92     23.75
 77.27    572.00     23.92
 77.37    569.00     23.85
 77.47    507.00     22.52
 77.57    552.26     23.50
 77.67    549.00     23.43
 77.77    545.00     23.35
 77.87    536.39     23.16
 77.97    493.00     22.20
 78.07    534.00     23.11
 78.17    512.00     22.63
 78.27    505.00     22.47
 78.37    551.76     23.49
 78.47    517.81     22.76
 78.57    527.00     22.96
 78.67    489.00     22.11
 78.77    539.89     23.24
 78.87    585.00     24.19
 78.97    531.00     23.04
 79.07    524.00     22.89
 79.17    531.17     23.05
 79.27    540.38     23.25
 79.37    537.00     23.17
 79.47    559.04     23.64
 79.57    495.55     22.26
 79.67    560.18     23.67
 79.77    565.21     23.77
 79.87    552.77     23.51
 79.97    515.00     22.69
 80.07    522.00     22.85
 80.17    529.00     23.00
 80.27    608.00     24.66
 80.37    588.52     24.26
 80.47    602.00     24.54
 80.57    609.65     24.69
 80.67    651.00     25.51
 80.77    644.00     25.38
 80.87    686.00     26.19
 80.97    671.96     25.92
 81.07    703.00     26.51
 81.17    764.52     27.65
 81.27    758.86     27.55
 81.37    798.50     28.26
 81.47    713.69     26.72
 81.57    771.95     27.78
 81.67    713.01     26.70
 81.77    700.83     26.47
 81.87    676.12     26.00
 81.97    707.48     26.60
 82.07    687.00     26.21
 82.17    653.36     25.56
 82.27    659.88     25.69
 82.37    621.01     24.92
 82.47    604.00     24.58
 82.57    616.00     24.82
 82.67    561.00     23.69
 82.77    514.00     22.67
 82.87    589.80     24.29
 82.97    560.00     23.66
 83.07    550.00     23.45
 83.17    517.82     22.76
 83.27    516.10     22.72
 83.37    518.00     22.76
 83.47    546.00     23.37
 83.57    559.00     23.64
 83.67    561.00     23.69
 83.77    584.00     24.17
 83.87    578.48     24.05
 83.97    564.00     23.75
 84.07    498.00     22.32
 84.17    592.00     24.33
 84.27    547.76     23.40
 84.37    525.95     22.93
 84.47    574.34     23.97
 84.57    545.00     23.35
 84.67    565.00     23.77
 84.77    557.91     23.62
 84.87    552.00     23.49
 84.97    521.86     22.84
 85.07    492.71     22.20
 85.17    530.00     23.02
 85.27    550.00     23.45
 85.37    528.00     22.98
 85.47    548.00     23.41
 85.57    489.00     22.11
 85.67    531.00     23.04
 85.77    506.00     22.49
 85.87    540.00     23.24
 85.97    505.00     22.47
 86.07    515.00     22.69
 86.17    557.62     23.61
 86.27    539.20     23.22
 86.37    488.00     22.09
 86.47    522.00     22.85
 86.57    511.00     22.61
 86.67    547.43     23.40
 86.77    587.00     24.23
 86.87    560.43     23.67
 86.97    602.00     24.54
 87.07    616.00     24.82
 87.17    592.72     24.35
 87.27    638.00     25.26
 87.37    661.00     25.71
 87.47    639.31     25.28
 87.57    613.12     24.76
 87.67    663.06     25.75
 87.77    612.00     24.74
 87.87    626.00     25.02
 87.97    587.00     24.23
 88.07    594.69     24.39
 88.17    582.06     24.13
 88.27    584.00     24.17
 88.37    549.00     23.43
 88.47    560.74     23.68
 88.57    570.00     23.87
 88.67    564.00     23.75
 88.77    617.00     24.84
 88.87    623.00     24.96
 88.97    589.00     24.27
 89.07    577.94     24.04
 89.17    604.06     24.58
 89.27    631.00     25.12
 89.37    591.00     24.31
 89.47    589.00     24.27
 89.57    525.00     22.91
 89.67    602.49     24.55
 89.77    594.00     24.37
 89.87    591.90     24.33
 89.97    601.00     24.52
 90.07    574.00     23.96
 90.17    551.57     23.49
 90.27    535.95     23.15
 90.37    502.00     22.41
 90.47    542.00     23.28
 90.57    581.00     24.10
 90.67    518.98     22.78
 90.77    506.00     22.49
 90.87    499.00     22.34
 90.97    500.98     22.38
 91.07    539.00     23.22
 91.17    512.12     22.63
 91.27    570.22     23.88
 91.37    493.58     22.22
 91.47    544.00     23.32
 91.57    541.00     23.26
 91.67    567.00     23.81
 91.77    533.00     23.09
 91.87    570.00     23.87
 91.97    525.45     22.92
 92.07    546.00     23.37
 92.17    567.00     23.81
 92.27    570.00     23.87
 92.37    562.95     23.73
 92.47    656.00     25.61
 92.57    689.70     26.26
 92.67    684.87     26.17
 92.77    642.95     25.36
 92.87    689.00     26.25
 92.97    812.00     28.50
 93.07    760.90     27.58
 93.17    713.27     26.71
 93.27    806.51     28.40
 93.37    764.46     27.65
 93.47    829.00     28.79
 93.57    838.00     28.95
 93.67    807.19     28.41
 93.77    816.00     28.57
 93.87    834.00     28.88
 93.97    825.00     28.72
 94.07    840.00     28.98
 94.17    868.00     29.46
 94.27    827.95     28.77
 94.37    812.15     28.50
 94.47    908.00     30.13
 94.57    908.00     30.13
 94.67    867.96     29.46
 94.77    951.00     30.84
 94.87    891.53     29.86
 94.97    886.00     29.77
 95.07    893.00     29.88
 95.17    852.00     29.19
 95.27    791.00     28.12
 95.37    830.00     28.81
 95.47    790.00     28.11
 95.57    758.00     27.53
 95.67    737.00     27.15
 95.77    710.00     26.65
 95.87    699.00     26.44
 95.97    720.58     26.84
 96.07    723.69     26.90
 96.17    734.08     27.09
 96.27    686.82     26.21
 96.37    756.00     27.50
 96.47    759.00     27.55
 96.57    855.00     29.24
 96.67    925.00     30.41
 96.77    956.00     30.92
 96.87   1084.00     32.92
 96.97   1124.00     33.53
 97.07   1173.00     34.25
 97.17   1249.51     35.35
 97.27   1375.00     37.08
 97.37   1366.58     36.97
 97.47   1388.00     37.26
 97.57   1401.00     37.43
 97.67   1374.31     37.07
 97.77   1327.00     36.43
 97.87   1408.00     37.52
 97.97   1236.84     35.17
 98.07   1259.00     35.48
 98.17   1112.00     33.35
 98.27   1093.10     33.06
 98.37   1029.02     32.08
 98.47    978.00     31.27
 98.57    873.00     29.55
 98.67    832.85     28.86
 98.77    821.32     28.66
 98.87    804.02     28.36
 98.97    811.00     28.48
 99.07    807.00     28.41
 99.17    807.16     28.41
 99.27    862.00     29.36
 99.37    905.00     30.08
 99.47    995.00     31.54
 99.57   1070.98     32.73
 99.67   1131.00     33.63
 99.77   1355.00     36.81
 99.87   1373.00     37.05
 99.97   1530.00     39.12
100.07   1623.00     40.29
100.17   1675.00     40.93
100.27   1847.00     42.98
100.37   2039.00     45.16
100.47   1971.59     44.40
100.57   2074.00     45.54
100.67   2125.00     46.10
100.77   2136.00     46.22
100.87   2098.00     45.80
100.97   2102.84     45.86
101.07   1931.00     43.94
101.17   1925.00     43.87
101.27   1823.30     42.70
101.37   1716.00     41.42
101.47   1564.50     39.55
101.57   1542.00     39.27
101.67   1462.00     38.24
101.77   1395.40     37.36
101.87   1249.23     35.34
101.97   1189.29     34.49
102.07   1154.00     33.97
102.17   1160.00     34.06
102.27   1189.00     34.48
102.37   1064.93     32.63
102.47   1042.00     32.28
102.57   1038.00     32.22
102.67   1007.58     31.74
102.77   1089.73     33.01
102.87    936.00     30.59
102.97    990.82     31.48
103.07    963.00     31.03
103.17    854.00     29.22
103.27    816.00     28.57
103.37    857.00     29.27
103.47    759.34     27.56
103.57    747.00     27.33
103.67    700.00     26.46
103.77    666.00     25.81
103.87    593.23     24.36
103.97    596.00     24.41
104.07    582.16     24.13
104.17    620.15     24.90
104.27    534.60     23.12
104.37    589.08     24.27
104.47    564.00     23.75
104.57    506.00     22.49
104.67    512.00     22.63
104.77    511.93     22.63
104.87    578.17     24.05
104.97    503.55     22.44
105.07    496.34     22.28
105.17    520.00     22.80
105.27    502.00     22.41
105.37    511.00     22.61
105.47    548.00     23.41
105.57    560.00     23.66
105.67    531.00     23.04
105.77    558.00     23.62
105.87    534.72     23.12
105.97    546.19     23.37
106.07    614.98     24.80
106.17    626.94     25.04
106.27    593.00     24.35
106.37    577.00     24.02
106.47    635.00     25.20
106.57    638.04     25.26
106.67    661.15     25.71
106.77    634.16     25.18
106.87    696.49     26.39
106.97    650.00     25.50
107.07    653.00     25.55
107.17    679.00     26.06
107.27    667.00     25.83
107.37    751.66     27.42
107.47    659.00     25.67
107.57    683.00     26.13
107.67    715.09     26.74
107.77    685.01     26.17
107.87    685.72     26.19
107.97    678.00     26.04
108.07    693.00     26.32
108.17    672.86     25.94
108.27    696.00     26.38
108.37    668.00     25.85
108.47    693.00     26.32
108.57    684.00     26.15
108.67    703.30     26.52
108.77    745.00     27.29
108.87    649.42     25.48
108.97    642.36     25.34
109.07    631.01     25.12
109.17    665.65     25.80
109.27    678.00     26.04
109.37    658.00     25.65
109.47    653.00     25.55
109.57    648.00     25.46
109.67    636.00     25.22
109.77    636.00     25.22
109.87    662.00     25.73
109.97    684.00     26.15
110.07    637.00     25.24
110.17    555.00     23.56
110.27    601.92     24.53
110.37    576.71     24.01
110.47    575.00     23.98
110.57    511.00     22.61
110.67    545.00     23.35
110.77    523.00     22.87
110.87    560.00     23.66
110.97    575.00     23.98
111.07    527.80     22.97
111.17    558.00     23.62
111.27    503.00     22.43
111.37    534.00     23.11
111.47    514.00     22.67
111.57    553.14     23.52
111.67    583.00     24.15
111.77    590.00     24.29
111.87    543.00     23.30
111.97    522.50     22.86
112.07    565.00     23.77
112.17    557.00     23.60
112.27    593.00     24.35
112.37    629.66     25.09
112.47    568.00     23.83
112.57    531.00     23.04
112.67    665.45     25.80
112.77    673.61     25.95
112.87    627.40     25.05
112.97    666.00     25.81
113.07    756.00     27.50
113.17    738.00     27.17
113.27    788.00     28.07
113.37    819.00     28.62
113.47    789.00     28.09
113.57    790.00     28.11
113.67    918.00     30.30
113.77    859.02     29.31
113.87    987.15     31.42
113.97    983.00     31.35
114.07   1108.21     33.29
114.17   1098.00     33.14
114.27   1152.35     33.95
114.37   1223.00     34.97
114.47   1402.09     37.44
114.57   1407.19     37.51
114.67   1537.00     39.20
114.77   1755.00     41.89
114.87   2014.00     44.88
114.97   2002.50     44.75
115.07   2377.10     48.76
115.17   2537.00     50.37
115.27   2892.00     53.78
115.37   3074.56     55.45
115.47   3424.00     58.51
115.57   3884.44     62.33
115.67   4085.00     63.91
115.77   4457.00     66.76
115.87   4855.21     69.68
115.97   5094.00     71.37
116.07   5528.00     74.35
116.17   6197.25     78.72
116.27   6466.67     80.42
116.37   6591.00     81.18
116.47   6828.00     82.63
116.57   6930.00     83.25
116.67   6999.07     83.66
116.77   6964.00     83.45
116.87   6887.00     82.99
116.97   6661.00     81.61
117.07   6346.41     79.66
117.17   5988.90     77.39
117.27   5805.28     76.19
117.37   5283.00     72.68
117.47   5093.00     71.37
117.57   4628.00     68.03
117.67   4447.00     66.69
117.77   4133.00     64.29
117.87   3638.00     60.32
117.97   3270.00     57.18
118.07   2746.68     52.41
118.17   2417.91     49.17
118.27   2184.00     46.73
118.37   2015.00     44.89
118.47   1746.00     41.79
118.57   1512.00     38.88
118.67   1352.00     36.77
118.77   1213.00     34.83
118.87   1074.00     32.77
118.97    999.00     31.61
119.07    913.00     30.22
119.17    833.00     28.86
119.27    867.38     29.45
119.37    804.49     28.36
119.47    786.42     28.04
119.57    713.00     26.70
119.67    604.00     24.58
119.77    666.00     25.81
119.87    625.38     25.01
119.97    617.00     24.84
120.07    564.00     23.75
120.17    646.00     25.42
120.27    602.00     24.54
120.37    598.00     24.45
120.47    603.00     24.56
120.57    565.00     23.77
120.67    574.00     23.96
120.77    614.44     24.79
120.87    610.00     24.70
120.97    594.00     24.37
121.07    558.00     23.62
121.17    611.92     24.74
121.27    637.00     25.24
121.37    537.00     23.17
121.47    613.71     24.77
121.57    545.65     23.36
121.67    576.12     24.00
121.77    606.02     24.62
121.87    574.24     23.96
121.97    598.30     24.46
122.07    599.12     24.48
122.17    640.00     25.30
122.27    624.00     24.98
122.37    592.00     24.33
122.47    641.00     25.32
122.57    656.08     25.61
122.67    655.00     25.59
122.77    633.00     25.16
122.87    631.00     25.12
122.97    596.96     24.43
123.07    600.31     24.50
123.17    671.00     25.90
123.27    679.82     26.07
123.37    678.00     26.04
123.47    597.54     24.44
123.57    662.19     25.73
123.67    579.77     24.08
123.77    636.00     25.22
123.87    666.22     25.81
123.97    657.00     25.63
124.07    670.00     25.88
124.17    643.08     25.36
124.27    609.00     24.68
124.37    555.93     23.58
124.47    561.59     23.70
124.57    537.00     23.17
124.67    599.49     24.48
124.77    565.63     23.78
124.87    535.89     23.15
124.97    604.00     24.58
