XYDATA



INTER 1.0 1.0 0 0
TEMP 650.889
  9.97    653.45     25.56
 10.07    700.00     26.46
 10.17    692.00     26.31
 10.27    641.00     25.32
 10.37    707.10     26.59
 10.47    651.00     25.51
 10.57    719.85     26.83
 10.67    716.20     26.76
 10.77    714.00     26.72
 10.87    661.00     25.71
 10.97    711.19     26.67
 11.07    696.00     26.38
 11.17    668.00     25.85
 11.27    667.00     25.83
 11.37    703.00     26.51
 11.47    712.00     26.68
 11.57    710.00     26.65
 11.67    774.00     27.82
 11.77    719.00     26.81
 11.87    643.44     25.37
 11.97    697.53     26.41
 12.07    843.00     29.03
 12.17    776.15     27.86
 12.27    748.49     27.36
 12.37    747.77     27.35
 12.47    721.00     26.85
 12.57    744.37     27.28
 12.67    733.87     27.09
 12.77    640.00     25.30
 12.87    703.88     26.53
 12.97    627.00     25.04
 13.07    631.00     25.12
 13.17    627.00     25.04
 13.27    647.00     25.44
 13.37    652.00     25.53
 13.47    623.00     24.96
 13.57    683.00     26.13
 13.67    633.32     25.17
 13.77    674.45     25.97
 13.87    697.58     26.41
 13.97    658.00     25.65
 14.07    646.00     25.42
 14.17    598.41     24.46
 14.27    601.00     24.52
 14.37    612.00     24.74
 14.47    680.01     26.08
 14.57    635.00     25.20
 14.67    608.00     24.66
 14.77    668.37     25.85
 14.87    627.00     25.04
 14.97    599.00     24.47
 15.07    651.06     25.52
 15.17    678.00     26.04
 15.27    624.00     24.98
 15.37    645.00     25.40
 15.47    616.00     24.82
 15.57    632.00     25.14
 15.67    661.66     25.72
 15.77    625.00     25.00
 15.87    591.00     24.31
 15.97    604.00     24.58
 16.07    658.00     25.65
 16.17    582.32     24.13
 16.27    676.57     26.01
 16.37    628.00     25.06
 16.47    657.43     25.64
 16.57    589.83     24.29
 16.67    624.00     24.98
 16.77    655.00     25.59
 16.87    661.92     25.73
 16.97    574.00     23.96
 17.07    609.00     24.68
 17.17    675.38     25.99
 17.27    631.28     25.13
 17.37    635.00     25.20
 17.47    608.00     24.66
 17.57    615.00     24.80
 17.67    616.00     24.82
 17.77    588.00     24.25
 17.87    596.00     24.41
 17.97    606.00     24.62
 18.07    610.42     24.71
 18.17    610.04     24.70
 18.27    636.51     25.23
 18.37    656.35     25.62
 18.47    596.00     24.41
 18.57    604.00     24.58
 18.67    659.88     25.69
 18.77    632.00     25.14
 18.87    638.22     25.26
 18.97    562.00     23.71
 19.07    628.05     25.06
 19.17    627.31     25.05
 19.27    615.00     24.80
 19.37    572.00     23.92
 19.47    629.00     25.08
 19.57    641.00     25.32
 19.67    609.00     24.68
 19.77    618.00     24.86
 19.87    601.03     24.52
 19.97    591.00     24.31
 20.07    600.00     24.49
 20.17    636.00     25.22
 20.27    556.00     23.58
 20.37    626.15     25.02
 20.47    568.68     23.85
 20.57    657.80     25.65
 20.67    618.27     24.87
 20.77    600.00     24.49
 20.87    607.00     24.64
 20.97    600.47     24.50
 21.07    631.84     25.14
 21.17    616.00     24.82
 21.27    545.00     23.35
 21.37    586.00     24.21
 21.47    592.52     24.34
 21.57    578.00     24.04
 21.67    594.00     24.37
 21.77    634.14     25.18
 21.87    635.54     25.21
 21.97    572.00     23.92
 22.07    628.73     25.07
 22.17    654.85     25.59
 22.27    581.00     24.10
 22.37    592.00     24.33
 22.47    640.27     25.30
 22.57    597.65     24.45
 22.67    542.00     23.28
 22.77    608.00     24.66
 22.87    564.01     23.75
 22.97    540.00     23.24
 23.07    608.00     24.66
 23.17    581.00     24.10
 23.27    641.73     25.33
 23.37    570.54     23.89
 23.47    626.74     25.03
 23.57    602.91     24.55
 23.67    594.00     24.37
 23.77    619.33     24.89
 23.87    628.48     25.07
 23.97    574.00     23.96
 24.07    626.87     25.04
 24.17    636.00     25.22
 24.27    593.00     24.35
 24.37    654.79     25.59
 24.47    708.00     26.61
 24.57    668.00     25.85
 24.67    668.00     25.85
 24.77    705.00     26.55
 24.87    637.37     25.25
 24.97    715.40     26.75
 25.07    697.00     26.40
 25.17    714.00     26.72
 25.27    641.00     25.32
 25.37    581.50     24.11
 25.47    638.00     25.26
 25.57    654.45     25.58
 25.67    624.00     24.98
 25.77    636.00     25.22
 25.87    570.86     23.89
 25.97    609.92     24.70
 26.07    651.40     25.52
 26.17    607.00     24.64
 26.27    659.00     25.67
 26.37    643.00     25.36
 26.47    574.07     23.96
 26.57    643.00     25.36
 26.67    662.00     25.73
 26.77    741.00     27.22
 26.87    670.00     25.88
 26.97    679.00     26.06
 27.07    673.15     25.95
 27.17    637.51     25.25
 27.27    629.00     25.08
 27.37    619.33     24.89
 27.47    720.00     26.83
 27.57    721.00     26.85
 27.67    797.00     28.23
 27.77    831.00     28.83
 27.87    972.00     31.18
 27.97   1147.00     33.87
 28.07   1730.56     41.60
 28.17   2605.00     51.04
 28.27   3952.05     62.87
 28.37   4687.00     68.46
 28.47   4562.86     67.55
 28.57   3944.31     62.80
 28.67   2878.00     53.65
 28.77   2216.00     47.07
 28.87   2182.00     46.71
 28.97   2550.00     50.50
 29.07   2802.24     52.94
 29.17   2766.00     52.59
 29.27   2402.00     49.01
 29.37   1842.00     42.92
 29.47   1305.00     36.12
 29.57   1063.00     32.60
 29.67    877.65     29.63
 29.77    805.24     28.38
 29.87    776.00     27.86
 29.97    749.00     27.37
 30.07    697.00     26.40
 30.17    595.74     24.41
 30.27    607.42     24.65
 30.37    676.01     26.00
 30.47    678.00     26.04
 30.57    646.00     25.42
 30.67    677.58     26.03
 30.77    605.56     24.61
 30.87    634.80     25.20
 30.97    654.15     25.58
 31.07    746.00     27.31
 31.17    705.25     26.56
 31.27    706.00     26.57
 31.37    700.00     26.46
 31.47    668.59     25.86
 31.57    600.60     24.51
 31.67    668.00     25.85
 31.77    631.00     25.12
 31.87    633.00     25.16
 31.97    614.00     24.78
 32.07    582.00     24.12
 32.17    573.64     23.95
 32.27    621.35     24.93
 32.37    587.07     24.23
 32.47    573.00     23.94
 32.57    584.00     24.17
 32.67    614.00     24.78
 32.77    583.00     24.15
 32.87    578.00     24.04
 32.97    607.80     24.65
 33.07    588.00     24.25
 33.17    597.00     24.43
 33.27    613.48     24.77
 33.37    636.94     25.24
 33.47    536.00     23.15
 33.57    653.00     25.55
 33.67    622.53     24.95
 33.77    649.00     25.48
 33.87    798.00     28.25
 33.97    838.00     28.95
 34.07   1003.00     31.67
 34.17   1120.00     33.47
 34.27   1193.36     34.55
 34.37   1149.00     33.90
 34.47    976.00     31.24
 34.57    792.00     28.14
 34.67    704.00     26.53
 34.77    693.00     26.32
 34.87    649.00     25.48
 34.97    652.90     25.55
 35.07    670.00     25.88
 35.17    638.51     25.27
 35.27    580.00     24.08
 35.37    568.00     23.83
 35.47    594.00     24.37
 35.57    542.00     23.28
 35.67    589.36     24.28
 35.77    538.88     23.21
 35.87    539.43     23.23
 35.97    585.00     24.19
 36.07    596.00     24.41
 36.17    527.75     22.97
 36.27    571.00     23.90
 36.37    573.00     23.94
 36.47    538.96     23.22
 36.57    552.00     23.49
 36.67    584.00     24.17
 36.77    546.00     23.37
 36.87    613.00     24.76
 36.97    524.00     22.89
 37.07    560.84     23.68
 37.17    551.00     23.47
 37.27    578.00     24.04
 37.37    589.00     24.27
 37.47    608.00     24.66
 37.57    568.00     23.83
 37.67    577.00     24.02
 37.77    562.56     23.72
 37.87    641.73     25.33
 37.97    581.71     24.12
 38.07    613.00     24.76
 38.17    618.40     24.87
 38.27    651.00     25.51
 38.37    587.00     24.23
 38.47    609.00     24.68
 38.57    624.00     24.98
 38.67    562.00     23.71
 38.77    547.23     23.39
 38.87    592.00     24.33
 38.97    566.00     23.79
 39.07    566.79     23.81
 39.17    502.00     22.41
 39.27    546.54     23.38
 39.37    597.81     24.45
 39.47    530.00     23.02
 39.57    574.00     23.96
 39.67    543.00     23.30
 39.77    575.00     23.98
 39.87    570.00     23.87
 39.97    541.34     23.27
 40.07    519.36     22.79
 40.17    557.80     23.62
 40.27    555.00     23.56
 40.37    561.00     23.69
 40.47    545.00     23.35
 40.57    522.00     22.85
 40.67    532.00     23.07
 40.77    569.00     23.85
 40.87    509.00     22.56
 40.97    567.00     23.81
 41.07    583.00     24.15
 41.17    559.04     23.64
 41.27    513.11     22.65
 41.37    547.63     23.40
 41.47    571.00     23.90
 41.57    550.00     23.45
 41.67    551.00     23.47
 41.77    587.73     24.24
 41.87    560.00     23.66
 41.97    577.71     24.04
 42.07    561.39     23.69
 42.17    528.12     22.98
 42.27    587.63     24.24
 42.37    506.00     22.49
 42.47    625.99     25.02
 42.57    598.00     24.45
 42.67    535.00     23.13
 42.77    651.85     25.53
 42.87    617.00     24.84
 42.97    676.00     26.00
 43.07    607.00     24.64
 43.17    667.73     25.84
 43.27    667.67     25.84
 43.37    535.00     23.13
 43.47    577.64     24.03
 43.57    555.71     23.57
 43.67    597.00     24.43
 43.77    541.30     23.27
 43.87    535.00     23.13
 43.97    565.00     23.77
 44.07    553.00     23.52
 44.17    584.00     24.17
 44.27    566.00     23.79
 44.37    555.00     23.56
 44.47    598.00     24.45
 44.57    607.00     24.64
 44.67    563.00     23.73
 44.77    560.00     23.66
 44.87    577.82     24.04
 44.97    512.20     22.63
 45.07    535.64     23.14
 45.17    560.00     23.66
 45.27    560.00     23.66
 45.37    613.00     24.76
 45.47    535.15     23.13
 45.57    549.00     23.43
 45.67    550.00     23.45
 45.77    559.27     23.65
 45.87    585.00     24.19
 45.97    551.00     23.47
 46.07    605.28     24.60
 46.17    550.00     23.45
 46.27    539.00     23.22
 46.37    580.68     24.10
 46.47    565.00     23.77
 46.57    514.00     22.67
 46.67    533.82     23.10
 46.77    556.85     23.60
 46.87    533.00     23.09
 46.97    529.00     23.00
 47.07    548.00     23.41
 47.17    561.88     23.70
 47.27    599.21     24.48
 47.37    519.32     22.79
 47.47    555.00     23.56
 47.57    552.00     23.49
 47.67    557.03     23.60
 47.77    578.00     24.04
 47.87    661.02     25.71
 47.97    608.00     24.66
 48.07    683.59     26.15
 48.17    679.00     26.06
 48.27    630.00     25.10
 48.37    635.00     25.20
 48.47    613.12     24.76
 48.57    662.00     25.73
 48.67    600.00     24.49
 48.77    635.65     25.21
 48.87    574.00     23.96
 48.97    588.00     24.25
 49.07    604.00     24.58
 49.17    554.46     23.55
 49.27    633.09     25.16
 49.37    630.00     25.10
 49.47    626.00     25.02
 49.57    607.00     24.64
 49.67    652.00     25.53
 49.77    775.00     27.84
 49.87    853.00     29.21
 49.97   1101.00     33.18
 50.07   1346.00     36.69
 50.17   1733.00     41.63
 50.27   2246.04     47.39
 50.37   2575.00     50.74
 50.47   2796.00     52.88
 50.57   2661.00     51.58
 50.67   2404.00     49.03
 50.77   2037.00     45.13
 50.87   1600.00     40.00
 50.97   1204.00     34.70
 51.07   1020.00     31.94
 51.17    832.38     28.85
 51.27    822.48     28.68
 51.37    766.00     27.68
 51.47    661.46     25.72
 51.57    699.00     26.44
 51.67    656.00     25.61
 51.77    658.00     25.65
 51.87    681.00     26.10
 51.97    600.49     24.50
 52.07    587.85     24.25
 52.17    643.00     25.36
 52.27    619.00     24.88
 52.37    610.00     24.70
 52.47    585.00     24.19
 52.57    678.00     26.04
 52.67    631.00     25.12
 52.77    618.00     24.86
 52.87    638.00     25.26
 52.97    651.00     25.51
 53.07    664.00     25.77
 53.17    711.41     26.67
 53.27    772.66     27.80
 53.37    877.00     29.61
 53.47    884.49     29.74
 53.57   1037.48     32.21
 53.67   1216.00     34.87
 53.77   1301.00     36.07
 53.87   1308.45     36.17
 53.97   1247.35     35.32
 54.07   1175.54     34.29
 54.17   1040.00     32.25
 54.27    968.00     31.11
 54.37    769.00     27.73
 54.47    769.00     27.73
 54.57    716.00     26.76
 54.67    674.00     25.96
 54.77    644.00     25.38
 54.87    660.37     25.70
 54.97    590.08     24.29
 55.07    666.00     25.81
 55.17    625.00     25.00
 55.27    716.00     26.76
 55.37    665.00     25.79
 55.47    601.89     24.53
 55.57    629.00     25.08
 55.67    576.00     24.00
 55.77    586.95     24.23
 55.87    599.00     24.47
 55.97    678.99     26.06
 56.07    666.00     25.81
 56.17    706.00     26.57
 56.27    767.55     27.70
 56.37    779.00     27.91
 56.47    880.92     29.68
 56.57   1089.45     33.01
 56.67   1177.00     34.31
 56.77   1444.00     38.00
 56.87   1745.00     41.77
 56.97   2167.23     46.55
 57.07   2489.00     49.89
 57.17   2589.00     50.88
 57.27   2695.00     51.91
 57.37   2424.00     49.23
 57.47   2276.00     47.71
 57.57   1952.00     44.18
 57.67   1508.93     38.84
 57.77   1379.98     37.15
 57.87   1089.00     33.00
 57.97    872.00     29.53
 58.07    802.00     28.32
 58.17    833.41     28.87
 58.27    732.00     27.06
 58.37    743.95     27.28
 58.47    826.00     28.74
 58.57    793.00     28.16
 58.67    860.00     29.33
 58.77    899.00     29.98
 58.87   1057.42     32.52
 58.97   1067.02     32.67
 59.07   1187.00     34.45
 59.17   1203.00     34.68
 59.27   1290.54     35.92
 59.37   1324.59     36.39
 59.47   1297.00     36.01
 59.57   1268.00     35.61
 59.67   1156.93     34.01
 59.77   1189.00     34.48
 59.87   1100.09     33.17
 59.97   1196.00     34.58
 60.07   1198.00     34.61
 60.17   1272.00     35.67
 60.27   1292.00     35.94
 60.37   1457.00     38.17
 60.47   1567.51     39.59
 60.57   1599.00     39.99
 60.67   1593.06     39.91
 60.77   1496.15     38.68
 60.87   1409.00     37.54
 60.97   1219.00     34.91
 61.07   1108.00     33.29
 61.17    943.00     30.71
 61.27    851.00     29.17
 61.37    882.00     29.70
 61.47    762.00     27.60
 61.57    787.00     28.05
 61.67    776.08     27.86
 61.77    776.00     27.86
 61.87    828.53     28.78
 61.97    943.00     30.71
 62.07   1034.85     32.17
 62.17   1200.00     34.64
 62.27   1342.00     36.63
 62.37   1419.00     37.67
 62.47   1623.00     40.29
 62.57   1491.00     38.61
 62.67   1494.00     38.65
 62.77   1419.00     37.67
 62.87   1231.94     35.10
 62.97   1135.00     33.69
 63.07   1011.00     31.80
 63.17    932.00     30.53
 63.27    867.65     29.46
 63.37    804.00     28.35
 63.47    700.95     26.48
 63.57    690.00     26.27
 63.67    644.90     25.39
 63.77    654.00     25.57
 63.87    704.00     26.53
 63.97    718.00     26.80
 64.07    699.00     26.44
 64.17    704.00     26.53
 64.27    765.00     27.66
 64.37    816.27     28.57
 64.47    842.00     29.02
 64.57    942.89     30.71
 64.67   1046.00     32.34
 64.77   1138.00     33.73
 64.87   1212.00     34.81
 64.97   1253.00     35.40
 65.07   1327.00     36.43
 65.17   1277.00     35.74
 65.27   1322.00     36.36
 65.37   1147.97     33.88
 65.47   1166.00     34.15
 65.57   1002.00     31.65
 65.67    895.00     29.92
 65.77    858.80     29.31
 65.87    817.31     28.59
 65.97    726.00     26.94
 66.07    679.31     26.06
 66.17    764.25     27.65
 66.27    665.00     25.79
 66.37    725.66     26.94
 66.47    715.51     26.75
 66.57    621.00     24.92
 66.67    623.00     24.96
 66.77    613.16     24.76
 66.87    648.00     25.46
 66.97    652.00     25.53
 67.07    670.00     25.88
 67.17    660.00     25.69
 67.27    656.00     25.61
 67.37    693.00     26.32
 67.47    741.00     27.22
 67.57    846.00     29.09
 67.67    922.92     30.38
 67.77   1058.00     32.53
 67.87   1220.81     34.94
 67.97   1385.00     37.22
 68.07   1647.38     40.59
 68.17   1912.00     43.73
 68.27   2217.73     47.09
 68.37   2369.00     48.67
 68.47   2442.00     49.42
 68.57   2416.00     49.15
 68.67   2459.00     49.59
 68.77   2123.62     46.08
 68.87   1997.52     44.69
 68.97   1676.00     40.94
 69.07   1496.00     38.68
 69.17   1243.00     35.26
 69.27   1156.24     34.00
 69.37   1016.10     31.88
 69.47    880.61     29.68
 69.57    792.69     28.15
 69.67    734.62     27.10
 69.77    727.91     26.98
 69.87    656.34     25.62
 69.97    696.67     26.39
 70.07    700.48     26.47
 70.17    620.92     24.92
 70.27    648.00     25.46
 70.37    619.00     24.88
 70.47    653.00     25.55
 70.57    623.56     24.97
 70.67    609.00     24.68
 70.77    611.59     24.73
 70.87    668.43     25.85
 70.97    665.00     25.79
 71.07    617.00     24.84
 71.17    702.00     26.50
 71.27    701.00     26.48
 71.37    773.00     27.80
 71.47    761.00     27.59
 71.57    765.53     27.67
 71.67    950.00     30.82
 71.77   1033.00     32.14
 71.87   1148.91     33.90
 71.97   1307.00     36.15
 72.07   1451.36     38.10
 72.17   1604.00     40.05
 72.27   1706.86     41.31
 72.37   1930.00     43.93
 72.47   1901.53     43.61
 72.57   1972.33     44.41
 72.67   1904.00     43.63
 72.77   1679.89     40.99
 72.87   1601.00     40.01
 72.97   1473.00     38.38
 73.07   1171.00     34.22
 73.17   1061.00     32.57
 73.27    950.63     30.83
 73.37    879.76     29.66
 73.47    817.52     28.59
 73.57    781.70     27.96
 73.67    693.00     26.32
 73.77    728.10     26.98
 73.87    668.00     25.85
 73.97    671.08     25.91
 74.07    637.00     25.24
 74.17    631.86     25.14
 74.27    643.00     25.36
 74.37    608.00     24.66
 74.47    657.62     25.64
 74.57    680.00     26.08
 74.67    670.00     25.88
 74.77    628.00     25.06
 74.87    630.00     25.10
 74.97    618.67     24.87
 75.07    707.00     26.59
 75.17    627.70     25.05
 75.27    606.78     24.63
 75.37    676.00     26.00
 75.47    685.00     26.17
 75.57    661.00     25.71
 75.67    634.92     25.20
 75.77    647.00     25.44
 75.87    598.44     24.46
 75.97    604.00     24.58
 76.07    618.38     24.87
 76.17    645.00     25.40
 76.27    616.00     24.82
 76.37    665.00     25.79
 76.47    729.51     27.01
 76.57    753.00     27.44
 76.67    756.30     27.50
 76.77    823.00     28.69
 76.87    850.00     29.15
 76.97    856.00     29.26
 77.07    914.00     30.23
 77.17    889.72     29.83
 77.27    820.60     28.65
 77.37    786.61     28.05
 77.47    760.00     27.57
 77.57    732.00     27.06
 77.67    707.00     26.59
 77.77    682.30     26.12
 77.87    644.00     25.38
 77.97    586.00     24.21
 78.07    597.48     24.44
 78.17    578.06     24.04
 78.27    651.70     25.53
 78.37    557.00     23.60
 78.47    613.13     24.76
 78.57    588.00     24.25
 78.67    543.36     23.31
 78.77    538.66     23.21
 78.87    584.00     24.17
 78.97    541.00     23.26
 79.07    599.00     24.47
 79.17    564.39     23.76
 79.27    545.27     23.35
 79.37    556.00     23.58
 79.47    558.00     23.62
 79.57    573.04     23.94
 79.67    590.96     24.31
 79.77    569.00     23.85
 79.87    552.00     23.49
 79.97    561.00     23.69
 80.07    593.31     24.36
 80.17    578.00     24.04
 80.27    613.00     24.76
 80.37    625.00     25.00
 80.47    608.00     24.66
 80.57    670.00     25.88
 80.67    715.87     26.76
 80.77    747.00     27.33
 80.87    786.00     28.04
 80.97    839.00     28.97
 81.07    879.24     29.65
 81.17    931.88     30.53
 81.27    943.28     30.71
 81.37   1053.00     32.45
 81.47   1049.00     32.39
 81.57   1055.00     32.48
 81.67   1125.00     33.54
 81.77   1141.00     33.78
 81.87   1100.00     33.17
 81.97   1014.96     31.86
 82.07   1020.00     31.94
 82.17    942.26     30.70
 82.27    923.55     30.39
 82.37    907.94     30.13
 82.47    851.00     29.17
 82.57    804.00     28.35
 82.67    753.00     27.44
 82.77    712.00     26.68
 82.87    730.00     27.02
 82.97    683.00     26.13
 83.07    643.00     25.36
 83.17    641.95     25.34
 83.27    597.00     24.43
 83.37    555.00     23.56
 83.47    648.00     25.46
 83.57    645.80     25.41
 83.67    587.00     24.23
 83.77    569.00     23.85
 83.87    583.00     24.15
 83.97    572.04     23.92
 84.07    638.00     25.26
 84.17    649.00     25.48
 84.27    630.44     25.11
 84.37    622.00     24.94
 84.47    604.00     24.58
 84.57    641.00     25.32
 84.67    588.00     24.25
 84.77    626.15     25.02
 84.87    606.49     24.63
 84.97    577.00     24.02
 85.07    588.00     24.25
 85.17    554.99     23.56
 85.27    578.00     24.04
 85.37    550.54     23.46
 85.47    573.00     23.94
 85.57    600.24     24.50
 85.67    598.04     24.45
 85.77    564.31     23.76
 85.87    566.00     23.79
 85.97    565.00     23.77
 86.07    543.92     23.32
 86.17    624.39     24.99
 86.27    521.00     22.83
 86.37    624.38     24.99
 86.47    608.00     24.66
 86.57    611.00     24.72
 86.67    614.63     24.79
 86.77    586.00     24.21
 86.87    628.89     25.08
 86.97    603.00     24.56
 87.07    613.00     24.76
 87.17    644.00     25.38
 87.27    653.00     25.55
 87.37    673.29     25.95
 87.47    594.41     24.38
 87.57    694.60     26.36
 87.67    660.13     25.69
 87.77    673.24     25.95
 87.87    676.00     26.00
 87.97    689.00     26.25
 88.07    763.00     27.62
 88.17    724.00     26.91
 88.27    670.07     25.89
 88.37    713.00     26.70
 88.47    650.00     25.50
 88.57    683.58     26.15
 88.67    653.00     25.55
 88.77    686.00     26.19
 88.87    631.00     25.12
 88.97    625.00     25.00
 89.07    620.21     24.90
 89.17    636.00     25.22
 89.27    562.44     23.72
 89.37    636.00     25.22
 89.47    642.00     25.34
 89.57    601.00     24.52
 89.67    607.77     24.65
 89.77    580.00     24.08
 89.87    645.67     25.41
 89.97    595.00     24.39
 90.07    680.80     26.09
 90.17    622.00     24.94
 90.27    683.00     26.13
 90.37    653.83     25.57
 90.47    622.00     24.94
 90.57    604.00     24.58
 90.67    565.50     23.78
 90.77    618.00     24.86
 90.87    555.00     23.56
 90.97    594.56     24.38
 91.07    548.00     23.41
 91.17    545.42     23.35
 91.27    560.00     23.66
 91.37    528.00     22.98
 91.47    532.79     23.08
 91.57    587.63     24.24
 91.67    550.00     23.45
 91.77    576.00     24.00
 91.87    579.00     24.06
 91.97    545.00     23.35
 92.07    548.53     23.42
 92.17    580.00     24.08
 92.27    552.00     23.49
 92.37    573.00     23.94
 92.47    589.00     24.27
 92.57    544.00     23.32
 92.67    587.00     24.23
 92.77    581.58     24.12
 92.87    606.11     24.62
 92.97    597.00     24.43
 93.07    685.00     26.17
 93.17    665.67     25.80
 93.27    685.00     26.17
 93.37    685.00     26.17
 93.47    674.86     25.98
 93.57    679.00     26.06
 93.67    739.00     27.18
 93.77    774.00     27.82
 93.87    777.00     27.87
 93.97    786.02     28.04
 94.07    836.00     28.91
 94.17    791.00     28.12
 94.27    897.63     29.96
 94.37    813.00     28.51
 94.47    920.87     30.35
 94.57    877.62     29.62
 94.67    917.00     30.28
 94.77    872.78     29.54
 94.87    936.93     30.61
 94.97    915.00     30.25
 95.07    905.50     30.09
 95.17    983.00     31.35
 95.27    983.00     31.35
 95.37    913.88     30.23
 95.47   1016.00     31.87
 95.57    944.00     30.72
 95.67    996.00     31.56
 95.77    975.00     31.22
 95.87    928.03     30.46
 95.97    929.00     30.48
 96.07    875.03     29.58
 96.17    811.87     28.49
 96.27    820.00     28.64
 96.37    822.00     28.67
 96.47    748.22     27.35
 96.57    764.00     27.64
 96.67    789.83     28.10
 96.77    737.00     27.15
 96.87    862.00     29.36
 96.97    817.00     28.58
 97.07    909.00     30.15
 97.17    886.52     29.77
 97.27    937.95     30.63
 97.37   1064.94     32.63
 97.47   1039.00     32.23
 97.57   1210.00     34.79
 97.67   1209.00     34.77
 97.77   1389.34     37.27
 97.87   1417.00     37.64
 97.97   1419.00     37.67
 98.07   1503.00     38.77
 98.17   1481.00     38.48
 98.27   1579.00     39.74
 98.37   1500.47     38.74
 98.47   1522.70     39.02
 98.57   1514.00     38.91
 98.67   1392.00     37.31
 98.77   1327.49     36.43
 98.87   1358.45     36.86
 98.97   1260.87     35.51
 99.07   1102.06     33.20
 99.17   1105.58     33.25
 99.27   1112.09     33.35
 99.37   1064.75     32.63
 99.47    947.00     30.77
 99.57    999.00     31.61
 99.67    943.00     30.71
 99.77   1003.06     31.67
 99.87   1020.00     31.94
 99.97    999.00     31.61
100.07   1109.72     33.31
100.17   1099.00     33.15
100.27   1147.00     33.87
100.37   1277.00     35.74
100.47   1411.00     37.56
100.57   1482.00     38.50
100.67   1595.76     39.95
100.77   1668.00     40.84
100.87   1649.56     40.61
100.97   1801.00     42.44
101.07   1922.00     43.84
101.17   1984.63     44.55
101.27   1981.00     44.51
101.37   1949.68     44.16
101.47   2074.63     45.55
101.57   2051.00     45.29
101.67   1965.19     44.33
101.77   2103.00     45.86
101.87   1930.00     43.93
101.97   1940.00     44.05
102.07   1836.00     42.85
102.17   1699.00     41.22
102.27   1643.00     40.53
102.37   1675.08     40.93
102.47   1570.42     39.63
102.57   1517.00     38.95
102.67   1355.00     36.81
102.77   1409.00     37.54
102.87   1255.00     35.43
102.97   1375.93     37.09
103.07   1207.58     34.75
103.17   1110.00     33.32
103.27   1276.55     35.73
103.37   1157.10     34.02
103.47   1111.00     33.33
103.57   1110.21     33.32
103.67   1114.04     33.38
103.77   1051.57     32.43
103.87   1006.00     31.72
103.97    912.00     30.20
104.07    949.00     30.81
104.17    913.00     30.22
104.27    816.24     28.57
104.37    799.00     28.27
104.47    756.00     27.50
104.57    693.00     26.32
104.67    678.25     26.04
104.77    713.00     26.70
104.87    693.00     26.32
104.97    679.00     26.06
105.07    635.82     25.22
105.17    557.85     23.62
105.27    571.22     23.90
105.37    639.12     25.28
105.47    579.00     24.06
105.57    616.00     24.82
105.67    627.00     25.04
105.77    609.00     24.68
105.87    612.00     24.74
105.97    558.00     23.62
106.07    621.63     24.93
106.17    542.94     23.30
106.27    593.00     24.35
106.37    550.19     23.46
106.47    599.00     24.47
106.57    581.93     24.12
106.67    625.00     25.00
106.77    635.72     25.21
106.87    566.00     23.79
106.97    630.00     25.10
107.07    621.00     24.92
107.17    668.00     25.85
107.27    662.00     25.73
107.37    680.00     26.08
107.47    645.26     25.40
107.57    701.12     26.48
107.67    753.00     27.44
107.77    668.34     25.85
107.87    688.75     26.24
107.97    709.00     26.63
108.07    771.00     27.77
108.17    746.05     27.31
108.27    777.01     27.87
108.37    712.38     26.69
108.47    706.65     26.58
108.57    713.00     26.70
108.67    705.00     26.55
108.77    733.00     27.07
108.87    756.00     27.50
108.97    739.66     27.20
109.07    680.12     26.08
109.17    784.53     28.01
109.27    711.00     26.66
109.37    754.00     27.46
109.47    767.56     27.70
109.57    727.41     26.97
109.67    751.41     27.41
109.77    795.57     28.21
109.87    749.00     27.37
109.97    686.00     26.19
110.07    724.00     26.91
110.17    695.00     26.36
110.27    718.00     26.80
110.37    666.00     25.81
110.47    691.00     26.29
110.57    669.00     25.87
110.67    706.00     26.57
110.77    661.00     25.71
110.87    695.09     26.36
110.97    595.79     24.41
111.07    612.90     24.76
111.17    633.00     25.16
111.27    656.00     25.61
111.37    650.72     25.51
111.47    584.40     24.17
111.57    616.34     24.83
111.67    565.00     23.77
111.77    581.00     24.10
111.87    596.00     24.41
111.97    559.35     23.65
112.07    617.00     24.84
112.17    597.00     24.43
112.27    554.59     23.55
112.37    562.00     23.71
112.47    607.00     24.64
112.57    554.00     23.54
112.67    578.00     24.04
112.77    567.00     23.81
112.87    575.00     23.98
112.97    612.42     24.75
113.07    606.00     24.62
113.17    565.00     23.77
113.27    614.00     24.78
113.37    571.00     23.90
113.47    574.00     23.96
113.57    586.00     24.21
113.67    644.00     25.38
113.77    653.07     25.56
113.87    621.70     24.93
113.97    613.00     24.76
114.07    608.00     24.66
114.17    692.33     26.31
114.27    638.00     25.26
114.37    728.22     26.99
114.47    680.00     26.08
114.57    733.00     27.07
114.67    740.00     27.20
114.77    776.00     27.86
114.87    778.00     27.89
114.97    898.00     29.97
115.07    972.49     31.18
115.17   1041.00     32.26
115.27   1150.00     33.91
115.37   1149.00     33.90
115.47   1401.52     37.44
115.57   1520.00     38.99
115.67   1856.00     43.08
115.77   2046.00     45.23
115.87   2172.00     46.60
115.97   2462.00     49.62
116.07   2645.20     51.43
116.17   2985.59     54.64
116.27   3385.00     58.18
116.37   3741.00     61.16
116.47   4042.00     63.58
116.57   4441.00     66.64
116.67   4780.00     69.14
116.77   5165.00     71.87
116.87   5584.90     74.73
116.97   5883.00     76.70
117.07   6244.00     79.02
117.17   6490.92     80.57
117.27   7052.00     83.98
117.37   7077.00     84.12
117.47   7291.00     85.39
117.57   7216.80     84.95
117.67   7270.00     85.26
117.77   7216.23     84.95
117.87   7000.00     83.67
117.97   6871.00     82.89
118.07   6601.66     81.25
118.17   6418.04     80.11
118.27   5948.57     77.13
118.37   5438.00     73.74
118.47   5331.16     73.01
118.57   4869.00     69.78
118.67   4513.00     67.18
118.77   4231.00     65.05
118.87   3915.00     62.57
118.97   3466.00     58.87
119.07   3175.00     56.35
119.17   2831.00     53.21
119.27   2631.00     51.29
119.37   2433.00     49.33
119.47   2176.06     46.65
119.57   1924.00     43.86
119.67   1699.00     41.22
119.77   1577.27     39.71
119.87   1428.00     37.79
119.97   1320.60     36.34
120.07   1250.33     35.36
120.17   1088.66     32.99
120.27   1042.00     32.28
120.37    998.00     31.59
120.47    949.00     30.81
120.57    916.00     30.27
120.67    799.00     28.27
120.77    814.00     28.53
120.87    785.00     28.02
120.97    765.71     27.67
121.07    745.84     27.31
121.17    694.00     26.34
121.27    715.56     26.75
121.37    712.00     26.68
121.47    736.77     27.14
121.57    724.60     26.92
121.67    672.00     25.92
121.77    630.97     25.12
121.87    639.62     25.29
121.97    609.00     24.68
122.07    638.00     25.26
122.17    620.00     24.90
122.27    618.23     24.86
122.37    587.00     24.23
122.47    632.00     25.14
122.57    680.80     26.09
122.67    700.61     26.47
122.77    723.19     26.89
122.87    642.00     25.34
122.97    675.80     26.00
123.07    709.00     26.63
123.17    663.00     25.75
123.27    684.94     26.17
123.37    695.00     26.36
123.47    699.00     26.44
123.57    721.00     26.85
123.67    715.79     26.75
123.77    698.07     26.42
123.87    678.00     26.04
123.97    708.70     26.62
124.07    732.00     27.06
124.17    727.00     26.96
124.27    735.00     27.11
124.37    669.47     25.87
124.47    665.20     25.79
124.57    696.00     26.38
124.67    705.70     26.56
124.77    645.32     25.40
124.87    743.00     27.26
124.97    706.36     26.58
