XYDATA



INTER 1.0 1.0 0 0
TEMP 1074.1
  9.97    609.00     24.68
 10.07    568.17     23.84
 10.17    605.00     24.60
 10.27    591.00     24.31
 10.37    573.00     23.94
 10.47    579.00     24.06
 10.57    593.00     24.35
 10.67    609.00     24.68
 10.77    560.00     23.66
 10.87    529.00     23.00
 10.97    575.00     23.98
 11.07    601.00     24.52
 11.17    570.00     23.87
 11.27    525.80     22.93
 11.37    572.00     23.92
 11.47    559.00     23.64
 11.57    626.84     25.04
 11.67    653.00     25.55
 11.77    594.53     24.38
 11.87    656.00     25.61
 11.97    622.95     24.96
 12.07    648.89     25.47
 12.17    684.89     26.17
 12.27    642.00     25.34
 12.37    658.04     25.65
 12.47    645.00     25.40
 12.57    583.00     24.15
 12.67    570.00     23.87
 12.77    558.03     23.62
 12.87    574.00     23.96
 12.97    589.26     24.27
 13.07    542.00     23.28
 13.17    587.00     24.23
 13.27    543.00     23.30
 13.37    589.79     24.29
 13.47    573.00     23.94
 13.57    553.00     23.52
 13.67    585.47     24.20
 13.77    541.29     23.27
 13.87    592.00     24.33
 13.97    588.00     24.25
 14.07    589.00     24.27
 14.17    545.00     23.35
 14.27    526.00     22.93
 14.37    562.00     23.71
 14.47    595.00     24.39
 14.57    582.53     24.14
 14.67    597.00     24.43
 14.77    604.00     24.58
 14.87    538.03     23.20
 14.97    564.00     23.75
 15.07    547.00     23.39
 15.17    542.48     23.29
 15.27    563.27     23.73
 15.37    563.67     23.74
 15.47    579.23     24.07
 15.57    554.22     23.54
 15.67    590.65     24.30
 15.77    544.00     23.32
 15.87    571.96     23.92
 15.97    606.75     24.63
 16.07    604.95     24.60
 16.17    607.00     24.64
 16.27    581.72     24.12
 16.37    542.55     23.29
 16.47    562.33     23.71
 16.57    558.36     23.63
 16.67    583.20     24.15
 16.77    514.00     22.67
 16.87    613.73     24.77
 16.97    560.00     23.66
 17.07    544.00     23.32
 17.17    527.11     22.96
 17.27    538.00     23.19
 17.37    610.54     24.71
 17.47    522.00     22.85
 17.57    568.00     23.83
 17.67    563.02     23.73
 17.77    536.00     23.15
 17.87    571.00     23.90
 17.97    623.00     24.96
 18.07    597.14     24.44
 18.17    557.00     23.60
 18.27    565.05     23.77
 18.37    523.17     22.87
 18.47    569.00     23.85
 18.57    558.66     23.64
 18.67    581.00     24.10
 18.77    610.66     24.71
 18.87    558.00     23.62
 18.97    525.70     22.93
 19.07    542.59     23.29
 19.17    556.00     23.58
 19.27    552.00     23.49
 19.37    575.73     23.99
 19.47    546.00     23.37
 19.57    506.00     22.49
 19.67    579.00     24.06
 19.77    566.00     23.79
 19.87    590.37     24.30
 19.97    602.01     24.54
 20.07    544.39     23.33
 20.17    582.00     24.12
 20.27    554.21     23.54
 20.37    601.03     24.52
 20.47    531.00     23.04
 20.57    582.00     24.12
 20.67    539.95     23.24
 20.77    523.00     22.87
 20.87    541.00     23.26
 20.97    556.00     23.58
 21.07    556.34     23.59
 21.17    527.00     22.96
 21.27    566.78     23.81
 21.37    559.66     23.66
 21.47    599.52     24.49
 21.57    543.00     23.30
 21.67    548.00     23.41
 21.77    532.22     23.07
 21.87    509.34     22.57
 21.97    528.15     22.98
 22.07    528.15     22.98
 22.17    548.00     23.41
 22.27    559.00     23.64
 22.37    534.00     23.11
 22.47    583.00     24.15
 22.57    536.20     23.16
 22.67    579.00     24.06
 22.77    526.00     22.93
 22.87    595.00     24.39
 22.97    576.00     24.00
 23.07    549.00     23.43
 23.17    553.00     23.52
 23.27    567.00     23.81
 23.37    570.62     23.89
 23.47    558.65     23.64
 23.57    606.00     24.62
 23.67    593.66     24.37
 23.77    538.00     23.19
 23.87    598.00     24.45
 23.97    547.00     23.39
 24.07    553.00     23.52
 24.17    567.00     23.81
 24.27    580.90     24.10
 24.37    584.00     24.17
 24.47    602.00     24.54
 24.57    593.53     24.36
 24.67    604.00     24.58
 24.77    650.70     25.51
 24.87    605.00     24.60
 24.97    634.01     25.18
 25.07    591.00     24.31
 25.17    595.00     24.39
 25.27    590.79     24.31
 25.37    565.00     23.77
 25.47    525.00     22.91
 25.57    554.06     23.54
 25.67    543.00     23.30
 25.77    566.00     23.79
 25.87    549.59     23.44
 25.97    517.00     22.74
 26.07    585.00     24.19
 26.17    551.11     23.48
 26.27    564.97     23.77
 26.37    544.00     23.32
 26.47    583.97     24.17
 26.57    545.00     23.35
 26.67    554.00     23.54
 26.77    543.00     23.30
 26.87    556.96     23.60
 26.97    618.00     24.86
 27.07    568.74     23.85
 27.17    566.00     23.79
 27.27    583.00     24.15
 27.37    546.00     23.37
 27.47    583.86     24.16
 27.57    557.00     23.60
 27.67    567.00     23.81
 27.77    618.00     24.86
 27.87    642.00     25.34
 27.97    655.00     25.59
 28.07    801.09     28.30
 28.17    857.12     29.28
 28.27   1007.00     31.73
 28.37    884.93     29.75
 28.47    747.09     27.33
 28.57    662.80     25.74
 28.67    703.00     26.51
 28.77    777.00     27.87
 28.87    811.00     28.48
 28.97    814.00     28.53
 29.07    767.91     27.71
 29.17    746.00     27.31
 29.27    635.00     25.20
 29.37    640.00     25.30
 29.47    586.00     24.21
 29.57    561.09     23.69
 29.67    548.99     23.43
 29.77    594.96     24.39
 29.87    591.00     24.31
 29.97    590.00     24.29
 30.07    598.36     24.46
 30.17    561.75     23.70
 30.27    578.00     24.04
 30.37    518.27     22.77
 30.47    528.00     22.98
 30.57    532.00     23.07
 30.67    585.00     24.19
 30.77    561.11     23.69
 30.87    574.76     23.97
 30.97    619.00     24.88
 31.07    608.00     24.66
 31.17    539.00     23.22
 31.27    601.00     24.52
 31.37    507.94     22.54
 31.47    521.00     22.83
 31.57    586.00     24.21
 31.67    563.33     23.73
 31.77    538.00     23.19
 31.87    534.00     23.11
 31.97    546.79     23.38
 32.07    550.00     23.45
 32.17    494.00     22.23
 32.27    513.94     22.67
 32.37    504.17     22.45
 32.47    539.00     23.22
 32.57    545.00     23.35
 32.67    507.00     22.52
 32.77    533.36     23.09
 32.87    578.00     24.04
 32.97    555.00     23.56
 33.07    549.02     23.43
 33.17    538.00     23.19
 33.27    515.11     22.70
 33.37    553.00     23.52
 33.47    592.99     24.35
 33.57    590.00     24.29
 33.67    679.00     26.06
 33.77    780.14     27.93
 33.87    889.00     29.82
 33.97    985.00     31.38
 34.07   1090.00     33.02
 34.17   1020.00     31.94
 34.27    886.00     29.77
 34.37    761.00     27.59
 34.47    691.90     26.30
 34.57    591.00     24.31
 34.67    569.00     23.85
 34.77    573.34     23.94
 34.87    510.28     22.59
 34.97    531.00     23.04
 35.07    522.00     22.85
 35.17    516.93     22.74
 35.27    511.60     22.62
 35.37    513.00     22.65
 35.47    520.15     22.81
 35.57    551.00     23.47
 35.67    483.46     21.99
 35.77    546.91     23.39
 35.87    489.00     22.11
 35.97    482.00     21.95
 36.07    503.31     22.43
 36.17    554.29     23.54
 36.27    505.00     22.47
 36.37    492.00     22.18
 36.47    491.70     22.17
 36.57    563.07     23.73
 36.67    491.00     22.16
 36.77    536.00     23.15
 36.87    511.37     22.61
 36.97    546.85     23.38
 37.07    511.00     22.61
 37.17    474.89     21.79
 37.27    553.96     23.54
 37.37    527.00     22.96
 37.47    526.00     22.93
 37.57    523.00     22.87
 37.67    526.00     22.93
 37.77    535.00     23.13
 37.87    522.00     22.85
 37.97    539.00     23.22
 38.07    496.10     22.27
 38.17    516.96     22.74
 38.27    523.00     22.87
 38.37    536.00     23.15
 38.47    537.48     23.18
 38.57    540.00     23.24
 38.67    509.00     22.56
 38.77    501.00     22.38
 38.87    484.00     22.00
 38.97    509.00     22.56
 39.07    488.00     22.09
 39.17    491.00     22.16
 39.27    501.00     22.38
 39.37    539.00     23.22
 39.47    502.00     22.41
 39.57    542.00     23.28
 39.67    552.73     23.51
 39.77    459.00     21.42
 39.87    489.00     22.11
 39.97    475.00     21.79
 40.07    503.00     22.43
 40.17    485.00     22.02
 40.27    489.00     22.11
 40.37    513.00     22.65
 40.47    489.00     22.11
 40.57    519.00     22.78
 40.67    534.88     23.13
 40.77    481.00     21.93
 40.87    525.00     22.91
 40.97    521.03     22.83
 41.07    482.90     21.97
 41.17    509.00     22.56
 41.27    499.00     22.34
 41.37    495.00     22.25
 41.47    535.00     23.13
 41.57    549.59     23.44
 41.67    509.00     22.56
 41.77    472.00     21.73
 41.87    522.00     22.85
 41.97    528.00     22.98
 42.07    524.67     22.91
 42.17    513.50     22.66
 42.27    499.43     22.35
 42.37    566.95     23.81
 42.47    583.00     24.15
 42.57    626.41     25.03
 42.67    628.00     25.06
 42.77    659.61     25.68
 42.87    591.00     24.31
 42.97    595.00     24.39
 43.07    509.00     22.56
 43.17    534.00     23.11
 43.27    529.50     23.01
 43.37    549.63     23.44
 43.47    518.00     22.76
 43.57    496.00     22.27
 43.67    511.00     22.61
 43.77    482.00     21.95
 43.87    511.29     22.61
 43.97    479.36     21.89
 44.07    512.00     22.63
 44.17    520.00     22.80
 44.27    521.00     22.83
 44.37    573.00     23.94
 44.47    525.00     22.91
 44.57    453.00     21.28
 44.67    508.00     22.54
 44.77    499.00     22.34
 44.87    487.00     22.07
 44.97    495.00     22.25
 45.07    524.48     22.90
 45.17    509.00     22.56
 45.27    521.00     22.83
 45.37    543.00     23.30
 45.47    480.93     21.93
 45.57    497.00     22.29
 45.67    510.00     22.58
 45.77    475.11     21.80
 45.87    516.00     22.72
 45.97    477.00     21.84
 46.07    499.00     22.34
 46.17    474.74     21.79
 46.27    510.39     22.59
 46.37    545.42     23.35
 46.47    498.00     22.32
 46.57    534.00     23.11
 46.67    495.00     22.25
 46.77    507.00     22.52
 46.87    500.00     22.36
 46.97    524.00     22.89
 47.07    533.00     23.09
 47.17    513.00     22.65
 47.27    528.00     22.98
 47.37    517.00     22.74
 47.47    534.00     23.11
 47.57    550.28     23.46
 47.67    553.66     23.53
 47.77    549.55     23.44
 47.87    610.11     24.70
 47.97    591.00     24.31
 48.07    533.13     23.09
 48.17    613.00     24.76
 48.27    549.00     23.43
 48.37    520.46     22.81
 48.47    519.81     22.80
 48.57    525.00     22.91
 48.67    545.00     23.35
 48.77    547.75     23.40
 48.87    525.00     22.91
 48.97    546.00     23.37
 49.07    581.00     24.10
 49.17    593.00     24.35
 49.27    618.00     24.86
 49.37    651.00     25.51
 49.47    719.96     26.83
 49.57    773.00     27.80
 49.67    931.00     30.51
 49.77   1116.00     33.41
 49.87   1437.00     37.91
 49.97   1766.21     42.03
 50.07   2197.00     46.87
 50.17   2565.01     50.65
 50.27   2488.00     49.88
 50.37   2262.00     47.56
 50.47   1922.00     43.84
 50.57   1488.98     38.59
 50.67   1044.00     32.31
 50.77    818.00     28.60
 50.87    713.00     26.70
 50.97    620.55     24.91
 51.07    600.00     24.49
 51.17    594.71     24.39
 51.27    598.60     24.47
 51.37    576.00     24.00
 51.47    593.00     24.35
 51.57    522.36     22.86
 51.67    567.69     23.83
 51.77    497.23     22.30
 51.87    578.37     24.05
 51.97    533.00     23.09
 52.07    552.00     23.49
 52.17    523.00     22.87
 52.27    542.73     23.30
 52.37    549.00     23.43
 52.47    538.00     23.19
 52.57    557.00     23.60
 52.67    604.00     24.58
 52.77    580.09     24.09
 52.87    602.26     24.54
 52.97    637.72     25.25
 53.07    821.01     28.65
 53.17    944.96     30.74
 53.27   1007.00     31.73
 53.37   1199.97     34.64
 53.47   1180.60     34.36
 53.57   1182.00     34.38
 53.67   1059.00     32.54
 53.77    986.00     31.40
 53.87    844.00     29.05
 53.97    735.00     27.11
 54.07    677.00     26.02
 54.17    579.00     24.06
 54.27    633.00     25.16
 54.37    592.57     24.34
 54.47    566.99     23.81
 54.57    543.00     23.30
 54.67    514.12     22.67
 54.77    561.00     23.69
 54.87    554.90     23.56
 54.97    532.85     23.08
 55.07    584.00     24.17
 55.17    549.00     23.43
 55.27    526.89     22.95
 55.37    577.55     24.03
 55.47    575.00     23.98
 55.57    554.00     23.54
 55.67    574.00     23.96
 55.77    581.00     24.10
 55.87    646.00     25.42
 55.97    595.74     24.41
 56.07    652.00     25.53
 56.17    733.00     27.07
 56.27    903.00     30.05
 56.37   1175.91     34.29
 56.47   1410.42     37.56
 56.57   1759.00     41.94
 56.67   2100.00     45.83
 56.77   2486.00     49.86
 56.87   2664.00     51.61
 56.97   2661.34     51.59
 57.07   2360.00     48.58
 57.17   2026.00     45.01
 57.27   1715.00     41.41
 57.37   1260.38     35.50
 57.47   1044.00     32.31
 57.57    949.00     30.81
 57.67    764.26     27.65
 57.77    750.00     27.39
 57.87    698.00     26.42
 57.97    703.00     26.51
 58.07    642.97     25.36
 58.17    699.00     26.44
 58.27    730.03     27.02
 58.37    837.00     28.93
 58.47    989.00     31.45
 58.57   1072.00     32.74
 58.67   1283.00     35.82
 58.77   1416.00     37.63
 58.87   1488.00     38.57
 58.97   1623.00     40.29
 59.07   1618.00     40.22
 59.17   1523.00     39.03
 59.27   1483.00     38.51
 59.37   1332.72     36.51
 59.47   1257.00     35.45
 59.57   1135.55     33.70
 59.67   1070.46     32.72
 59.77   1127.14     33.57
 59.87   1196.00     34.58
 59.97   1329.00     36.46
 60.07   1424.05     37.74
 60.17   1486.00     38.55
 60.27   1573.00     39.66
 60.37   1511.48     38.88
 60.47   1310.73     36.20
 60.57   1271.00     35.65
 60.67   1112.00     33.35
 60.77    880.00     29.66
 60.87    760.00     27.57
 60.97    722.39     26.88
 61.07    609.00     24.68
 61.17    635.00     25.20
 61.27    636.00     25.22
 61.37    621.52     24.93
 61.47    674.00     25.96
 61.57    731.00     27.04
 61.67    795.28     28.20
 61.77    996.00     31.56
 61.87   1036.00     32.19
 61.97   1250.00     35.36
 62.07   1334.00     36.52
 62.17   1367.30     36.98
 62.27   1397.00     37.38
 62.37   1324.00     36.39
 62.47   1203.00     34.68
 62.57   1072.77     32.75
 62.67    865.74     29.42
 62.77    750.20     27.39
 62.87    664.00     25.77
 62.97    641.92     25.34
 63.07    630.58     25.11
 63.17    590.00     24.29
 63.27    584.00     24.17
 63.37    576.00     24.00
 63.47    539.44     23.23
 63.57    617.00     24.84
 63.67    533.91     23.11
 63.77    590.00     24.29
 63.87    602.00     24.54
 63.97    586.06     24.21
 64.07    645.33     25.40
 64.17    790.00     28.11
 64.27    753.00     27.44
 64.37    864.43     29.40
 64.47    901.00     30.02
 64.57    959.00     30.97
 64.67   1041.00     32.26
 64.77    972.00     31.18
 64.87    928.00     30.46
 64.97    908.00     30.13
 65.07    847.00     29.10
 65.17    783.00     27.98
 65.27    757.00     27.51
 65.37    684.00     26.15
 65.47    642.00     25.34
 65.57    617.00     24.84
 65.67    572.00     23.92
 65.77    561.92     23.70
 65.87    600.00     24.49
 65.97    564.00     23.75
 66.07    530.00     23.02
 66.17    602.40     24.54
 66.27    514.00     22.67
 66.37    550.93     23.47
 66.47    548.00     23.41
 66.57    573.00     23.94
 66.67    554.00     23.54
 66.77    613.92     24.78
 66.87    546.00     23.37
 66.97    625.00     25.00
 67.07    617.59     24.85
 67.17    713.18     26.71
 67.27    753.00     27.44
 67.37    846.00     29.09
 67.47   1049.00     32.39
 67.57   1233.00     35.11
 67.67   1505.00     38.79
 67.77   1748.00     41.81
 67.87   2062.00     45.41
 67.97   2239.86     47.33
 68.07   2383.00     48.82
 68.17   2418.00     49.17
 68.27   2266.00     47.60
 68.37   2059.00     45.38
 68.47   1859.00     43.12
 68.57   1626.00     40.32
 68.67   1221.00     34.94
 68.77   1020.37     31.94
 68.87    872.00     29.53
 68.97    787.68     28.07
 69.07    634.35     25.19
 69.17    599.59     24.49
 69.27    563.82     23.74
 69.37    584.00     24.17
 69.47    625.00     25.00
 69.57    605.20     24.60
 69.67    570.32     23.88
 69.77    597.94     24.45
 69.87    575.00     23.98
 69.97    614.00     24.78
 70.07    546.00     23.37
 70.17    572.00     23.92
 70.27    516.43     22.73
 70.37    598.70     24.47
 70.47    535.00     23.13
 70.57    541.33     23.27
 70.67    569.00     23.85
 70.77    608.00     24.66
 70.87    566.00     23.79
 70.97    584.00     24.17
 71.07    673.38     25.95
 71.17    731.00     27.04
 71.27    780.00     27.93
 71.37    962.00     31.02
 71.47   1091.17     33.03
 71.57   1163.00     34.10
 71.67   1361.00     36.89
 71.77   1602.00     40.02
 71.87   1771.00     42.08
 71.97   1961.40     44.29
 72.07   1896.00     43.54
 72.17   1946.90     44.12
 72.27   1839.73     42.89
 72.37   1696.68     41.19
 72.47   1578.00     39.72
 72.57   1386.54     37.24
 72.67   1182.70     34.39
 72.77   1069.00     32.70
 72.87   1044.34     32.32
 72.97    856.00     29.26
 73.07    779.00     27.91
 73.17    787.63     28.06
 73.27    752.49     27.43
 73.37    757.02     27.51
 73.47    632.00     25.14
 73.57    590.00     24.29
 73.67    562.00     23.71
 73.77    606.00     24.62
 73.87    614.56     24.79
 73.97    591.18     24.31
 74.07    573.00     23.94
 74.17    616.00     24.82
 74.27    664.00     25.77
 74.37    592.00     24.33
 74.47    539.44     23.23
 74.57    616.00     24.82
 74.67    611.50     24.73
 74.77    634.00     25.18
 74.87    629.00     25.08
 74.97    602.00     24.54
 75.07    566.00     23.79
 75.17    576.00     24.00
 75.27    546.00     23.37
 75.37    596.00     24.41
 75.47    579.00     24.06
 75.57    591.05     24.31
 75.67    595.00     24.39
 75.77    632.00     25.14
 75.87    634.61     25.19
 75.97    639.00     25.28
 76.07    655.16     25.60
 76.17    645.00     25.40
 76.27    696.00     26.38
 76.37    719.00     26.81
 76.47    676.00     26.00
 76.57    719.00     26.81
 76.67    651.00     25.51
 76.77    681.49     26.11
 76.87    627.00     25.04
 76.97    604.00     24.58
 77.07    651.58     25.53
 77.17    597.00     24.43
 77.27    589.00     24.27
 77.37    535.00     23.13
 77.47    581.03     24.10
 77.57    579.00     24.06
 77.67    542.00     23.28
 77.77    536.00     23.15
 77.87    523.96     22.89
 77.97    541.00     23.26
 78.07    500.00     22.36
 78.17    535.00     23.13
 78.27    569.11     23.86
 78.37    510.00     22.58
 78.47    538.00     23.19
 78.57    543.00     23.30
 78.67    505.79     22.49
 78.77    529.09     23.00
 78.87    533.00     23.09
 78.97    484.07     22.00
 79.07    529.00     23.00
 79.17    553.00     23.52
 79.27    545.63     23.36
 79.37    500.00     22.36
 79.47    538.49     23.21
 79.57    543.71     23.32
 79.67    550.27     23.46
 79.77    528.00     22.98
 79.87    527.00     22.96
 79.97    574.00     23.96
 80.07    536.00     23.15
 80.17    594.50     24.38
 80.27    531.57     23.06
 80.37    593.86     24.37
 80.47    656.00     25.61
 80.57    622.00     24.94
 80.67    643.33     25.36
 80.77    620.70     24.91
 80.87    659.00     25.67
 80.97    717.74     26.79
 81.07    708.00     26.61
 81.17    721.00     26.85
 81.27    750.00     27.39
 81.37    749.00     27.37
 81.47    774.00     27.82
 81.57    756.00     27.50
 81.67    780.07     27.93
 81.77    759.00     27.55
 81.87    709.81     26.64
 81.97    705.00     26.55
 82.07    702.00     26.50
 82.17    654.82     25.59
 82.27    599.00     24.47
 82.37    586.00     24.21
 82.47    612.00     24.74
 82.57    621.00     24.92
 82.67    611.00     24.72
 82.77    575.00     23.98
 82.87    535.00     23.13
 82.97    546.00     23.37
 83.07    569.00     23.85
 83.17    534.29     23.11
 83.27    532.35     23.07
 83.37    522.00     22.85
 83.47    560.00     23.66
 83.57    566.00     23.79
 83.67    556.00     23.58
 83.77    535.00     23.13
 83.87    568.00     23.83
 83.97    565.31     23.78
 84.07    560.00     23.66
 84.17    540.00     23.24
 84.27    540.00     23.24
 84.37    560.00     23.66
 84.47    526.79     22.95
 84.57    510.00     22.58
 84.67    587.49     24.24
 84.77    517.00     22.74
 84.87    525.57     22.93
 84.97    505.14     22.48
 85.07    579.00     24.06
 85.17    563.17     23.73
 85.27    573.85     23.96
 85.37    504.00     22.45
 85.47    534.00     23.11
 85.57    531.00     23.04
 85.67    541.00     23.26
 85.77    482.43     21.96
 85.87    499.97     22.36
 85.97    466.00     21.59
 86.07    521.00     22.83
 86.17    549.48     23.44
 86.27    538.00     23.19
 86.37    547.41     23.40
 86.47    552.00     23.49
 86.57    583.27     24.15
 86.67    573.00     23.94
 86.77    552.60     23.51
 86.87    563.17     23.73
 86.97    595.15     24.40
 87.07    595.00     24.39
 87.17    631.00     25.12
 87.27    633.00     25.16
 87.37    676.00     26.00
 87.47    696.00     26.38
 87.57    651.00     25.51
 87.67    616.51     24.83
 87.77    661.78     25.73
 87.87    671.00     25.90
 87.97    638.57     25.27
 88.07    578.16     24.04
 88.17    590.23     24.29
 88.27    570.00     23.87
 88.37    587.00     24.23
 88.47    532.00     23.07
 88.57    569.00     23.85
 88.67    556.50     23.59
 88.77    529.09     23.00
 88.87    584.00     24.17
 88.97    597.00     24.43
 89.07    594.00     24.37
 89.17    621.85     24.94
 89.27    609.00     24.68
 89.37    607.00     24.64
 89.47    596.82     24.43
 89.57    646.93     25.43
 89.67    563.83     23.75
 89.77    597.00     24.43
 89.87    567.77     23.83
 89.97    564.00     23.75
 90.07    591.28     24.32
 90.17    540.00     23.24
 90.27    566.00     23.79
 90.37    519.00     22.78
 90.47    518.00     22.76
 90.57    531.00     23.04
 90.67    562.84     23.72
 90.77    499.92     22.36
 90.87    537.00     23.17
 90.97    500.56     22.37
 91.07    506.00     22.49
 91.17    547.00     23.39
 91.27    519.00     22.78
 91.37    497.00     22.29
 91.47    495.65     22.26
 91.57    534.00     23.11
 91.67    489.00     22.11
 91.77    548.00     23.41
 91.87    572.41     23.93
 91.97    537.98     23.19
 92.07    520.68     22.82
 92.17    551.15     23.48
 92.27    587.62     24.24
 92.37    636.29     25.22
 92.47    658.00     25.65
 92.57    586.00     24.21
 92.67    681.00     26.10
 92.77    674.00     25.96
 92.87    777.00     27.87
 92.97    734.06     27.09
 93.07    738.00     27.17
 93.17    841.00     29.00
 93.27    780.00     27.93
 93.37    828.00     28.77
 93.47    863.49     29.39
 93.57    851.00     29.17
 93.67    882.00     29.70
 93.77    833.00     28.86
 93.87    825.00     28.72
 93.97    868.00     29.46
 94.07    869.16     29.48
 94.17    821.00     28.65
 94.27    843.00     29.03
 94.37    817.00     28.58
 94.47    867.48     29.45
 94.57    894.00     29.90
 94.67    931.00     30.51
 94.77    948.00     30.79
 94.87    888.00     29.80
 94.97    879.41     29.65
 95.07    933.00     30.55
 95.17    825.40     28.73
 95.27    910.00     30.17
 95.37    811.00     28.48
 95.47    794.00     28.18
 95.57    860.00     29.33
 95.67    685.43     26.18
 95.77    757.00     27.51
 95.87    656.00     25.61
 95.97    717.00     26.78
 96.07    708.00     26.61
 96.17    669.00     25.87
 96.27    696.28     26.39
 96.37    790.14     28.11
 96.47    780.00     27.93
 96.57    867.00     29.44
 96.67    872.00     29.53
 96.77   1020.52     31.95
 96.87   1016.03     31.88
 96.97   1093.00     33.06
 97.07   1196.85     34.60
 97.17   1239.00     35.20
 97.27   1343.00     36.65
 97.37   1411.00     37.56
 97.47   1425.00     37.75
 97.57   1366.56     36.97
 97.67   1399.00     37.40
 97.77   1424.81     37.75
 97.87   1404.98     37.48
 97.97   1296.56     36.01
 98.07   1232.98     35.11
 98.17   1153.05     33.96
 98.27   1175.00     34.28
 98.37   1037.00     32.20
 98.47    990.00     31.46
 98.57    880.87     29.68
 98.67    851.00     29.17
 98.77    782.57     27.97
 98.87    822.79     28.68
 98.97    854.26     29.23
 99.07    720.00     26.83
 99.17    783.15     27.98
 99.27    832.00     28.84
 99.37    902.27     30.04
 99.47    944.00     30.72
 99.57   1079.52     32.86
 99.67   1191.18     34.51
 99.77   1296.00     36.00
 99.87   1419.15     37.67
 99.97   1494.00     38.65
100.07   1678.44     40.97
100.17   1744.37     41.77
100.27   1926.00     43.89
100.37   1872.33     43.27
100.47   2091.70     45.74
100.57   2053.00     45.31
100.67   2080.23     45.61
100.77   2094.00     45.76
100.87   2006.49     44.79
100.97   2093.27     45.75
101.07   1902.72     43.62
101.17   1929.00     43.92
101.27   1836.00     42.85
101.37   1742.00     41.74
101.47   1569.00     39.61
101.57   1505.00     38.79
101.67   1428.00     37.79
101.77   1412.00     37.58
101.87   1327.00     36.43
101.97   1248.00     35.33
102.07   1200.91     34.65
102.17   1077.00     32.82
102.27   1171.97     34.23
102.37   1095.00     33.09
102.47   1111.00     33.33
102.57   1027.81     32.06
102.67   1070.05     32.71
102.77    989.01     31.45
102.87   1007.79     31.75
102.97    931.15     30.51
103.07    923.68     30.39
103.17    894.88     29.91
103.27    825.00     28.72
103.37    796.00     28.21
103.47    749.10     27.37
103.57    703.00     26.51
103.67    664.13     25.77
103.77    686.14     26.19
103.87    664.00     25.77
103.97    615.00     24.80
104.07    592.00     24.33
104.17    593.00     24.35
104.27    529.00     23.00
104.37    554.31     23.54
104.47    534.00     23.11
104.57    623.00     24.96
104.67    540.92     23.26
104.77    577.00     24.02
104.87    528.00     22.98
104.97    537.98     23.19
105.07    546.56     23.38
105.17    544.00     23.32
105.27    562.00     23.71
105.37    554.23     23.54
105.47    539.00     23.22
105.57    555.00     23.56
105.67    594.00     24.37
105.77    526.00     22.93
105.87    554.00     23.54
105.97    589.00     24.27
106.07    576.00     24.00
106.17    564.17     23.75
106.27    554.54     23.55
106.37    584.00     24.17
106.47    637.06     25.24
106.57    657.00     25.63
106.67    677.30     26.02
106.77    618.00     24.86
106.87    634.43     25.19
106.97    659.34     25.68
107.07    680.00     26.08
107.17    678.00     26.04
107.27    691.00     26.29
107.37    706.00     26.57
107.47    669.00     25.87
107.57    696.00     26.38
107.67    724.67     26.92
107.77    672.00     25.92
107.87    685.00     26.17
107.97    673.00     25.94
108.07    747.24     27.34
108.17    693.00     26.32
108.27    662.00     25.73
108.37    631.00     25.12
108.47    739.00     27.18
108.57    686.00     26.19
108.67    726.26     26.95
108.77    721.00     26.85
108.87    658.26     25.66
108.97    712.00     26.68
109.07    718.00     26.80
109.17    726.79     26.96
109.27    690.55     26.28
109.37    682.00     26.12
109.47    623.40     24.97
109.57    641.00     25.32
109.67    603.00     24.56
109.77    657.65     25.64
109.87    616.00     24.82
109.97    541.31     23.27
110.07    635.00     25.20
110.17    538.00     23.19
110.27    595.83     24.41
110.37    539.29     23.22
110.47    588.00     24.25
110.57    569.09     23.86
110.67    589.26     24.27
110.77    548.00     23.41
110.87    535.00     23.13
110.97    538.51     23.21
111.07    579.97     24.08
111.17    562.00     23.71
111.27    548.00     23.41
111.37    552.97     23.52
111.47    534.00     23.11
111.57    540.00     23.24
111.67    505.00     22.47
111.77    565.00     23.77
111.87    526.00     22.93
111.97    591.00     24.31
112.07    598.08     24.46
112.17    566.00     23.79
112.27    585.00     24.19
112.37    612.00     24.74
112.47    598.00     24.45
112.57    625.00     25.00
112.67    611.00     24.72
112.77    625.00     25.00
112.87    628.68     25.07
112.97    710.00     26.65
113.07    721.15     26.85
113.17    756.00     27.50
113.27    734.00     27.09
113.37    745.00     27.29
113.47    844.46     29.06
113.57    845.00     29.07
113.67    836.90     28.93
113.77    931.00     30.51
113.87    975.00     31.22
113.97    969.75     31.14
114.07   1063.00     32.60
114.17   1129.00     33.60
114.27   1149.01     33.90
114.37   1290.00     35.92
114.47   1335.57     36.55
114.57   1423.00     37.72
114.67   1519.73     38.98
114.77   1786.96     42.27
114.87   1972.00     44.41
114.97   2126.00     46.11
115.07   2269.45     47.64
115.17   2530.00     50.30
115.27   2913.94     53.98
115.37   3164.64     56.26
115.47   3387.80     58.20
115.57   3881.48     62.30
115.67   4267.91     65.33
115.77   4598.61     67.81
115.87   4888.00     69.91
115.97   5155.00     71.80
116.07   5621.93     74.98
116.17   5995.00     77.43
116.27   6337.00     79.61
116.37   6628.78     81.42
116.47   6664.89     81.64
116.57   6892.00     83.02
116.67   7004.00     83.69
116.77   6997.19     83.65
116.87   6791.59     82.41
116.97   6659.76     81.61
117.07   6476.00     80.47
117.17   6191.00     78.68
117.27   5644.00     75.13
117.37   5334.00     73.03
117.47   4947.18     70.34
117.57   4736.25     68.82
117.67   4312.48     65.67
117.77   3792.23     61.58
117.87   3501.96     59.18
117.97   3272.00     57.20
118.07   2995.00     54.73
118.17   2525.00     50.25
118.27   2290.00     47.85
118.37   2005.00     44.78
118.47   1855.00     43.07
118.57   1607.64     40.10
118.67   1364.00     36.93
118.77   1291.68     35.94
118.87   1140.00     33.76
118.97    993.00     31.51
119.07    933.00     30.55
119.17    879.49     29.66
119.27    837.27     28.94
119.37    773.00     27.80
119.47    732.00     27.06
119.57    694.00     26.34
119.67    674.00     25.96
119.77    695.84     26.38
119.87    663.55     25.76
119.97    559.00     23.64
120.07    610.00     24.70
120.17    575.33     23.99
120.27    556.00     23.58
120.37    566.00     23.79
120.47    580.00     24.08
120.57    531.00     23.04
120.67    516.00     22.72
120.77    573.52     23.95
120.87    556.00     23.58
120.97    600.00     24.49
121.07    590.42     24.30
121.17    530.00     23.02
121.27    587.00     24.23
121.37    564.61     23.76
121.47    508.00     22.54
121.57    622.96     24.96
121.67    592.93     24.35
121.77    626.00     25.02
121.87    628.99     25.08
121.97    581.00     24.10
122.07    616.00     24.82
122.17    633.00     25.16
122.27    615.00     24.80
122.37    592.00     24.33
122.47    662.00     25.73
122.57    617.00     24.84
122.67    628.00     25.06
122.77    627.13     25.04
122.87    632.00     25.14
122.97    647.39     25.44
123.07    649.00     25.48
123.17    613.00     24.76
123.27    640.00     25.30
123.37    651.81     25.53
123.47    630.00     25.10
123.57    608.71     24.67
123.67    651.00     25.51
123.77    573.82     23.95
123.87    659.30     25.68
123.97    592.68     24.35
124.07    642.00     25.34
124.17    632.00     25.14
124.27    611.00     24.72
124.37    578.47     24.05
124.47    595.00     24.39
124.57    607.00     24.64
124.67    571.60     23.91
124.77    554.20     23.54
124.87    565.00     23.77
124.97    547.00     23.39
