XYDATA



INTER 1.0 1.0 0 0
TEMP 1057.541
  9.97    575.11     23.98
 10.07    589.14     24.27
 10.17    605.00     24.60
 10.27    605.00     24.60
 10.37    574.00     23.96
 10.47    595.49     24.40
 10.57    604.00     24.58
 10.67    583.00     24.15
 10.77    576.00     24.00
 10.87    591.00     24.31
 10.97    571.64     23.91
 11.07    549.00     23.43
 11.17    594.00     24.37
 11.27    592.10     24.33
 11.37    599.00     24.47
 11.47    636.00     25.22
 11.57    550.00     23.45
 11.67    594.00     24.37
 11.77    594.43     24.38
 11.87    698.00     26.42
 11.97    670.00     25.88
 12.07    714.00     26.72
 12.17    653.48     25.56
 12.27    646.00     25.42
 12.37    644.20     25.38
 12.47    639.00     25.28
 12.57    607.00     24.64
 12.67    561.00     23.69
 12.77    624.52     24.99
 12.87    596.00     24.41
 12.97    582.45     24.13
 13.07    523.00     22.87
 13.17    569.00     23.85
 13.27    576.00     24.00
 13.37    561.00     23.69
 13.47    579.24     24.07
 13.57    557.00     23.60
 13.67    569.00     23.85
 13.77    578.87     24.06
 13.87    598.00     24.45
 13.97    522.00     22.85
 14.07    529.00     23.00
 14.17    560.00     23.66
 14.27    544.00     23.32
 14.37    578.00     24.04
 14.47    522.00     22.85
 14.57    558.00     23.62
 14.67    559.03     23.64
 14.77    522.00     22.85
 14.87    558.00     23.62
 14.97    612.79     24.75
 15.07    532.86     23.08
 15.17    541.00     23.26
 15.27    546.35     23.37
 15.37    569.00     23.85
 15.47    548.54     23.42
 15.57    549.00     23.43
 15.67    523.92     22.89
 15.77    511.00     22.61
 15.87    566.00     23.79
 15.97    594.15     24.38
 16.07    590.00     24.29
 16.17    570.46     23.88
 16.27    564.00     23.75
 16.37    583.53     24.16
 16.47    559.25     23.65
 16.57    521.36     22.83
 16.67    583.00     24.15
 16.77    565.59     23.78
 16.87    587.00     24.23
 16.97    590.00     24.29
 17.07    546.00     23.37
 17.17    549.00     23.43
 17.27    544.00     23.32
 17.37    547.00     23.39
 17.47    583.89     24.16
 17.57    533.00     23.09
 17.67    580.00     24.08
 17.77    566.00     23.79
 17.87    575.00     23.98
 17.97    565.00     23.77
 18.07    574.00     23.96
 18.17    589.60     24.28
 18.27    593.94     24.37
 18.37    559.22     23.65
 18.47    533.00     23.09
 18.57    538.00     23.19
 18.67    577.00     24.02
 18.77    582.00     24.12
 18.87    548.00     23.41
 18.97    599.46     24.48
 19.07    577.00     24.02
 19.17    535.00     23.13
 19.27    532.65     23.08
 19.37    558.00     23.62
 19.47    530.00     23.02
 19.57    536.71     23.17
 19.67    582.96     24.14
 19.77    581.28     24.11
 19.87    557.00     23.60
 19.97    522.00     22.85
 20.07    548.00     23.41
 20.17    566.00     23.79
 20.27    544.00     23.32
 20.37    582.00     24.12
 20.47    514.80     22.69
 20.57    580.39     24.09
 20.67    599.22     24.48
 20.77    561.73     23.70
 20.87    574.00     23.96
 20.97    575.00     23.98
 21.07    550.91     23.47
 21.17    549.00     23.43
 21.27    551.00     23.47
 21.37    590.00     24.29
 21.47    533.06     23.09
 21.57    571.64     23.91
 21.67    551.00     23.47
 21.77    495.00     22.25
 21.87    527.17     22.96
 21.97    594.00     24.37
 22.07    577.16     24.02
 22.17    530.00     23.02
 22.27    569.00     23.85
 22.37    527.00     22.96
 22.47    582.00     24.12
 22.57    534.00     23.11
 22.67    558.65     23.64
 22.77    545.00     23.35
 22.87    521.00     22.83
 22.97    528.13     22.98
 23.07    577.00     24.02
 23.17    560.00     23.66
 23.27    565.00     23.77
 23.37    549.00     23.43
 23.47    582.39     24.13
 23.57    556.00     23.58
 23.67    566.00     23.79
 23.77    586.00     24.21
 23.87    563.00     23.73
 23.97    578.00     24.04
 24.07    522.79     22.86
 24.17    545.00     23.35
 24.27    532.03     23.07
 24.37    584.31     24.17
 24.47    563.00     23.73
 24.57    616.00     24.82
 24.67    613.00     24.76
 24.77    661.69     25.72
 24.87    650.47     25.50
 24.97    652.00     25.53
 25.07    628.71     25.07
 25.17    596.00     24.41
 25.27    542.00     23.28
 25.37    606.00     24.62
 25.47    501.00     22.38
 25.57    537.00     23.17
 25.67    504.76     22.47
 25.77    503.75     22.44
 25.87    588.16     24.25
 25.97    511.10     22.61
 26.07    555.00     23.56
 26.17    578.00     24.04
 26.27    500.96     22.38
 26.37    543.00     23.30
 26.47    542.00     23.28
 26.57    533.00     23.09
 26.67    546.00     23.37
 26.77    548.00     23.41
 26.87    542.00     23.28
 26.97    558.00     23.62
 27.07    560.75     23.68
 27.17    505.63     22.49
 27.27    559.00     23.64
 27.37    537.72     23.19
 27.47    582.00     24.12
 27.57    515.75     22.71
 27.67    563.00     23.73
 27.77    572.00     23.92
 27.87    602.00     24.54
 27.97    647.00     25.44
 28.07    788.00     28.07
 28.17    896.93     29.95
 28.27    920.00     30.33
 28.37    876.00     29.60
 28.47    778.44     27.90
 28.57    703.00     26.51
 28.67    714.00     26.72
 28.77    716.91     26.78
 28.87    749.00     27.37
 28.97    862.00     29.36
 29.07    747.00     27.33
 29.17    652.00     25.53
 29.27    629.00     25.08
 29.37    610.82     24.71
 29.47    554.52     23.55
 29.57    565.00     23.77
 29.67    516.76     22.73
 29.77    601.00     24.52
 29.87    575.25     23.98
 29.97    558.00     23.62
 30.07    573.32     23.94
 30.17    511.00     22.61
 30.27    563.90     23.75
 30.37    591.00     24.31
 30.47    557.45     23.61
 30.57    571.00     23.90
 30.67    540.80     23.26
 30.77    574.23     23.96
 30.87    606.41     24.63
 30.97    623.00     24.96
 31.07    622.00     24.94
 31.17    586.00     24.21
 31.27    560.00     23.66
 31.37    596.00     24.41
 31.47    499.00     22.34
 31.57    566.00     23.79
 31.67    528.00     22.98
 31.77    539.00     23.22
 31.87    530.00     23.02
 31.97    560.00     23.66
 32.07    540.00     23.24
 32.17    553.00     23.52
 32.27    530.00     23.02
 32.37    613.00     24.76
 32.47    552.00     23.49
 32.57    543.00     23.30
 32.67    486.10     22.05
 32.77    512.00     22.63
 32.87    547.38     23.40
 32.97    535.00     23.13
 33.07    535.00     23.13
 33.17    561.00     23.69
 33.27    520.24     22.81
 33.37    553.00     23.52
 33.47    569.00     23.85
 33.57    594.00     24.37
 33.67    669.63     25.88
 33.77    804.00     28.35
 33.87    862.00     29.36
 33.97   1001.91     31.65
 34.07   1039.00     32.23
 34.17   1010.00     31.78
 34.27    945.71     30.75
 34.37    807.00     28.41
 34.47    707.75     26.60
 34.57    567.00     23.81
 34.67    521.00     22.83
 34.77    556.00     23.58
 34.87    558.38     23.63
 34.97    541.71     23.27
 35.07    527.42     22.97
 35.17    553.00     23.52
 35.27    517.00     22.74
 35.37    512.80     22.65
 35.47    501.00     22.38
 35.57    557.57     23.61
 35.67    484.19     22.00
 35.77    565.00     23.77
 35.87    512.00     22.63
 35.97    525.90     22.93
 36.07    515.21     22.70
 36.17    544.43     23.33
 36.27    504.00     22.45
 36.37    523.00     22.87
 36.47    495.00     22.25
 36.57    495.00     22.25
 36.67    481.09     21.93
 36.77    483.00     21.98
 36.87    525.00     22.91
 36.97    542.00     23.28
 37.07    510.72     22.60
 37.17    544.00     23.32
 37.27    486.00     22.05
 37.37    541.00     23.26
 37.47    562.91     23.73
 37.57    538.00     23.19
 37.67    549.00     23.43
 37.77    513.20     22.65
 37.87    523.33     22.88
 37.97    512.00     22.63
 38.07    509.00     22.56
 38.17    520.00     22.80
 38.27    496.54     22.28
 38.37    536.99     23.17
 38.47    493.00     22.20
 38.57    541.60     23.27
 38.67    505.00     22.47
 38.77    515.00     22.69
 38.87    488.94     22.11
 38.97    502.41     22.41
 39.07    493.92     22.22
 39.17    478.00     21.86
 39.27    469.00     21.66
 39.37    542.00     23.28
 39.47    519.00     22.78
 39.57    486.30     22.05
 39.67    524.00     22.89
 39.77    508.55     22.55
 39.87    479.00     21.89
 39.97    490.88     22.16
 40.07    524.00     22.89
 40.17    512.00     22.63
 40.27    508.00     22.54
 40.37    516.00     22.72
 40.47    475.40     21.80
 40.57    514.50     22.68
 40.67    467.25     21.62
 40.77    500.00     22.36
 40.87    499.00     22.34
 40.97    484.56     22.01
 41.07    545.34     23.35
 41.17    518.00     22.76
 41.27    496.00     22.27
 41.37    523.24     22.87
 41.47    509.48     22.57
 41.57    541.41     23.27
 41.67    508.00     22.54
 41.77    453.00     21.28
 41.87    546.77     23.38
 41.97    489.00     22.11
 42.07    524.00     22.89
 42.17    496.32     22.28
 42.27    521.00     22.83
 42.37    539.66     23.23
 42.47    611.00     24.72
 42.57    608.00     24.66
 42.67    531.00     23.04
 42.77    639.75     25.29
 42.87    556.38     23.59
 42.97    576.21     24.00
 43.07    539.00     23.22
 43.17    502.89     22.43
 43.27    507.54     22.53
 43.37    540.83     23.26
 43.47    543.26     23.31
 43.57    479.00     21.89
 43.67    504.00     22.45
 43.77    470.00     21.68
 43.87    492.00     22.18
 43.97    517.00     22.74
 44.07    528.52     22.99
 44.17    511.00     22.61
 44.27    495.00     22.25
 44.37    483.00     21.98
 44.47    474.00     21.77
 44.57    473.00     21.75
 44.67    506.00     22.49
 44.77    509.46     22.57
 44.87    521.00     22.83
 44.97    509.00     22.56
 45.07    511.00     22.61
 45.17    530.29     23.03
 45.27    478.54     21.88
 45.37    483.00     21.98
 45.47    518.00     22.76
 45.57    486.00     22.05
 45.67    512.00     22.63
 45.77    501.00     22.38
 45.87    529.84     23.02
 45.97    497.00     22.29
 46.07    538.29     23.20
 46.17    537.68     23.19
 46.27    465.32     21.57
 46.37    522.28     22.85
 46.47    510.00     22.58
 46.57    499.00     22.34
 46.67    462.52     21.51
 46.77    491.17     22.16
 46.87    460.00     21.45
 46.97    513.00     22.65
 47.07    469.37     21.67
 47.17    526.00     22.93
 47.27    510.00     22.58
 47.37    528.47     22.99
 47.47    509.00     22.56
 47.57    556.00     23.58
 47.67    566.00     23.79
 47.77    582.00     24.12
 47.87    604.00     24.58
 47.97    573.00     23.94
 48.07    526.00     22.93
 48.17    539.00     23.22
 48.27    569.00     23.85
 48.37    557.00     23.60
 48.47    588.00     24.25
 48.57    545.19     23.35
 48.67    534.22     23.11
 48.77    528.00     22.98
 48.87    576.00     24.00
 48.97    532.00     23.07
 49.07    522.83     22.87
 49.17    548.00     23.41
 49.27    543.45     23.31
 49.37    634.00     25.18
 49.47    694.09     26.35
 49.57    694.00     26.34
 49.67    825.39     28.73
 49.77   1045.56     32.34
 49.87   1406.00     37.50
 49.97   1731.37     41.61
 50.07   2143.00     46.29
 50.17   2387.49     48.86
 50.27   2478.00     49.78
 50.37   2183.00     46.72
 50.47   1948.91     44.15
 50.57   1455.00     38.14
 50.67   1043.00     32.30
 50.77    850.00     29.15
 50.87    735.00     27.11
 50.97    711.00     26.66
 51.07    634.89     25.20
 51.17    642.08     25.34
 51.27    582.91     24.14
 51.37    561.00     23.69
 51.47    570.00     23.87
 51.57    544.91     23.34
 51.67    552.00     23.49
 51.77    570.00     23.87
 51.87    532.22     23.07
 51.97    497.00     22.29
 52.07    491.00     22.16
 52.17    511.03     22.61
 52.27    549.00     23.43
 52.37    526.00     22.93
 52.47    587.65     24.24
 52.57    560.38     23.67
 52.67    552.39     23.50
 52.77    604.02     24.58
 52.87    656.73     25.63
 52.97    724.00     26.91
 53.07    807.86     28.42
 53.17    851.88     29.19
 53.27   1012.11     31.81
 53.37   1086.80     32.97
 53.47   1163.00     34.10
 53.57   1224.00     34.99
 53.67   1075.20     32.79
 53.77   1024.00     32.00
 53.87    940.40     30.67
 53.97    831.34     28.83
 54.07    646.00     25.42
 54.17    670.86     25.90
 54.27    652.87     25.55
 54.37    637.00     25.24
 54.47    631.00     25.12
 54.57    554.00     23.54
 54.67    615.00     24.80
 54.77    544.00     23.32
 54.87    596.00     24.41
 54.97    601.00     24.52
 55.07    575.66     23.99
 55.17    528.00     22.98
 55.27    527.31     22.96
 55.37    594.00     24.37
 55.47    592.00     24.33
 55.57    552.24     23.50
 55.67    584.00     24.17
 55.77    567.00     23.81
 55.87    638.00     25.26
 55.97    649.90     25.49
 56.07    665.00     25.79
 56.17    743.00     27.26
 56.27    916.00     30.27
 56.37   1124.00     33.53
 56.47   1462.00     38.24
 56.57   1757.00     41.92
 56.67   2182.66     46.72
 56.77   2468.53     49.68
 56.87   2620.00     51.19
 56.97   2585.00     50.84
 57.07   2402.00     49.01
 57.17   1983.88     44.54
 57.27   1658.00     40.72
 57.37   1423.52     37.73
 57.47   1156.77     34.01
 57.57    930.00     30.50
 57.67    837.00     28.93
 57.77    770.00     27.75
 57.87    688.70     26.24
 57.97    654.36     25.58
 58.07    691.00     26.29
 58.17    700.29     26.46
 58.27    751.06     27.41
 58.37    846.46     29.09
 58.47    917.03     30.28
 58.57   1054.60     32.47
 58.67    997.00     31.58
 58.77   1189.88     34.49
 58.87   1220.00     34.93
 58.97   1362.00     36.91
 59.07   1321.10     36.35
 59.17   1455.00     38.14
 59.27   1340.00     36.61
 59.37   1355.00     36.81
 59.47   1284.00     35.83
 59.57   1240.00     35.21
 59.67   1165.00     34.13
 59.77   1131.00     33.63
 59.87   1250.00     35.36
 59.97   1316.00     36.28
 60.07   1471.00     38.35
 60.17   1468.86     38.33
 60.27   1470.81     38.35
 60.37   1495.00     38.67
 60.47   1421.00     37.70
 60.57   1301.00     36.07
 60.67   1048.00     32.37
 60.77    896.00     29.93
 60.87    785.00     28.02
 60.97    682.95     26.13
 61.07    676.00     26.00
 61.17    634.50     25.19
 61.27    632.34     25.15
 61.37    691.00     26.29
 61.47    707.00     26.59
 61.57    777.00     27.87
 61.67    864.00     29.39
 61.77   1002.35     31.66
 61.87   1122.00     33.50
 61.97   1246.17     35.30
 62.07   1337.00     36.57
 62.17   1390.00     37.28
 62.27   1359.00     36.86
 62.37   1303.00     36.10
 62.47   1203.00     34.68
 62.57   1080.00     32.86
 62.67    959.34     30.97
 62.77    799.76     28.28
 62.87    677.00     26.02
 62.97    658.00     25.65
 63.07    591.00     24.31
 63.17    591.00     24.31
 63.27    581.00     24.10
 63.37    558.00     23.62
 63.47    582.00     24.12
 63.57    584.00     24.17
 63.67    575.51     23.99
 63.77    624.00     24.98
 63.87    647.95     25.45
 63.97    692.00     26.31
 64.07    681.00     26.10
 64.17    712.99     26.70
 64.27    827.00     28.76
 64.37    905.00     30.08
 64.47    948.00     30.79
 64.57   1025.00     32.02
 64.67   1035.00     32.17
 64.77   1019.86     31.94
 64.87    966.72     31.09
 64.97    883.37     29.72
 65.07    874.03     29.56
 65.17    745.00     27.29
 65.27    722.00     26.87
 65.37    681.00     26.10
 65.47    607.00     24.64
 65.57    636.00     25.22
 65.67    594.65     24.39
 65.77    592.00     24.33
 65.87    627.20     25.04
 65.97    569.00     23.85
 66.07    570.00     23.87
 66.17    555.34     23.57
 66.27    552.00     23.49
 66.37    562.00     23.71
 66.47    571.00     23.90
 66.57    555.00     23.56
 66.67    539.00     23.22
 66.77    576.06     24.00
 66.87    600.00     24.49
 66.97    596.18     24.42
 67.07    665.00     25.79
 67.17    716.00     26.76
 67.27    793.44     28.17
 67.37    871.96     29.53
 67.47   1060.00     32.56
 67.57   1319.00     36.32
 67.67   1490.59     38.61
 67.77   1854.00     43.06
 67.87   2041.00     45.18
 67.97   2349.00     48.47
 68.07   2465.77     49.66
 68.17   2447.00     49.47
 68.27   2321.00     48.18
 68.37   2132.10     46.17
 68.47   1828.00     42.76
 68.57   1497.00     38.69
 68.67   1358.00     36.85
 68.77   1048.64     32.38
 68.87    977.00     31.26
 68.97    788.00     28.07
 69.07    749.00     27.37
 69.17    643.00     25.36
 69.27    589.75     24.28
 69.37    621.69     24.93
 69.47    625.27     25.01
 69.57    566.00     23.79
 69.67    545.00     23.35
 69.77    548.36     23.42
 69.87    569.00     23.85
 69.97    544.00     23.32
 70.07    561.46     23.70
 70.17    601.00     24.52
 70.27    610.36     24.71
 70.37    549.00     23.43
 70.47    557.43     23.61
 70.57    563.85     23.75
 70.67    586.46     24.22
 70.77    569.00     23.85
 70.87    590.00     24.29
 70.97    637.00     25.24
 71.07    675.00     25.98
 71.17    778.00     27.89
 71.27    792.61     28.15
 71.37    867.00     29.44
 71.47   1138.00     33.73
 71.57   1254.00     35.41
 71.67   1467.00     38.30
 71.77   1617.22     40.21
 71.87   1704.00     41.28
 71.97   1840.65     42.90
 72.07   1931.00     43.94
 72.17   1870.00     43.24
 72.27   1804.00     42.47
 72.37   1611.00     40.14
 72.47   1493.39     38.64
 72.57   1312.47     36.23
 72.67   1012.00     31.81
 72.77   1032.63     32.13
 72.87    882.57     29.71
 72.97    857.13     29.28
 73.07    790.00     28.11
 73.17    721.00     26.85
 73.27    661.00     25.71
 73.37    634.00     25.18
 73.47    614.00     24.78
 73.57    624.87     25.00
 73.67    600.00     24.49
 73.77    626.00     25.02
 73.87    624.74     24.99
 73.97    549.00     23.43
 74.07    598.15     24.46
 74.17    598.00     24.45
 74.27    583.91     24.16
 74.37    603.00     24.56
 74.47    631.00     25.12
 74.57    538.99     23.22
 74.67    624.00     24.98
 74.77    595.52     24.40
 74.87    604.31     24.58
 74.97    624.00     24.98
 75.07    618.00     24.86
 75.17    580.00     24.08
 75.27    565.62     23.78
 75.37    580.00     24.08
 75.47    539.70     23.23
 75.57    597.00     24.43
 75.67    576.00     24.00
 75.77    601.00     24.52
 75.87    590.00     24.29
 75.97    621.00     24.92
 76.07    648.00     25.46
 76.17    670.65     25.90
 76.27    678.00     26.04
 76.37    733.41     27.08
 76.47    704.00     26.53
 76.57    664.68     25.78
 76.67    714.62     26.73
 76.77    700.00     26.46
 76.87    662.00     25.73
 76.97    652.00     25.53
 77.07    687.00     26.21
 77.17    622.00     24.94
 77.27    601.56     24.53
 77.37    536.00     23.15
 77.47    532.00     23.07
 77.57    534.00     23.11
 77.67    537.00     23.17
 77.77    576.21     24.00
 77.87    537.00     23.17
 77.97    503.00     22.43
 78.07    468.00     21.63
 78.17    503.00     22.43
 78.27    552.79     23.51
 78.37    572.00     23.92
 78.47    468.00     21.63
 78.57    500.00     22.36
 78.67    519.00     22.78
 78.77    568.39     23.84
 78.87    530.00     23.02
 78.97    510.00     22.58
 79.07    516.00     22.72
 79.17    475.00     21.79
 79.27    523.00     22.87
 79.37    559.20     23.65
 79.47    485.00     22.02
 79.57    466.00     21.59
 79.67    511.00     22.61
 79.77    571.00     23.90
 79.87    567.26     23.82
 79.97    509.98     22.58
 80.07    508.02     22.54
 80.17    533.00     23.09
 80.27    599.00     24.47
 80.37    580.82     24.10
 80.47    570.00     23.87
 80.57    615.00     24.80
 80.67    646.00     25.42
 80.77    622.00     24.94
 80.87    632.20     25.14
 80.97    704.00     26.53
 81.07    688.00     26.23
 81.17    710.04     26.65
 81.27    748.14     27.35
 81.37    740.00     27.20
 81.47    758.00     27.53
 81.57    731.00     27.04
 81.67    705.59     26.56
 81.77    741.13     27.22
 81.87    693.77     26.34
 81.97    732.39     27.06
 82.07    622.06     24.94
 82.17    628.00     25.06
 82.27    621.00     24.92
 82.37    617.00     24.84
 82.47    624.47     24.99
 82.57    573.00     23.94
 82.67    615.85     24.82
 82.77    568.00     23.83
 82.87    528.56     22.99
 82.97    589.00     24.27
 83.07    561.29     23.69
 83.17    525.00     22.91
 83.27    563.66     23.74
 83.37    563.00     23.73
 83.47    575.00     23.98
 83.57    523.09     22.87
 83.67    593.65     24.36
 83.77    529.33     23.01
 83.87    582.38     24.13
 83.97    585.00     24.19
 84.07    579.00     24.06
 84.17    560.00     23.66
 84.27    533.00     23.09
 84.37    565.00     23.77
 84.47    562.83     23.72
 84.57    494.00     22.23
 84.67    531.00     23.04
 84.77    556.87     23.60
 84.87    556.08     23.58
 84.97    554.00     23.54
 85.07    526.74     22.95
 85.17    504.70     22.47
 85.27    516.64     22.73
 85.37    508.73     22.55
 85.47    544.00     23.32
 85.57    538.52     23.21
 85.67    535.00     23.13
 85.77    508.85     22.56
 85.87    536.00     23.15
 85.97    528.00     22.98
 86.07    544.00     23.32
 86.17    522.00     22.85
 86.27    551.00     23.47
 86.37    555.99     23.58
 86.47    533.00     23.09
 86.57    558.00     23.62
 86.67    531.61     23.06
 86.77    561.00     23.69
 86.87    579.00     24.06
 86.97    628.46     25.07
 87.07    617.00     24.84
 87.17    627.00     25.04
 87.27    666.42     25.82
 87.37    662.87     25.75
 87.47    649.48     25.48
 87.57    662.00     25.73
 87.67    620.00     24.90
 87.77    653.17     25.56
 87.87    646.60     25.43
 87.97    580.55     24.09
 88.07    642.00     25.34
 88.17    631.00     25.12
 88.27    602.00     24.54
 88.37    607.00     24.64
 88.47    587.00     24.23
 88.57    590.00     24.29
 88.67    551.83     23.49
 88.77    571.00     23.90
 88.87    588.00     24.25
 88.97    591.00     24.31
 89.07    603.00     24.56
 89.17    619.16     24.88
 89.27    613.00     24.76
 89.37    554.86     23.56
 89.47    567.00     23.81
 89.57    580.00     24.08
 89.67    526.00     22.93
 89.77    578.00     24.04
 89.87    547.00     23.39
 89.97    567.18     23.82
 90.07    536.85     23.17
 90.17    528.00     22.98
 90.27    557.22     23.61
 90.37    496.00     22.27
 90.47    493.00     22.20
 90.57    559.84     23.66
 90.67    529.00     23.00
 90.77    503.00     22.43
 90.87    565.00     23.77
 90.97    491.00     22.16
 91.07    532.00     23.07
 91.17    503.00     22.43
 91.27    554.61     23.55
 91.37    513.00     22.65
 91.47    531.00     23.04
 91.57    545.09     23.35
 91.67    550.84     23.47
 91.77    532.17     23.07
 91.87    574.00     23.96
 91.97    562.00     23.71
 92.07    552.59     23.51
 92.17    535.00     23.13
 92.27    596.18     24.42
 92.37    627.44     25.05
 92.47    583.65     24.16
 92.57    657.17     25.64
 92.67    609.45     24.69
 92.77    634.79     25.20
 92.87    645.46     25.41
 92.97    685.00     26.17
 93.07    681.78     26.11
 93.17    791.41     28.13
 93.27    761.00     27.59
 93.37    792.27     28.15
 93.47    785.93     28.03
 93.57    797.43     28.24
 93.67    847.29     29.11
 93.77    766.00     27.68
 93.87    838.00     28.95
 93.97    851.52     29.18
 94.07    845.32     29.07
 94.17    841.00     29.00
 94.27    893.63     29.89
 94.37    872.00     29.53
 94.47    902.00     30.03
 94.57    929.68     30.49
 94.67    948.00     30.79
 94.77    895.00     29.92
 94.87    900.00     30.00
 94.97    864.52     29.40
 95.07    907.00     30.12
 95.17    874.00     29.56
 95.27    832.00     28.84
 95.37    830.00     28.81
 95.47    794.00     28.18
 95.57    770.00     27.75
 95.67    730.99     27.04
 95.77    741.00     27.22
 95.87    744.78     27.29
 95.97    690.62     26.28
 96.07    654.86     25.59
 96.17    680.00     26.08
 96.27    753.00     27.44
 96.37    809.00     28.44
 96.47    842.02     29.02
 96.57    841.00     29.00
 96.67    918.41     30.31
 96.77   1061.00     32.57
 96.87   1018.49     31.91
 96.97   1176.90     34.31
 97.07   1234.00     35.13
 97.17   1302.21     36.09
 97.27   1421.00     37.70
 97.37   1411.44     37.57
 97.47   1409.00     37.54
 97.57   1469.67     38.34
 97.67   1344.00     36.66
 97.77   1395.40     37.36
 97.87   1400.80     37.43
 97.97   1304.00     36.11
 98.07   1264.22     35.56
 98.17   1225.74     35.01
 98.27   1117.00     33.42
 98.37   1017.59     31.90
 98.47    968.02     31.11
 98.57    907.00     30.12
 98.67    810.00     28.46
 98.77    840.15     28.99
 98.87    845.00     29.07
 98.97    805.00     28.37
 99.07    839.02     28.97
 99.17    863.50     29.39
 99.27    938.00     30.63
 99.37    977.00     31.26
 99.47   1034.00     32.16
 99.57   1123.00     33.51
 99.67   1210.00     34.79
 99.77   1268.03     35.61
 99.87   1350.00     36.74
 99.97   1511.00     38.87
100.07   1656.89     40.70
100.17   1821.00     42.67
100.27   1807.00     42.51
100.37   1959.00     44.26
100.47   2016.00     44.90
100.57   2045.00     45.22
100.67   2033.00     45.09
100.77   1970.00     44.38
100.87   2090.75     45.72
100.97   1935.00     43.99
101.07   1984.43     44.55
101.17   1810.83     42.55
101.27   1741.00     41.73
101.37   1691.00     41.12
101.47   1615.00     40.19
101.57   1484.00     38.52
101.67   1480.38     38.48
101.77   1354.00     36.80
101.87   1325.64     36.41
101.97   1228.00     35.04
102.07   1195.88     34.58
102.17   1193.00     34.54
102.27   1127.00     33.57
102.37   1196.73     34.59
102.47   1075.48     32.79
102.57   1083.00     32.91
102.67   1097.83     33.13
102.77   1030.00     32.09
102.87    985.59     31.39
102.97   1034.53     32.16
103.07    950.78     30.83
103.17    894.00     29.90
103.27    879.00     29.65
103.37    783.00     27.98
103.47    809.70     28.46
103.57    786.21     28.04
103.67    734.00     27.09
103.77    739.00     27.18
103.87    678.00     26.04
103.97    665.30     25.79
104.07    587.52     24.24
104.17    591.00     24.31
104.27    584.00     24.17
104.37    553.00     23.52
104.47    563.85     23.75
104.57    575.00     23.98
104.67    542.00     23.28
104.77    520.00     22.80
104.87    553.00     23.52
104.97    507.00     22.52
105.07    526.95     22.96
105.17    524.00     22.89
105.27    548.00     23.41
105.37    535.00     23.13
105.47    573.89     23.96
105.57    572.00     23.92
105.67    540.00     23.24
105.77    603.00     24.56
105.87    539.50     23.23
105.97    563.00     23.73
106.07    590.00     24.29
106.17    573.00     23.94
106.27    588.00     24.25
106.37    605.00     24.60
106.47    611.07     24.72
106.57    592.90     24.35
106.67    643.00     25.36
106.77    681.96     26.11
106.87    654.00     25.57
106.97    653.00     25.55
107.07    696.45     26.39
107.17    674.00     25.96
107.27    677.91     26.04
107.37    665.00     25.79
107.47    652.45     25.54
107.57    728.98     27.00
107.67    679.00     26.06
107.77    712.00     26.68
107.87    703.00     26.51
107.97    710.00     26.65
108.07    735.08     27.11
108.17    739.85     27.20
108.27    716.00     26.76
108.37    716.09     26.76
108.47    720.00     26.83
108.57    676.00     26.00
108.67    714.00     26.72
108.77    648.80     25.47
108.87    720.00     26.83
108.97    661.00     25.71
109.07    667.00     25.83
109.17    602.00     24.54
109.27    615.60     24.81
109.37    680.00     26.08
109.47    639.00     25.28
109.57    614.00     24.78
109.67    626.14     25.02
109.77    632.00     25.14
109.87    610.93     24.72
109.97    593.67     24.37
110.07    597.00     24.43
110.17    539.13     23.22
110.27    534.72     23.12
110.37    559.00     23.64
110.47    562.26     23.71
110.57    560.00     23.66
110.67    527.00     22.96
110.77    504.14     22.45
110.87    522.28     22.85
110.97    533.00     23.09
111.07    550.08     23.45
111.17    578.00     24.04
111.27    572.00     23.92
111.37    503.00     22.43
111.47    529.00     23.00
111.57    513.30     22.66
111.67    567.00     23.81
111.77    577.66     24.03
111.87    523.00     22.87
111.97    531.56     23.06
112.07    545.00     23.35
112.17    577.54     24.03
112.27    585.00     24.19
112.37    520.00     22.80
112.47    562.00     23.71
112.57    662.00     25.73
112.67    558.00     23.62
112.77    575.00     23.98
112.87    592.00     24.33
112.97    613.89     24.78
113.07    581.00     24.10
113.17    667.00     25.83
113.27    612.00     24.74
113.37    662.39     25.74
113.47    759.24     27.55
113.57    750.00     27.39
113.67    797.33     28.24
113.77    756.00     27.50
113.87    812.26     28.50
113.97    833.17     28.86
114.07    892.42     29.87
114.17    912.00     30.20
114.27   1011.00     31.80
114.37   1110.33     33.32
114.47   1235.33     35.15
114.57   1359.37     36.87
114.67   1481.00     38.48
114.77   1629.21     40.36
114.87   1834.00     42.83
114.97   2071.00     45.51
115.07   2203.00     46.94
115.17   2558.00     50.58
115.27   2801.00     52.92
115.37   2911.48     53.96
115.47   3277.00     57.25
115.57   3749.00     61.23
115.67   4057.00     63.69
115.77   4425.00     66.52
115.87   4737.00     68.83
115.97   5118.00     71.54
116.07   5571.00     74.64
116.17   5793.36     76.11
116.27   6346.00     79.66
116.37   6431.00     80.19
116.47   6632.00     81.44
116.57   6716.00     81.95
116.67   6886.00     82.98
116.77   6900.00     83.07
116.87   6827.00     82.63
116.97   6476.00     80.47
117.07   6458.00     80.36
117.17   6213.13     78.82
117.27   5565.00     74.60
117.37   5218.00     72.24
117.47   5080.21     71.28
117.57   4630.00     68.04
117.67   4441.52     66.64
117.77   3924.00     62.64
117.87   3656.40     60.47
117.97   3328.44     57.69
118.07   2980.00     54.59
118.17   2583.28     50.83
118.27   2284.00     47.79
118.37   2073.00     45.53
118.47   1869.00     43.23
118.57   1585.00     39.81
118.67   1477.09     38.43
118.77   1396.93     37.38
118.87   1205.00     34.71
118.97   1004.00     31.69
119.07    992.03     31.50
119.17    893.00     29.88
119.27    843.00     29.03
119.37    781.66     27.96
119.47    805.26     28.38
119.57    705.33     26.56
119.67    761.00     27.59
119.77    721.49     26.86
119.87    638.00     25.26
119.97    599.00     24.47
120.07    627.00     25.04
120.17    608.74     24.67
120.27    618.95     24.88
120.37    556.00     23.58
120.47    638.00     25.26
120.57    564.00     23.75
120.67    549.98     23.45
120.77    580.07     24.08
120.87    581.00     24.10
120.97    572.00     23.92
121.07    557.00     23.60
121.17    579.00     24.06
121.27    571.52     23.91
121.37    600.88     24.51
121.47    575.00     23.98
121.57    549.00     23.43
121.67    549.00     23.43
121.77    588.00     24.25
121.87    564.00     23.75
121.97    577.66     24.03
122.07    655.00     25.59
122.17    631.82     25.14
122.27    577.12     24.02
122.37    652.00     25.53
122.47    649.11     25.48
122.57    650.08     25.50
122.67    645.00     25.40
122.77    604.00     24.58
122.87    669.00     25.87
122.97    631.00     25.12
123.07    599.81     24.49
123.17    643.00     25.36
123.27    662.00     25.73
123.37    655.00     25.59
123.47    655.00     25.59
123.57    621.00     24.92
123.67    625.00     25.00
123.77    600.16     24.50
123.87    665.00     25.79
123.97    600.00     24.49
124.07    650.00     25.50
124.17    618.00     24.86
124.27    598.00     24.45
124.37    592.73     24.35
124.47    634.62     25.19
124.57    594.00     24.37
124.67    574.92     23.98
124.77    563.00     23.73
124.87    624.20     24.98
124.97    591.00     24.31
