XYDATA



INTER 1.0 1.0 0 0
TEMP 993.018
  9.97    589.00     24.27
 10.07    648.00     25.46
 10.17    600.00     24.49
 10.27    604.54     24.59
 10.37    574.64     23.97
 10.47    597.00     24.43
 10.57    615.11     24.80
 10.67    578.00     24.04
 10.77    604.35     24.58
 10.87    619.26     24.88
 10.97    566.00     23.79
 11.07    592.00     24.33
 11.17    572.00     23.92
 11.27    546.38     23.37
 11.37    554.90     23.56
 11.47    556.99     23.60
 11.57    568.48     23.84
 11.67    588.00     24.25
 11.77    636.00     25.22
 11.87    671.00     25.90
 11.97    626.00     25.02
 12.07    632.00     25.14
 12.17    692.00     26.31
 12.27    689.00     26.25
 12.37    676.00     26.00
 12.47    618.00     24.86
 12.57    646.00     25.42
 12.67    571.27     23.90
 12.77    560.60     23.68
 12.87    560.55     23.68
 12.97    548.00     23.41
 13.07    612.98     24.76
 13.17    577.00     24.02
 13.27    522.00     22.85
 13.37    613.13     24.76
 13.47    538.00     23.19
 13.57    571.00     23.90
 13.67    584.00     24.17
 13.77    582.06     24.13
 13.87    533.84     23.11
 13.97    601.00     24.52
 14.07    593.37     24.36
 14.17    563.00     23.73
 14.27    567.00     23.81
 14.37    573.00     23.94
 14.47    528.05     22.98
 14.57    569.00     23.85
 14.67    556.00     23.58
 14.77    550.00     23.45
 14.87    571.00     23.90
 14.97    548.00     23.41
 15.07    579.00     24.06
 15.17    619.83     24.90
 15.27    618.00     24.86
 15.37    589.00     24.27
 15.47    613.93     24.78
 15.57    593.00     24.35
 15.67    538.00     23.19
 15.77    570.00     23.87
 15.87    533.50     23.10
 15.97    544.00     23.32
 16.07    575.00     23.98
 16.17    554.26     23.54
 16.27    587.00     24.23
 16.37    522.53     22.86
 16.47    597.75     24.45
 16.57    547.00     23.39
 16.67    582.21     24.13
 16.77    554.00     23.54
 16.87    526.00     22.93
 16.97    590.00     24.29
 17.07    548.00     23.41
 17.17    546.36     23.37
 17.27    524.61     22.90
 17.37    566.00     23.79
 17.47    561.00     23.69
 17.57    536.63     23.17
 17.67    583.85     24.16
 17.77    589.00     24.27
 17.87    556.87     23.60
 17.97    590.10     24.29
 18.07    544.00     23.32
 18.17    546.49     23.38
 18.27    552.00     23.49
 18.37    552.00     23.49
 18.47    585.82     24.20
 18.57    551.78     23.49
 18.67    581.00     24.10
 18.77    573.00     23.94
 18.87    541.00     23.26
 18.97    610.78     24.71
 19.07    568.00     23.83
 19.17    589.00     24.27
 19.27    574.00     23.96
 19.37    564.00     23.75
 19.47    528.00     22.98
 19.57    556.00     23.58
 19.67    535.34     23.14
 19.77    581.00     24.10
 19.87    540.00     23.24
 19.97    594.00     24.37
 20.07    528.84     23.00
 20.17    589.38     24.28
 20.27    552.00     23.49
 20.37    602.34     24.54
 20.47    566.00     23.79
 20.57    533.00     23.09
 20.67    552.00     23.49
 20.77    550.00     23.45
 20.87    561.19     23.69
 20.97    541.00     23.26
 21.07    564.00     23.75
 21.17    557.90     23.62
 21.27    529.00     23.00
 21.37    591.49     24.32
 21.47    575.56     23.99
 21.57    534.00     23.11
 21.67    504.00     22.45
 21.77    565.00     23.77
 21.87    552.00     23.49
 21.97    559.00     23.64
 22.07    554.00     23.54
 22.17    547.00     23.39
 22.27    543.00     23.30
 22.37    563.00     23.73
 22.47    561.43     23.69
 22.57    551.66     23.49
 22.67    544.00     23.32
 22.77    537.15     23.18
 22.87    553.00     23.52
 22.97    525.00     22.91
 23.07    567.09     23.81
 23.17    563.93     23.75
 23.27    548.00     23.41
 23.37    574.83     23.98
 23.47    508.00     22.54
 23.57    520.00     22.80
 23.67    515.38     22.70
 23.77    517.13     22.74
 23.87    569.00     23.85
 23.97    559.61     23.66
 24.07    544.25     23.33
 24.17    526.00     22.93
 24.27    579.35     24.07
 24.37    587.00     24.23
 24.47    602.00     24.54
 24.57    504.00     22.45
 24.67    577.00     24.02
 24.77    595.41     24.40
 24.87    616.00     24.82
 24.97    612.00     24.74
 25.07    590.00     24.29
 25.17    559.00     23.64
 25.27    513.00     22.65
 25.37    591.00     24.31
 25.47    513.00     22.65
 25.57    516.08     22.72
 25.67    526.00     22.93
 25.77    548.00     23.41
 25.87    521.00     22.83
 25.97    535.27     23.14
 26.07    518.86     22.78
 26.17    523.00     22.87
 26.27    569.00     23.85
 26.37    572.00     23.92
 26.47    562.00     23.71
 26.57    547.00     23.39
 26.67    567.68     23.83
 26.77    529.00     23.00
 26.87    586.00     24.21
 26.97    495.70     22.26
 27.07    539.00     23.22
 27.17    558.03     23.62
 27.27    579.00     24.06
 27.37    578.00     24.04
 27.47    494.00     22.23
 27.57    593.00     24.35
 27.67    549.00     23.43
 27.77    584.00     24.17
 27.87    562.66     23.72
 27.97    665.35     25.79
 28.07    708.21     26.61
 28.17    883.00     29.72
 28.27    899.10     29.98
 28.37    887.04     29.78
 28.47    861.00     29.34
 28.57    731.00     27.04
 28.67    700.00     26.46
 28.77    761.00     27.59
 28.87    786.15     28.04
 28.97    897.00     29.95
 29.07    798.00     28.25
 29.17    735.00     27.11
 29.27    667.00     25.83
 29.37    626.49     25.03
 29.47    612.00     24.74
 29.57    640.00     25.30
 29.67    591.00     24.31
 29.77    572.42     23.93
 29.87    592.00     24.33
 29.97    584.00     24.17
 30.07    569.00     23.85
 30.17    609.00     24.68
 30.27    595.00     24.39
 30.37    569.00     23.85
 30.47    557.00     23.60
 30.57    517.31     22.74
 30.67    597.83     24.45
 30.77    577.00     24.02
 30.87    587.00     24.23
 30.97    626.00     25.02
 31.07    593.00     24.35
 31.17    565.00     23.77
 31.27    529.19     23.00
 31.37    550.00     23.45
 31.47    530.00     23.02
 31.57    507.51     22.53
 31.67    499.21     22.34
 31.77    516.05     22.72
 31.87    515.04     22.69
 31.97    545.49     23.36
 32.07    553.00     23.52
 32.17    541.00     23.26
 32.27    520.28     22.81
 32.37    534.00     23.11
 32.47    524.00     22.89
 32.57    511.00     22.61
 32.67    563.00     23.73
 32.77    529.00     23.00
 32.87    506.14     22.50
 32.97    501.22     22.39
 33.07    531.00     23.04
 33.17    563.23     23.73
 33.27    535.00     23.13
 33.37    575.00     23.98
 33.47    604.00     24.58
 33.57    559.79     23.66
 33.67    622.00     24.94
 33.77    748.00     27.35
 33.87    874.00     29.56
 33.97   1054.00     32.47
 34.07   1015.88     31.87
 34.17   1009.00     31.76
 34.27    904.09     30.07
 34.37    774.00     27.82
 34.47    670.58     25.90
 34.57    599.00     24.47
 34.67    555.05     23.56
 34.77    500.46     22.37
 34.87    527.50     22.97
 34.97    565.35     23.78
 35.07    553.00     23.52
 35.17    526.41     22.94
 35.27    472.00     21.73
 35.37    510.00     22.58
 35.47    542.05     23.28
 35.57    527.96     22.98
 35.67    508.00     22.54
 35.77    484.00     22.00
 35.87    540.80     23.26
 35.97    478.21     21.87
 36.07    499.19     22.34
 36.17    508.00     22.54
 36.27    545.00     23.35
 36.37    541.52     23.27
 36.47    522.00     22.85
 36.57    510.00     22.58
 36.67    506.00     22.49
 36.77    478.95     21.88
 36.87    560.00     23.66
 36.97    484.63     22.01
 37.07    479.00     21.89
 37.17    471.00     21.70
 37.27    539.00     23.22
 37.37    533.00     23.09
 37.47    488.00     22.09
 37.57    503.99     22.45
 37.67    491.27     22.16
 37.77    545.35     23.35
 37.87    540.00     23.24
 37.97    530.00     23.02
 38.07    509.29     22.57
 38.17    501.49     22.39
 38.27    512.00     22.63
 38.37    511.00     22.61
 38.47    514.00     22.67
 38.57    488.83     22.11
 38.67    494.00     22.23
 38.77    468.00     21.63
 38.87    497.00     22.29
 38.97    563.00     23.73
 39.07    459.00     21.42
 39.17    511.76     22.62
 39.27    514.00     22.67
 39.37    491.00     22.16
 39.47    546.00     23.37
 39.57    485.57     22.04
 39.67    479.00     21.89
 39.77    493.00     22.20
 39.87    502.00     22.41
 39.97    499.09     22.34
 40.07    477.00     21.84
 40.17    484.00     22.00
 40.27    521.79     22.84
 40.37    495.00     22.25
 40.47    489.73     22.13
 40.57    501.00     22.38
 40.67    524.48     22.90
 40.77    529.00     23.00
 40.87    530.00     23.02
 40.97    481.02     21.93
 41.07    499.00     22.34
 41.17    498.00     22.32
 41.27    478.13     21.87
 41.37    542.48     23.29
 41.47    488.00     22.09
 41.57    530.00     23.02
 41.67    490.00     22.14
 41.77    509.79     22.58
 41.87    487.00     22.07
 41.97    503.00     22.43
 42.07    483.74     21.99
 42.17    518.00     22.76
 42.27    501.00     22.38
 42.37    600.00     24.49
 42.47    543.00     23.30
 42.57    633.89     25.18
 42.67    595.00     24.39
 42.77    653.83     25.57
 42.87    566.00     23.79
 42.97    558.00     23.62
 43.07    541.00     23.26
 43.17    508.00     22.54
 43.27    525.00     22.91
 43.37    512.00     22.63
 43.47    477.73     21.86
 43.57    535.89     23.15
 43.67    512.00     22.63
 43.77    494.00     22.23
 43.87    536.54     23.16
 43.97    538.03     23.20
 44.07    500.00     22.36
 44.17    491.42     22.17
 44.27    480.40     21.92
 44.37    542.91     23.30
 44.47    455.00     21.33
 44.57    523.00     22.87
 44.67    488.00     22.09
 44.77    477.00     21.84
 44.87    516.43     22.73
 44.97    474.00     21.77
 45.07    481.00     21.93
 45.17    530.84     23.04
 45.27    506.00     22.49
 45.37    549.00     23.43
 45.47    499.00     22.34
 45.57    517.00     22.74
 45.67    481.00     21.93
 45.77    481.00     21.93
 45.87    455.33     21.34
 45.97    497.00     22.29
 46.07    495.00     22.25
 46.17    504.20     22.45
 46.27    454.00     21.31
 46.37    474.00     21.77
 46.47    461.53     21.48
 46.57    482.00     21.95
 46.67    500.00     22.36
 46.77    479.76     21.90
 46.87    513.00     22.65
 46.97    496.00     22.27
 47.07    486.00     22.05
 47.17    474.07     21.77
 47.27    553.00     23.52
 47.37    472.00     21.73
 47.47    549.36     23.44
 47.57    533.10     23.09
 47.67    567.34     23.82
 47.77    611.00     24.72
 47.87    558.25     23.63
 47.97    648.00     25.46
 48.07    576.00     24.00
 48.17    534.70     23.12
 48.27    567.00     23.81
 48.37    545.00     23.35
 48.47    491.79     22.18
 48.57    494.39     22.23
 48.67    518.00     22.76
 48.77    515.20     22.70
 48.87    540.00     23.24
 48.97    530.00     23.02
 49.07    527.09     22.96
 49.17    554.00     23.54
 49.27    638.00     25.26
 49.37    656.00     25.61
 49.47    670.00     25.88
 49.57    808.47     28.43
 49.67    908.07     30.13
 49.77   1067.00     32.66
 49.87   1357.00     36.84
 49.97   1773.00     42.11
 50.07   2214.25     47.06
 50.17   2393.00     48.92
 50.27   2535.00     50.35
 50.37   2400.00     48.99
 50.47   1998.00     44.70
 50.57   1567.00     39.59
 50.67   1164.00     34.12
 50.77    879.00     29.65
 50.87    709.25     26.63
 50.97    640.24     25.30
 51.07    602.23     24.54
 51.17    610.00     24.70
 51.27    625.87     25.02
 51.37    590.00     24.29
 51.47    568.00     23.83
 51.57    545.42     23.35
 51.67    505.77     22.49
 51.77    552.00     23.49
 51.87    525.00     22.91
 51.97    547.00     23.39
 52.07    561.00     23.69
 52.17    583.00     24.15
 52.27    538.00     23.19
 52.37    543.00     23.30
 52.47    549.00     23.43
 52.57    493.06     22.20
 52.67    527.50     22.97
 52.77    566.31     23.80
 52.87    635.00     25.20
 52.97    677.00     26.02
 53.07    694.88     26.36
 53.17    866.07     29.43
 53.27   1037.00     32.20
 53.37   1029.16     32.08
 53.47   1148.00     33.88
 53.57   1184.00     34.41
 53.67   1124.00     33.53
 53.77   1069.00     32.70
 53.87    898.00     29.97
 53.97    824.00     28.71
 54.07    729.00     27.00
 54.17    668.00     25.85
 54.27    625.00     25.00
 54.37    597.00     24.43
 54.47    565.00     23.77
 54.57    558.45     23.63
 54.67    554.00     23.54
 54.77    540.00     23.24
 54.87    510.50     22.59
 54.97    542.00     23.28
 55.07    556.00     23.58
 55.17    565.00     23.77
 55.27    580.40     24.09
 55.37    501.24     22.39
 55.47    555.00     23.56
 55.57    569.71     23.87
 55.67    539.00     23.22
 55.77    598.00     24.45
 55.87    620.20     24.90
 55.97    647.00     25.44
 56.07    692.27     26.31
 56.17    698.00     26.42
 56.27    846.00     29.09
 56.37   1043.00     32.30
 56.47   1231.00     35.09
 56.57   1560.00     39.50
 56.67   2064.14     45.43
 56.77   2320.48     48.17
 56.87   2585.00     50.84
 56.97   2609.00     51.08
 57.07   2544.00     50.44
 57.17   2176.00     46.65
 57.27   1842.00     42.92
 57.37   1443.81     38.00
 57.47   1192.00     34.53
 57.57    939.00     30.64
 57.67    819.14     28.62
 57.77    745.00     27.29
 57.87    669.00     25.87
 57.97    687.00     26.21
 58.07    662.00     25.73
 58.17    665.52     25.80
 58.27    722.00     26.87
 58.37    787.00     28.05
 58.47    955.00     30.90
 58.57   1081.00     32.88
 58.67   1213.00     34.83
 58.77   1339.00     36.59
 58.87   1488.00     38.57
 58.97   1598.96     39.99
 59.07   1721.00     41.48
 59.17   1616.09     40.20
 59.27   1449.45     38.07
 59.37   1481.66     38.49
 59.47   1284.00     35.83
 59.57   1166.00     34.15
 59.67   1130.00     33.62
 59.77   1125.00     33.54
 59.87   1142.00     33.79
 59.97   1263.00     35.54
 60.07   1463.00     38.25
 60.17   1494.00     38.65
 60.27   1620.48     40.26
 60.37   1573.00     39.66
 60.47   1493.88     38.65
 60.57   1309.74     36.19
 60.67   1190.00     34.50
 60.77    970.72     31.16
 60.87    822.00     28.67
 60.97    728.78     27.00
 61.07    694.29     26.35
 61.17    640.00     25.30
 61.27    616.41     24.83
 61.37    635.00     25.20
 61.47    632.00     25.14
 61.57    693.26     26.33
 61.67    852.00     29.19
 61.77    868.88     29.48
 61.87   1027.00     32.05
 61.97   1159.00     34.04
 62.07   1315.45     36.27
 62.17   1325.00     36.40
 62.27   1464.74     38.27
 62.37   1363.00     36.92
 62.47   1201.77     34.67
 62.57   1110.00     33.32
 62.67    961.23     31.00
 62.77    862.42     29.37
 62.87    744.00     27.28
 62.97    698.00     26.42
 63.07    631.00     25.12
 63.17    614.00     24.78
 63.27    523.27     22.88
 63.37    554.63     23.55
 63.47    557.00     23.60
 63.57    587.00     24.23
 63.67    570.00     23.87
 63.77    601.00     24.52
 63.87    603.11     24.56
 63.97    632.00     25.14
 64.07    712.00     26.68
 64.17    731.00     27.04
 64.27    751.02     27.40
 64.37    882.51     29.71
 64.47    986.00     31.40
 64.57   1039.29     32.24
 64.67   1013.00     31.83
 64.77   1021.00     31.95
 64.87   1012.00     31.81
 64.97    959.00     30.97
 65.07    861.00     29.34
 65.17    846.00     29.09
 65.27    713.58     26.71
 65.37    674.00     25.96
 65.47    694.93     26.36
 65.57    607.00     24.64
 65.67    582.00     24.12
 65.77    604.13     24.58
 65.87    609.77     24.69
 65.97    554.00     23.54
 66.07    574.00     23.96
 66.17    545.00     23.35
 66.27    570.00     23.87
 66.37    486.00     22.05
 66.47    530.00     23.02
 66.57    563.00     23.73
 66.67    570.00     23.87
 66.77    572.42     23.93
 66.87    588.00     24.25
 66.97    638.83     25.28
 67.07    630.80     25.12
 67.17    606.52     24.63
 67.27    741.00     27.22
 67.37    821.00     28.65
 67.47    912.00     30.20
 67.57   1166.66     34.16
 67.67   1378.00     37.12
 67.77   1626.00     40.32
 67.87   1867.00     43.21
 67.97   2176.00     46.65
 68.07   2356.00     48.54
 68.17   2394.00     48.93
 68.27   2239.00     47.32
 68.37   2093.00     45.75
 68.47   1989.00     44.60
 68.57   1623.82     40.30
 68.67   1402.99     37.46
 68.77   1110.19     33.32
 68.87    911.75     30.20
 68.97    849.00     29.14
 69.07    719.94     26.83
 69.17    671.85     25.92
 69.27    662.69     25.74
 69.37    626.00     25.02
 69.47    593.00     24.35
 69.57    609.00     24.68
 69.67    576.00     24.00
 69.77    578.64     24.05
 69.87    586.41     24.22
 69.97    564.00     23.75
 70.07    594.82     24.39
 70.17    542.74     23.30
 70.27    506.00     22.49
 70.37    548.53     23.42
 70.47    566.23     23.80
 70.57    574.00     23.96
 70.67    588.00     24.25
 70.77    534.00     23.11
 70.87    605.00     24.60
 70.97    564.00     23.75
 71.07    683.74     26.15
 71.17    661.00     25.71
 71.27    760.00     27.57
 71.37    837.54     28.94
 71.47    985.00     31.38
 71.57   1190.28     34.50
 71.67   1262.88     35.54
 71.77   1446.00     38.03
 71.87   1693.99     41.16
 71.97   1848.00     42.99
 72.07   1818.00     42.64
 72.17   1928.00     43.91
 72.27   1812.00     42.57
 72.37   1782.00     42.21
 72.47   1628.00     40.35
 72.57   1407.00     37.51
 72.67   1388.00     37.26
 72.77   1236.86     35.17
 72.87   1039.00     32.23
 72.97    996.00     31.56
 73.07    882.45     29.71
 73.17    800.00     28.28
 73.27    750.00     27.39
 73.37    707.00     26.59
 73.47    708.32     26.61
 73.57    616.00     24.82
 73.67    654.00     25.57
 73.77    565.00     23.77
 73.87    572.00     23.92
 73.97    645.00     25.40
 74.07    528.08     22.98
 74.17    579.00     24.06
 74.27    613.00     24.76
 74.37    551.31     23.48
 74.47    581.00     24.10
 74.57    573.89     23.96
 74.67    614.48     24.79
 74.77    602.04     24.54
 74.87    658.00     25.65
 74.97    635.00     25.20
 75.07    572.00     23.92
 75.17    569.97     23.87
 75.27    573.00     23.94
 75.37    584.97     24.19
 75.47    588.00     24.25
 75.57    579.83     24.08
 75.67    556.00     23.58
 75.77    574.85     23.98
 75.87    584.00     24.17
 75.97    589.00     24.27
 76.07    599.00     24.47
 76.17    599.50     24.48
 76.27    649.00     25.48
 76.37    685.05     26.17
 76.47    740.00     27.20
 76.57    669.33     25.87
 76.67    690.00     26.27
 76.77    671.00     25.90
 76.87    688.00     26.23
 76.97    648.51     25.47
 77.07    615.00     24.80
 77.17    606.00     24.62
 77.27    564.54     23.76
 77.37    567.00     23.81
 77.47    537.00     23.17
 77.57    562.00     23.71
 77.67    522.00     22.85
 77.77    544.01     23.32
 77.87    499.04     22.34
 77.97    509.00     22.56
 78.07    569.29     23.86
 78.17    483.63     21.99
 78.27    522.17     22.85
 78.37    504.85     22.47
 78.47    547.00     23.39
 78.57    535.21     23.13
 78.67    514.16     22.68
 78.77    508.06     22.54
 78.87    540.00     23.24
 78.97    524.00     22.89
 79.07    557.91     23.62
 79.17    525.00     22.91
 79.27    559.41     23.65
 79.37    534.00     23.11
 79.47    541.00     23.26
 79.57    541.00     23.26
 79.67    550.00     23.45
 79.77    544.38     23.33
 79.87    488.00     22.09
 79.97    562.03     23.71
 80.07    516.93     22.74
 80.17    565.00     23.77
 80.27    550.73     23.47
 80.37    575.00     23.98
 80.47    572.25     23.92
 80.57    543.00     23.30
 80.67    624.93     25.00
 80.77    631.43     25.13
 80.87    704.11     26.53
 80.97    676.00     26.00
 81.07    676.00     26.00
 81.17    699.49     26.45
 81.27    725.93     26.94
 81.37    700.00     26.46
 81.47    741.00     27.22
 81.57    711.00     26.66
 81.67    684.58     26.16
 81.77    717.00     26.78
 81.87    747.00     27.33
 81.97    699.62     26.45
 82.07    676.00     26.00
 82.17    669.00     25.87
 82.27    670.00     25.88
 82.37    614.87     24.80
 82.47    580.00     24.08
 82.57    595.00     24.39
 82.67    539.96     23.24
 82.77    548.00     23.41
 82.87    519.48     22.79
 82.97    534.00     23.11
 83.07    574.57     23.97
 83.17    531.00     23.04
 83.27    564.00     23.75
 83.37    547.00     23.39
 83.47    545.00     23.35
 83.57    527.00     22.96
 83.67    519.00     22.78
 83.77    597.00     24.43
 83.87    543.00     23.30
 83.97    611.01     24.72
 84.07    561.00     23.69
 84.17    557.00     23.60
 84.27    605.09     24.60
 84.37    539.00     23.22
 84.47    565.00     23.77
 84.57    565.00     23.77
 84.67    554.82     23.55
 84.77    559.23     23.65
 84.87    552.00     23.49
 84.97    533.00     23.09
 85.07    571.31     23.90
 85.17    530.00     23.02
 85.27    508.00     22.54
 85.37    502.00     22.41
 85.47    536.76     23.17
 85.57    493.00     22.20
 85.67    522.00     22.85
 85.77    510.68     22.60
 85.87    491.00     22.16
 85.97    546.00     23.37
 86.07    507.60     22.53
 86.17    507.00     22.52
 86.27    573.00     23.94
 86.37    553.17     23.52
 86.47    518.22     22.76
 86.57    536.00     23.15
 86.67    528.00     22.98
 86.77    589.00     24.27
 86.87    598.00     24.45
 86.97    597.00     24.43
 87.07    618.75     24.87
 87.17    629.00     25.08
 87.27    626.00     25.02
 87.37    633.73     25.17
 87.47    580.65     24.10
 87.57    611.89     24.74
 87.67    648.00     25.46
 87.77    634.16     25.18
 87.87    598.02     24.45
 87.97    591.00     24.31
 88.07    629.00     25.08
 88.17    562.00     23.71
 88.27    584.91     24.18
 88.37    615.35     24.81
 88.47    549.00     23.43
 88.57    576.00     24.00
 88.67    548.87     23.43
 88.77    606.05     24.62
 88.87    558.08     23.62
 88.97    613.21     24.76
 89.07    604.00     24.58
 89.17    648.00     25.46
 89.27    631.00     25.12
 89.37    597.30     24.44
 89.47    588.00     24.25
 89.57    549.05     23.43
 89.67    559.00     23.64
 89.77    632.00     25.14
 89.87    590.00     24.29
 89.97    586.91     24.23
 90.07    569.00     23.85
 90.17    561.00     23.69
 90.27    522.00     22.85
 90.37    505.00     22.47
 90.47    540.50     23.25
 90.57    509.00     22.56
 90.67    501.00     22.38
 90.77    556.00     23.58
 90.87    545.79     23.36
 90.97    532.00     23.07
 91.07    518.20     22.76
 91.17    486.03     22.05
 91.27    496.38     22.28
 91.37    527.00     22.96
 91.47    506.00     22.49
 91.57    559.04     23.64
 91.67    556.70     23.59
 91.77    564.56     23.76
 91.87    523.00     22.87
 91.97    561.00     23.69
 92.07    537.83     23.19
 92.17    560.92     23.68
 92.27    573.00     23.94
 92.37    529.00     23.00
 92.47    616.00     24.82
 92.57    583.17     24.15
 92.67    655.00     25.59
 92.77    594.00     24.37
 92.87    674.98     25.98
 92.97    676.06     26.00
 93.07    689.47     26.26
 93.17    755.16     27.48
 93.27    793.00     28.16
 93.37    816.00     28.57
 93.47    812.95     28.51
 93.57    773.44     27.81
 93.67    804.19     28.36
 93.77    793.42     28.17
 93.87    852.98     29.21
 93.97    841.87     29.02
 94.07    864.27     29.40
 94.17    845.00     29.07
 94.27    836.00     28.91
 94.37    862.00     29.36
 94.47    902.00     30.03
 94.57    866.00     29.43
 94.67    881.53     29.69
 94.77    912.29     30.20
 94.87    935.00     30.58
 94.97    864.81     29.41
 95.07    923.00     30.38
 95.17    912.00     30.20
 95.27    876.28     29.60
 95.37    803.00     28.34
 95.47    771.28     27.77
 95.57    748.00     27.35
 95.67    714.00     26.72
 95.77    725.00     26.93
 95.87    733.08     27.08
 95.97    657.00     25.63
 96.07    694.10     26.35
 96.17    698.00     26.42
 96.27    645.14     25.40
 96.37    691.00     26.29
 96.47    800.34     28.29
 96.57    815.66     28.56
 96.67    830.00     28.81
 96.77    865.39     29.42
 96.87    985.00     31.38
 96.97    995.35     31.55
 97.07   1178.04     34.32
 97.17   1276.00     35.72
 97.27   1280.61     35.79
 97.37   1256.00     35.44
 97.47   1357.00     36.84
 97.57   1385.15     37.22
 97.67   1420.00     37.68
 97.77   1366.31     36.96
 97.87   1380.00     37.15
 97.97   1342.00     36.63
 98.07   1238.00     35.19
 98.17   1241.81     35.24
 98.27   1134.00     33.67
 98.37   1113.00     33.36
 98.47   1009.00     31.76
 98.57    925.00     30.41
 98.67    927.06     30.45
 98.77    864.78     29.41
 98.87    833.03     28.86
 98.97    775.00     27.84
 99.07    802.00     28.32
 99.17    765.99     27.68
 99.27    833.00     28.86
 99.37    837.90     28.95
 99.47    913.00     30.22
 99.57   1038.00     32.22
 99.67   1143.00     33.81
 99.77   1138.00     33.73
 99.87   1303.09     36.10
 99.97   1401.00     37.43
100.07   1482.00     38.50
100.17   1696.00     41.18
100.27   1786.00     42.26
100.37   1820.94     42.67
100.47   2020.00     44.94
100.57   1974.81     44.44
100.67   2152.00     46.39
100.77   2128.00     46.13
100.87   2193.00     46.83
100.97   2118.00     46.02
101.07   2050.00     45.28
101.17   2051.00     45.29
101.27   1855.00     43.07
101.37   1789.00     42.30
101.47   1702.00     41.26
101.57   1606.00     40.07
101.67   1537.40     39.21
101.77   1477.00     38.43
101.87   1336.00     36.55
101.97   1329.00     36.46
102.07   1336.40     36.56
102.17   1200.00     34.64
102.27   1213.28     34.83
102.37   1142.00     33.79
102.47   1051.00     32.42
102.57   1123.00     33.51
102.67   1056.00     32.50
102.77    989.00     31.45
102.87   1023.00     31.98
102.97   1041.27     32.27
103.07    897.00     29.95
103.17    872.00     29.53
103.27    860.00     29.33
103.37    803.00     28.34
103.47    854.19     29.23
103.57    803.00     28.34
103.67    753.00     27.44
103.77    709.00     26.63
103.87    657.00     25.63
103.97    622.00     24.94
104.07    574.30     23.96
104.17    612.00     24.74
104.27    541.90     23.28
104.37    607.00     24.64
104.47    540.00     23.24
104.57    552.00     23.49
104.67    544.99     23.34
104.77    534.00     23.11
104.87    488.36     22.10
104.97    498.23     22.32
105.07    524.00     22.89
105.17    548.97     23.43
105.27    556.00     23.58
105.37    559.00     23.64
105.47    504.00     22.45
105.57    509.56     22.57
105.67    584.00     24.17
105.77    540.00     23.24
105.87    581.00     24.10
105.97    579.14     24.07
106.07    561.65     23.70
106.17    521.09     22.83
106.27    622.57     24.95
106.37    575.60     23.99
106.47    571.00     23.90
106.57    631.00     25.12
106.67    575.00     23.98
106.77    616.66     24.83
106.87    657.37     25.64
106.97    585.00     24.19
107.07    632.76     25.15
107.17    629.00     25.08
107.27    678.40     26.05
107.37    696.00     26.38
107.47    668.00     25.85
107.57    748.72     27.36
107.67    704.48     26.54
107.77    641.00     25.32
107.87    676.22     26.00
107.97    665.00     25.79
108.07    675.00     25.98
108.17    711.86     26.68
108.27    680.25     26.08
108.37    653.00     25.55
108.47    686.61     26.20
108.57    650.00     25.50
108.67    685.23     26.18
108.77    655.00     25.59
108.87    678.00     26.04
108.97    673.00     25.94
109.07    684.00     26.15
109.17    700.00     26.46
109.27    657.36     25.64
109.37    667.47     25.84
109.47    615.87     24.82
109.57    680.44     26.09
109.67    658.51     25.66
109.77    678.00     26.04
109.87    592.00     24.33
109.97    600.00     24.49
110.07    608.00     24.66
110.17    567.00     23.81
110.27    601.49     24.53
110.37    522.99     22.87
110.47    555.60     23.57
110.57    572.00     23.92
110.67    541.00     23.26
110.77    546.00     23.37
110.87    592.00     24.33
110.97    499.47     22.35
111.07    568.00     23.83
111.17    573.00     23.94
111.27    481.69     21.95
111.37    519.00     22.78
111.47    541.00     23.26
111.57    590.00     24.29
111.67    569.15     23.86
111.77    527.68     22.97
111.87    564.03     23.75
111.97    542.28     23.29
112.07    576.00     24.00
112.17    534.00     23.11
112.27    518.76     22.78
112.37    595.00     24.39
112.47    532.00     23.07
112.57    572.00     23.92
112.67    601.78     24.53
112.77    647.05     25.44
112.87    580.24     24.09
112.97    628.00     25.06
113.07    678.00     26.04
113.17    705.97     26.57
113.27    669.95     25.88
113.37    680.27     26.08
113.47    810.25     28.46
113.57    827.10     28.76
113.67    825.00     28.72
113.77    906.00     30.10
113.87    955.97     30.92
113.97    965.00     31.06
114.07   1045.00     32.33
114.17   1054.83     32.48
114.27   1082.83     32.91
114.37   1182.00     34.38
114.47   1203.00     34.68
114.57   1316.69     36.29
114.67   1443.95     38.00
114.77   1625.00     40.31
114.87   1779.39     42.18
114.97   2004.00     44.77
115.07   2160.00     46.48
115.17   2385.00     48.84
115.27   2524.63     50.25
115.37   2871.00     53.58
115.47   3128.00     55.93
115.57   3410.00     58.40
115.67   3723.00     61.02
115.77   4162.00     64.51
115.87   4561.00     67.54
115.97   4921.00     70.15
116.07   5304.00     72.83
116.17   5568.00     74.62
116.27   6240.55     79.00
116.37   6444.00     80.27
116.47   6632.00     81.44
116.57   6951.01     83.37
116.67   7089.00     84.20
116.77   7230.00     85.03
116.87   7276.00     85.30
116.97   6837.87     82.69
117.07   6875.00     82.92
117.17   6676.00     81.71
117.27   6203.19     78.76
117.37   5988.00     77.38
117.47   5313.00     72.89
117.57   5031.00     70.93
117.67   4825.48     69.47
117.77   4501.00     67.09
117.87   4088.00     63.94
117.97   3512.90     59.27
118.07   3261.75     57.11
118.17   3057.00     55.29
118.27   2652.41     51.50
118.37   2216.70     47.08
118.47   2065.00     45.44
118.57   1802.00     42.45
118.67   1653.98     40.67
118.77   1357.74     36.85
118.87   1298.29     36.03
118.97   1068.00     32.68
119.07   1046.00     32.34
119.17    966.00     31.08
119.27    870.00     29.50
119.37    843.00     29.03
119.47    743.00     27.26
119.57    746.00     27.31
119.67    679.00     26.06
119.77    712.98     26.70
119.87    658.00     25.65
119.97    591.68     24.32
120.07    576.00     24.00
120.17    596.00     24.41
120.27    638.77     25.27
120.37    622.21     24.94
120.47    566.08     23.79
120.57    541.48     23.27
120.67    526.00     22.93
120.77    537.00     23.17
120.87    543.00     23.30
120.97    549.01     23.43
121.07    565.00     23.77
121.17    555.00     23.56
121.27    522.56     22.86
121.37    579.38     24.07
121.47    538.00     23.19
121.57    551.00     23.47
121.67    575.00     23.98
121.77    550.43     23.46
121.87    585.00     24.19
121.97    569.00     23.85
122.07    634.81     25.20
122.17    546.83     23.38
122.27    572.88     23.94
122.37    640.00     25.30
122.47    596.00     24.41
122.57    665.00     25.79
122.67    673.00     25.94
122.77    596.00     24.41
122.87    596.00     24.41
122.97    619.00     24.88
123.07    712.00     26.68
123.17    622.62     24.95
123.27    658.00     25.65
123.37    639.62     25.29
123.47    633.00     25.16
123.57    597.00     24.43
123.67    594.00     24.37
123.77    641.00     25.32
123.87    647.60     25.45
123.97    588.00     24.25
124.07    600.00     24.49
124.17    592.91     24.35
124.27    643.86     25.37
124.37    601.00     24.52
124.47    636.00     25.22
124.57    583.00     24.15
124.67    565.00     23.77
124.77    560.09     23.67
124.87    604.55     24.59
124.97    592.00     24.33
