XYDATA



INTER 1.0 1.0 0 0
TEMP 822.188
  9.97    624.00     24.98
 10.07    590.90     24.31
 10.17    598.00     24.45
 10.27    584.00     24.17
 10.37    578.00     24.04
 10.47    541.92     23.28
 10.57    551.91     23.49
 10.67    591.70     24.32
 10.77    629.00     25.08
 10.87    645.00     25.40
 10.97    631.00     25.12
 11.07    630.89     25.12
 11.17    574.66     23.97
 11.27    571.18     23.90
 11.37    528.61     22.99
 11.47    590.00     24.29
 11.57    602.00     24.54
 11.67    635.00     25.20
 11.77    618.04     24.86
 11.87    634.00     25.18
 11.97    687.10     26.21
 12.07    685.79     26.19
 12.17    722.46     26.88
 12.27    765.92     27.68
 12.37    673.31     25.95
 12.47    708.00     26.61
 12.57    666.95     25.83
 12.67    611.08     24.72
 12.77    589.00     24.27
 12.87    596.00     24.41
 12.97    566.00     23.79
 13.07    595.61     24.41
 13.17    563.00     23.73
 13.27    571.00     23.90
 13.37    591.67     24.32
 13.47    550.00     23.45
 13.57    608.56     24.67
 13.67    539.00     23.22
 13.77    570.84     23.89
 13.87    574.00     23.96
 13.97    580.00     24.08
 14.07    570.00     23.87
 14.17    545.88     23.36
 14.27    587.64     24.24
 14.37    542.00     23.28
 14.47    631.55     25.13
 14.57    546.00     23.37
 14.67    585.47     24.20
 14.77    612.94     24.76
 14.87    579.02     24.06
 14.97    558.00     23.62
 15.07    535.00     23.13
 15.17    532.00     23.07
 15.27    578.00     24.04
 15.37    568.46     23.84
 15.47    627.22     25.04
 15.57    593.00     24.35
 15.67    595.02     24.39
 15.77    549.00     23.43
 15.87    567.00     23.81
 15.97    624.28     24.99
 16.07    624.29     24.99
 16.17    604.32     24.58
 16.27    571.00     23.90
 16.37    550.00     23.45
 16.47    602.00     24.54
 16.57    603.00     24.56
 16.67    554.00     23.54
 16.77    599.86     24.49
 16.87    555.00     23.56
 16.97    567.00     23.81
 17.07    589.00     24.27
 17.17    558.00     23.62
 17.27    554.00     23.54
 17.37    630.38     25.11
 17.47    542.00     23.28
 17.57    540.00     23.24
 17.67    627.26     25.05
 17.77    572.00     23.92
 17.87    625.27     25.01
 17.97    558.00     23.62
 18.07    568.00     23.83
 18.17    553.00     23.52
 18.27    574.00     23.96
 18.37    555.00     23.56
 18.47    589.29     24.28
 18.57    549.00     23.43
 18.67    549.98     23.45
 18.77    565.00     23.77
 18.87    595.00     24.39
 18.97    535.00     23.13
 19.07    568.00     23.83
 19.17    525.00     22.91
 19.27    580.79     24.10
 19.37    547.00     23.39
 19.47    576.00     24.00
 19.57    542.00     23.28
 19.67    535.00     23.13
 19.77    546.44     23.38
 19.87    563.00     23.73
 19.97    561.00     23.69
 20.07    570.00     23.87
 20.17    607.38     24.65
 20.27    548.00     23.41
 20.37    539.11     23.22
 20.47    523.00     22.87
 20.57    554.00     23.54
 20.67    549.00     23.43
 20.77    565.00     23.77
 20.87    559.00     23.64
 20.97    601.58     24.53
 21.07    581.00     24.10
 21.17    564.11     23.75
 21.27    567.89     23.83
 21.37    571.00     23.90
 21.47    528.00     22.98
 21.57    542.00     23.28
 21.67    530.00     23.02
 21.77    519.05     22.78
 21.87    560.00     23.66
 21.97    587.00     24.23
 22.07    562.00     23.71
 22.17    534.91     23.13
 22.27    545.18     23.35
 22.37    512.00     22.63
 22.47    568.21     23.84
 22.57    531.00     23.04
 22.67    552.00     23.49
 22.77    557.00     23.60
 22.87    551.27     23.48
 22.97    584.00     24.17
 23.07    552.00     23.49
 23.17    568.00     23.83
 23.27    581.00     24.10
 23.37    585.51     24.20
 23.47    586.00     24.21
 23.57    532.00     23.07
 23.67    566.00     23.79
 23.77    557.39     23.61
 23.87    549.72     23.45
 23.97    616.00     24.82
 24.07    528.22     22.98
 24.17    580.00     24.08
 24.27    624.00     24.98
 24.37    643.00     25.36
 24.47    652.00     25.53
 24.57    639.63     25.29
 24.67    631.00     25.12
 24.77    656.00     25.61
 24.87    681.00     26.10
 24.97    700.46     26.47
 25.07    633.07     25.16
 25.17    614.00     24.78
 25.27    621.00     24.92
 25.37    577.00     24.02
 25.47    599.00     24.47
 25.57    592.00     24.33
 25.67    515.81     22.71
 25.77    538.06     23.20
 25.87    590.00     24.29
 25.97    574.00     23.96
 26.07    588.76     24.26
 26.17    619.00     24.88
 26.27    597.00     24.43
 26.37    569.56     23.87
 26.47    546.00     23.37
 26.57    591.00     24.31
 26.67    604.00     24.58
 26.77    515.62     22.71
 26.87    600.00     24.49
 26.97    629.00     25.08
 27.07    552.26     23.50
 27.17    518.44     22.77
 27.27    601.00     24.52
 27.37    612.00     24.74
 27.47    552.22     23.50
 27.57    631.00     25.12
 27.67    629.00     25.08
 27.77    641.23     25.32
 27.87    645.00     25.40
 27.97    631.82     25.14
 28.07    768.00     27.71
 28.17    791.00     28.12
 28.27    902.00     30.03
 28.37    927.79     30.46
 28.47    915.00     30.25
 28.57    837.00     28.93
 28.67    782.22     27.97
 28.77    788.00     28.07
 28.87    857.00     29.27
 28.97    910.00     30.17
 29.07    855.21     29.24
 29.17    825.00     28.72
 29.27    733.00     27.07
 29.37    722.29     26.88
 29.47    621.00     24.92
 29.57    586.00     24.21
 29.67    608.00     24.66
 29.77    519.32     22.79
 29.87    592.52     24.34
 29.97    563.19     23.73
 30.07    605.03     24.60
 30.17    595.01     24.39
 30.27    607.00     24.64
 30.37    641.00     25.32
 30.47    559.54     23.65
 30.57    630.00     25.10
 30.67    576.50     24.01
 30.77    613.00     24.76
 30.87    650.00     25.50
 30.97    671.00     25.90
 31.07    678.00     26.04
 31.17    628.00     25.06
 31.27    568.11     23.83
 31.37    625.00     25.00
 31.47    611.35     24.73
 31.57    609.00     24.68
 31.67    549.22     23.44
 31.77    524.00     22.89
 31.87    555.00     23.56
 31.97    532.21     23.07
 32.07    565.38     23.78
 32.17    550.87     23.47
 32.27    584.39     24.17
 32.37    589.00     24.27
 32.47    522.00     22.85
 32.57    498.00     22.32
 32.67    546.86     23.38
 32.77    550.41     23.46
 32.87    598.45     24.46
 32.97    559.00     23.64
 33.07    526.71     22.95
 33.17    587.00     24.23
 33.27    579.00     24.06
 33.37    578.00     24.04
 33.47    548.00     23.41
 33.57    605.00     24.60
 33.67    639.00     25.28
 33.77    637.00     25.24
 33.87    725.00     26.93
 33.97    866.00     29.43
 34.07   1002.00     31.65
 34.17    980.67     31.32
 34.27    975.00     31.22
 34.37    920.00     30.33
 34.47    773.00     27.80
 34.57    752.36     27.43
 34.67    598.00     24.45
 34.77    570.48     23.88
 34.87    528.19     22.98
 34.97    599.32     24.48
 35.07    530.93     23.04
 35.17    559.00     23.64
 35.27    554.87     23.56
 35.37    534.00     23.11
 35.47    553.00     23.52
 35.57    510.97     22.60
 35.67    519.00     22.78
 35.77    476.00     21.82
 35.87    525.00     22.91
 35.97    529.68     23.01
 36.07    476.00     21.82
 36.17    536.00     23.15
 36.27    497.00     22.29
 36.37    508.62     22.55
 36.47    492.81     22.20
 36.57    480.66     21.92
 36.67    495.00     22.25
 36.77    523.00     22.87
 36.87    522.33     22.85
 36.97    496.11     22.27
 37.07    560.09     23.67
 37.17    509.00     22.56
 37.27    516.00     22.72
 37.37    517.00     22.74
 37.47    532.00     23.07
 37.57    528.61     22.99
 37.67    512.00     22.63
 37.77    496.00     22.27
 37.87    491.00     22.16
 37.97    537.61     23.19
 38.07    537.00     23.17
 38.17    522.00     22.85
 38.27    486.10     22.05
 38.37    477.63     21.85
 38.47    510.00     22.58
 38.57    482.00     21.95
 38.67    485.92     22.04
 38.77    532.00     23.07
 38.87    472.00     21.73
 38.97    524.89     22.91
 39.07    515.68     22.71
 39.17    504.00     22.45
 39.27    529.11     23.00
 39.37    472.00     21.73
 39.47    516.58     22.73
 39.57    547.10     23.39
 39.67    515.00     22.69
 39.77    492.00     22.18
 39.87    519.00     22.78
 39.97    524.00     22.89
 40.07    521.39     22.83
 40.17    497.00     22.29
 40.27    514.76     22.69
 40.37    502.00     22.41
 40.47    475.00     21.79
 40.57    484.52     22.01
 40.67    550.20     23.46
 40.77    498.00     22.32
 40.87    464.00     21.54
 40.97    461.05     21.47
 41.07    536.00     23.15
 41.17    517.98     22.76
 41.27    501.00     22.38
 41.37    478.00     21.86
 41.47    500.00     22.36
 41.57    498.00     22.32
 41.67    522.00     22.85
 41.77    556.65     23.59
 41.87    550.59     23.46
 41.97    506.05     22.50
 42.07    480.00     21.91
 42.17    487.00     22.07
 42.27    498.00     22.32
 42.37    508.00     22.54
 42.47    513.03     22.65
 42.57    566.55     23.80
 42.67    568.60     23.85
 42.77    615.00     24.80
 42.87    598.00     24.45
 42.97    576.00     24.00
 43.07    555.00     23.56
 43.17    523.00     22.87
 43.27    512.00     22.63
 43.37    500.93     22.38
 43.47    555.88     23.58
 43.57    486.00     22.05
 43.67    504.00     22.45
 43.77    547.51     23.40
 43.87    516.00     22.72
 43.97    480.00     21.91
 44.07    529.00     23.00
 44.17    494.53     22.24
 44.27    490.60     22.15
 44.37    525.43     22.92
 44.47    508.00     22.54
 44.57    505.00     22.47
 44.67    531.80     23.06
 44.77    463.44     21.53
 44.87    457.52     21.39
 44.97    488.00     22.09
 45.07    514.00     22.67
 45.17    479.00     21.89
 45.27    530.00     23.02
 45.37    513.04     22.65
 45.47    539.00     23.22
 45.57    544.00     23.32
 45.67    518.38     22.77
 45.77    516.00     22.72
 45.87    499.00     22.34
 45.97    474.83     21.79
 46.07    493.00     22.20
 46.17    485.00     22.02
 46.27    524.88     22.91
 46.37    508.00     22.54
 46.47    484.00     22.00
 46.57    541.80     23.28
 46.67    502.00     22.41
 46.77    483.10     21.98
 46.87    516.00     22.72
 46.97    536.00     23.15
 47.07    520.00     22.80
 47.17    493.72     22.22
 47.27    539.00     23.22
 47.37    534.00     23.11
 47.47    557.00     23.60
 47.57    483.09     21.98
 47.67    558.00     23.62
 47.77    553.00     23.52
 47.87    557.72     23.62
 47.97    545.00     23.35
 48.07    615.00     24.80
 48.17    543.58     23.31
 48.27    534.37     23.12
 48.37    569.00     23.85
 48.47    556.30     23.59
 48.57    518.00     22.76
 48.67    573.37     23.95
 48.77    560.92     23.68
 48.87    571.00     23.90
 48.97    503.76     22.44
 49.07    537.00     23.17
 49.17    547.00     23.39
 49.27    604.75     24.59
 49.37    592.89     24.35
 49.47    576.90     24.02
 49.57    620.00     24.90
 49.67    670.00     25.88
 49.77    802.00     28.32
 49.87    980.00     31.30
 49.97   1315.86     36.27
 50.07   1638.00     40.47
 50.17   1984.00     44.54
 50.27   2244.00     47.37
 50.37   2291.00     47.86
 50.47   2230.18     47.22
 50.57   1964.06     44.32
 50.67   1573.00     39.66
 50.77   1312.18     36.22
 50.87    972.00     31.18
 50.97    853.00     29.21
 51.07    680.00     26.08
 51.17    676.00     26.00
 51.27    610.30     24.70
 51.37    629.49     25.09
 51.47    634.00     25.18
 51.57    615.00     24.80
 51.67    552.89     23.51
 51.77    522.34     22.85
 51.87    583.00     24.15
 51.97    564.00     23.75
 52.07    571.00     23.90
 52.17    606.00     24.62
 52.27    584.00     24.17
 52.37    597.00     24.43
 52.47    593.00     24.35
 52.57    533.00     23.09
 52.67    530.00     23.02
 52.77    613.39     24.77
 52.87    641.00     25.32
 52.97    653.00     25.55
 53.07    724.02     26.91
 53.17    725.00     26.93
 53.27    745.00     27.29
 53.37    935.00     30.58
 53.47   1005.67     31.71
 53.57   1047.00     32.36
 53.67   1183.00     34.39
 53.77   1129.54     33.61
 53.87   1081.00     32.88
 53.97   1058.00     32.53
 54.07    975.00     31.22
 54.17    846.00     29.09
 54.27    726.53     26.95
 54.37    714.63     26.73
 54.47    611.00     24.72
 54.57    627.04     25.04
 54.67    590.00     24.29
 54.77    546.00     23.37
 54.87    606.33     24.62
 54.97    604.00     24.58
 55.07    506.87     22.51
 55.17    546.00     23.37
 55.27    595.00     24.39
 55.37    592.58     24.34
 55.47    515.06     22.69
 55.57    607.61     24.65
 55.67    539.00     23.22
 55.77    607.00     24.64
 55.87    631.67     25.13
 55.97    620.34     24.91
 56.07    686.00     26.19
 56.17    729.94     27.02
 56.27    735.00     27.11
 56.37    907.93     30.13
 56.47    987.00     31.42
 56.57   1244.00     35.27
 56.67   1557.00     39.46
 56.77   1968.94     44.37
 56.87   2177.00     46.66
 56.97   2358.00     48.56
 57.07   2671.00     51.68
 57.17   2426.78     49.26
 57.27   2286.42     47.82
 57.37   1982.00     44.52
 57.47   1579.43     39.74
 57.57   1379.00     37.13
 57.67   1098.00     33.14
 57.77    925.00     30.41
 57.87    820.00     28.64
 57.97    805.08     28.37
 58.07    758.00     27.53
 58.17    689.00     26.25
 58.27    638.62     25.27
 58.37    729.00     27.00
 58.47    724.15     26.91
 58.57    811.67     28.49
 58.67    862.00     29.36
 58.77    941.00     30.68
 58.87   1028.00     32.06
 58.97   1147.00     33.87
 59.07   1241.00     35.23
 59.17   1310.00     36.19
 59.27   1238.66     35.19
 59.37   1380.00     37.15
 59.47   1297.00     36.01
 59.57   1231.00     35.09
 59.67   1129.28     33.60
 59.77   1162.00     34.09
 59.87   1117.00     33.42
 59.97   1221.00     34.94
 60.07   1330.00     36.47
 60.17   1304.01     36.11
 60.27   1545.00     39.31
 60.37   1509.95     38.86
 60.47   1536.00     39.19
 60.57   1408.70     37.53
 60.67   1334.22     36.53
 60.77   1222.00     34.96
 60.87   1131.00     33.63
 60.97    940.00     30.66
 61.07    830.00     28.81
 61.17    737.00     27.15
 61.27    706.00     26.57
 61.37    676.00     26.00
 61.47    742.00     27.24
 61.57    659.00     25.67
 61.67    805.78     28.39
 61.77    863.45     29.38
 61.87    867.00     29.44
 61.97    982.00     31.34
 62.07   1095.89     33.10
 62.17   1227.00     35.03
 62.27   1287.00     35.87
 62.37   1359.00     36.86
 62.47   1330.00     36.47
 62.57   1253.00     35.40
 62.67   1118.36     33.44
 62.77   1017.00     31.89
 62.87    882.00     29.70
 62.97    840.00     28.98
 63.07    729.00     27.00
 63.17    656.00     25.61
 63.27    601.57     24.53
 63.37    612.00     24.74
 63.47    601.00     24.52
 63.57    566.00     23.79
 63.67    595.00     24.39
 63.77    559.00     23.64
 63.87    598.00     24.45
 63.97    662.67     25.74
 64.07    668.00     25.85
 64.17    646.00     25.42
 64.27    690.00     26.27
 64.37    823.42     28.70
 64.47    863.00     29.38
 64.57    923.00     30.38
 64.67    991.00     31.48
 64.77    957.12     30.94
 64.87   1039.00     32.23
 64.97   1059.00     32.54
 65.07    985.00     31.38
 65.17    892.00     29.87
 65.27    863.00     29.38
 65.37    797.00     28.23
 65.47    779.00     27.91
 65.57    664.00     25.77
 65.67    681.95     26.11
 65.77    627.00     25.04
 65.87    613.00     24.76
 65.97    619.55     24.89
 66.07    562.00     23.71
 66.17    567.78     23.83
 66.27    542.00     23.28
 66.37    535.00     23.13
 66.47    551.00     23.47
 66.57    575.77     24.00
 66.67    590.00     24.29
 66.77    587.00     24.23
 66.87    628.13     25.06
 66.97    615.00     24.80
 67.07    669.15     25.87
 67.17    650.00     25.50
 67.27    701.00     26.48
 67.37    714.00     26.72
 67.47    784.00     28.00
 67.57    908.00     30.13
 67.67   1088.00     32.98
 67.77   1287.00     35.87
 67.87   1560.00     39.50
 67.97   1692.00     41.13
 68.07   2001.73     44.74
 68.17   2102.00     45.85
 68.27   2199.87     46.90
 68.37   2216.03     47.07
 68.47   2319.00     48.16
 68.57   2025.00     45.00
 68.67   1960.00     44.27
 68.77   1687.00     41.07
 68.87   1405.00     37.48
 68.97   1183.00     34.39
 69.07    987.00     31.42
 69.17    917.71     30.29
 69.27    790.00     28.11
 69.37    716.00     26.76
 69.47    683.31     26.14
 69.57    616.09     24.82
 69.67    620.00     24.90
 69.77    645.00     25.40
 69.87    626.00     25.02
 69.97    593.00     24.35
 70.07    582.00     24.12
 70.17    583.00     24.15
 70.27    592.00     24.33
 70.37    532.80     23.08
 70.47    566.55     23.80
 70.57    580.00     24.08
 70.67    538.00     23.19
 70.77    584.00     24.17
 70.87    610.00     24.70
 70.97    589.17     24.27
 71.07    608.27     24.66
 71.17    699.67     26.45
 71.27    734.01     27.09
 71.37    743.00     27.26
 71.47    847.16     29.11
 71.57    956.23     30.92
 71.67   1087.00     32.97
 71.77   1150.20     33.91
 71.87   1365.22     36.95
 71.97   1566.44     39.58
 72.07   1696.80     41.19
 72.17   1742.00     41.74
 72.27   1801.00     42.44
 72.37   1795.00     42.37
 72.47   1726.00     41.55
 72.57   1635.66     40.44
 72.67   1587.00     39.84
 72.77   1437.00     37.91
 72.87   1211.00     34.80
 72.97   1101.00     33.18
 73.07    974.00     31.21
 73.17    776.73     27.87
 73.27    777.00     27.87
 73.37    765.00     27.66
 73.47    582.84     24.14
 73.57    666.00     25.81
 73.67    634.00     25.18
 73.77    623.39     24.97
 73.87    630.00     25.10
 73.97    584.00     24.17
 74.07    617.00     24.84
 74.17    571.41     23.90
 74.27    560.67     23.68
 74.37    556.48     23.59
 74.47    605.00     24.60
 74.57    574.47     23.97
 74.67    580.00     24.08
 74.77    589.90     24.29
 74.87    625.00     25.00
 74.97    547.83     23.41
 75.07    620.00     24.90
 75.17    639.00     25.28
 75.27    652.00     25.53
 75.37    541.65     23.27
 75.47    601.00     24.52
 75.57    550.37     23.46
 75.67    618.00     24.86
 75.77    498.81     22.33
 75.87    547.00     23.39
 75.97    535.10     23.13
 76.07    631.00     25.12
 76.17    622.57     24.95
 76.27    652.00     25.53
 76.37    619.00     24.88
 76.47    644.11     25.38
 76.57    679.00     26.06
 76.67    705.00     26.55
 76.77    679.71     26.07
 76.87    659.00     25.67
 76.97    635.48     25.21
 77.07    686.22     26.20
 77.17    603.15     24.56
 77.27    677.14     26.02
 77.37    638.96     25.28
 77.47    540.00     23.24
 77.57    602.00     24.54
 77.67    552.00     23.49
 77.77    538.00     23.19
 77.87    481.00     21.93
 77.97    535.00     23.13
 78.07    488.00     22.09
 78.17    518.82     22.78
 78.27    514.00     22.67
 78.37    519.00     22.78
 78.47    495.00     22.25
 78.57    560.59     23.68
 78.67    485.00     22.02
 78.77    505.00     22.47
 78.87    497.53     22.31
 78.97    540.78     23.25
 79.07    529.29     23.01
 79.17    522.00     22.85
 79.27    499.00     22.34
 79.37    538.12     23.20
 79.47    489.00     22.11
 79.57    515.00     22.69
 79.67    517.00     22.74
 79.77    561.00     23.69
 79.87    524.28     22.90
 79.97    531.00     23.04
 80.07    507.00     22.52
 80.17    522.00     22.85
 80.27    550.00     23.45
 80.37    539.00     23.22
 80.47    598.48     24.46
 80.57    522.65     22.86
 80.67    549.00     23.43
 80.77    615.05     24.80
 80.87    596.00     24.41
 80.97    610.00     24.70
 81.07    646.00     25.42
 81.17    669.00     25.87
 81.27    643.00     25.36
 81.37    633.00     25.16
 81.47    782.04     27.96
 81.57    704.00     26.53
 81.67    692.00     26.31
 81.77    780.50     27.94
 81.87    770.32     27.75
 81.97    779.00     27.91
 82.07    748.00     27.35
 82.17    668.00     25.85
 82.27    684.00     26.15
 82.37    627.00     25.04
 82.47    657.00     25.63
 82.57    619.00     24.88
 82.67    658.61     25.66
 82.77    573.00     23.94
 82.87    568.39     23.84
 82.97    571.00     23.90
 83.07    587.71     24.24
 83.17    596.04     24.41
 83.27    572.00     23.92
 83.37    529.00     23.00
 83.47    526.00     22.93
 83.57    543.00     23.30
 83.67    550.79     23.47
 83.77    583.00     24.15
 83.87    536.00     23.15
 83.97    569.00     23.85
 84.07    574.27     23.96
 84.17    524.00     22.89
 84.27    541.00     23.26
 84.37    544.00     23.32
 84.47    573.00     23.94
 84.57    499.00     22.34
 84.67    534.01     23.11
 84.77    475.00     21.79
 84.87    556.00     23.58
 84.97    510.00     22.58
 85.07    506.82     22.51
 85.17    521.00     22.83
 85.27    525.49     22.92
 85.37    538.00     23.19
 85.47    480.00     21.91
 85.57    523.00     22.87
 85.67    496.00     22.27
 85.77    486.00     22.05
 85.87    516.86     22.73
 85.97    493.00     22.20
 86.07    490.00     22.14
 86.17    524.00     22.89
 86.27    524.81     22.91
 86.37    456.00     21.35
 86.47    509.00     22.56
 86.57    535.00     23.13
 86.67    521.00     22.83
 86.77    483.97     22.00
 86.87    531.25     23.05
 86.97    584.80     24.18
 87.07    549.72     23.45
 87.17    580.00     24.08
 87.27    571.00     23.90
 87.37    545.36     23.35
 87.47    556.00     23.58
 87.57    617.22     24.84
 87.67    608.00     24.66
 87.77    645.12     25.40
 87.87    661.00     25.71
 87.97    625.00     25.00
 88.07    606.00     24.62
 88.17    641.00     25.32
 88.27    585.00     24.19
 88.37    604.17     24.58
 88.47    604.67     24.59
 88.57    576.00     24.00
 88.67    554.00     23.54
 88.77    608.04     24.66
 88.87    579.13     24.07
 88.97    537.34     23.18
 89.07    591.07     24.31
 89.17    568.00     23.83
 89.27    585.00     24.19
 89.37    563.00     23.73
 89.47    566.00     23.79
 89.57    573.17     23.94
 89.67    614.00     24.78
 89.77    603.00     24.56
 89.87    596.00     24.41
 89.97    567.00     23.81
 90.07    625.80     25.02
 90.17    562.00     23.71
 90.27    578.92     24.06
 90.37    521.00     22.83
 90.47    495.00     22.25
 90.57    560.65     23.68
 90.67    546.78     23.38
 90.77    490.38     22.14
 90.87    561.54     23.70
 90.97    488.00     22.09
 91.07    523.24     22.87
 91.17    522.00     22.85
 91.27    542.08     23.28
 91.37    560.09     23.67
 91.47    477.06     21.84
 91.57    473.57     21.76
 91.67    512.77     22.64
 91.77    508.00     22.54
 91.87    517.00     22.74
 91.97    569.12     23.86
 92.07    477.93     21.86
 92.17    519.00     22.78
 92.27    549.00     23.43
 92.37    543.00     23.30
 92.47    511.00     22.61
 92.57    539.83     23.23
 92.67    549.27     23.44
 92.77    543.90     23.32
 92.87    594.00     24.37
 92.97    611.00     24.72
 93.07    663.00     25.75
 93.17    652.00     25.53
 93.27    608.00     24.66
 93.37    707.33     26.60
 93.47    721.00     26.85
 93.57    722.08     26.87
 93.67    754.00     27.46
 93.77    772.00     27.78
 93.87    764.19     27.64
 93.97    825.00     28.72
 94.07    736.25     27.13
 94.17    859.00     29.31
 94.27    821.00     28.65
 94.37    829.00     28.79
 94.47    781.72     27.96
 94.57    875.00     29.58
 94.67    887.00     29.78
 94.77    869.00     29.48
 94.87    875.93     29.60
 94.97    895.00     29.92
 95.07    845.51     29.08
 95.17    907.00     30.12
 95.27    884.00     29.73
 95.37    942.00     30.69
 95.47    881.00     29.68
 95.57    820.00     28.64
 95.67    823.00     28.69
 95.77    744.00     27.28
 95.87    760.00     27.57
 95.97    770.00     27.75
 96.07    661.01     25.71
 96.17    701.75     26.49
 96.27    686.38     26.20
 96.37    720.00     26.83
 96.47    692.00     26.31
 96.57    691.35     26.29
 96.67    796.00     28.21
 96.77    805.00     28.37
 96.87    793.00     28.16
 96.97    906.18     30.10
 97.07   1019.46     31.93
 97.17    992.80     31.51
 97.27   1085.00     32.94
 97.37   1102.00     33.20
 97.47   1282.79     35.82
 97.57   1352.00     36.77
 97.67   1341.15     36.62
 97.77   1432.30     37.85
 97.87   1419.00     37.67
 97.97   1471.00     38.35
 98.07   1342.59     36.64
 98.17   1460.32     38.21
 98.27   1345.99     36.69
 98.37   1326.00     36.41
 98.47   1233.66     35.12
 98.57   1136.57     33.71
 98.67   1140.00     33.76
 98.77   1030.00     32.09
 98.87    972.00     31.18
 98.97    935.55     30.59
 99.07    994.58     31.54
 99.17    876.00     29.60
 99.27    884.00     29.73
 99.37    857.00     29.27
 99.47    897.00     29.95
 99.57    922.00     30.36
 99.67    887.00     29.78
 99.77   1047.33     32.36
 99.87   1080.00     32.86
 99.97   1139.00     33.75
100.07   1235.00     35.14
100.17   1321.38     36.35
100.27   1390.00     37.28
100.37   1497.00     38.69
100.47   1679.00     40.98
100.57   1689.00     41.10
100.67   1843.00     42.93
100.77   1766.00     42.02
100.87   1851.81     43.03
100.97   1854.00     43.06
101.07   1975.00     44.44
101.17   2004.00     44.77
101.27   1966.00     44.34
101.37   1815.81     42.61
101.47   1866.00     43.20
101.57   1787.03     42.27
101.67   1745.00     41.77
101.77   1731.00     41.61
101.87   1641.33     40.51
101.97   1530.77     39.13
102.07   1497.00     38.69
102.17   1449.00     38.07
102.27   1432.04     37.84
102.37   1340.28     36.61
102.47   1264.00     35.55
102.57   1285.76     35.86
102.67   1171.94     34.23
102.77   1193.82     34.55
102.87   1186.05     34.44
102.97   1184.00     34.41
103.07   1131.00     33.63
103.17    992.00     31.50
103.27    990.04     31.46
103.37    964.00     31.05
103.47    909.00     30.15
103.57    919.00     30.32
103.67    916.00     30.27
103.77    862.00     29.36
103.87    779.00     27.91
103.97    788.00     28.07
104.07    721.61     26.86
104.17    706.00     26.57
104.27    715.00     26.74
104.37    630.00     25.10
104.47    614.00     24.78
104.57    610.00     24.70
104.67    565.42     23.78
104.77    604.88     24.59
104.87    563.00     23.73
104.97    555.00     23.56
105.07    592.77     24.35
105.17    589.00     24.27
105.27    511.00     22.61
105.37    540.00     23.24
105.47    475.14     21.80
105.57    507.62     22.53
105.67    531.00     23.04
105.77    516.00     22.72
105.87    494.54     22.24
105.97    538.00     23.19
106.07    537.00     23.17
106.17    539.00     23.22
106.27    527.00     22.96
106.37    581.00     24.10
106.47    586.00     24.21
106.57    595.00     24.39
106.67    613.12     24.76
106.77    572.37     23.92
106.87    599.38     24.48
106.97    609.00     24.68
107.07    614.00     24.78
107.17    639.02     25.28
107.27    649.00     25.48
107.37    716.36     26.76
107.47    652.00     25.53
107.57    646.15     25.42
107.67    668.00     25.85
107.77    700.90     26.47
107.87    692.00     26.31
107.97    760.61     27.58
108.07    760.69     27.58
108.17    639.00     25.28
108.27    714.18     26.72
108.37    657.00     25.63
108.47    678.00     26.04
108.57    694.00     26.34
108.67    698.00     26.42
108.77    677.00     26.02
108.87    688.00     26.23
108.97    656.80     25.63
109.07    652.00     25.53
109.17    645.71     25.41
109.27    756.00     27.50
109.37    709.00     26.63
109.47    630.00     25.10
109.57    730.53     27.03
109.67    675.34     25.99
109.77    650.21     25.50
109.87    712.00     26.68
109.97    663.33     25.76
110.07    650.00     25.50
110.17    671.00     25.90
110.27    673.94     25.96
110.37    673.00     25.94
110.47    580.79     24.10
110.57    599.00     24.47
110.67    580.00     24.08
110.77    607.00     24.64
110.87    576.00     24.00
110.97    528.76     22.99
111.07    566.95     23.81
111.17    550.04     23.45
111.27    588.00     24.25
111.37    567.00     23.81
111.47    485.92     22.04
111.57    540.00     23.24
111.67    579.00     24.06
111.77    505.82     22.49
111.87    557.00     23.60
111.97    483.41     21.99
112.07    520.00     22.80
112.17    552.00     23.49
112.27    563.00     23.73
112.37    507.67     22.53
112.47    518.00     22.76
112.57    536.00     23.15
112.67    577.00     24.02
112.77    528.21     22.98
112.87    556.44     23.59
112.97    553.08     23.52
113.07    557.84     23.62
113.17    583.00     24.15
113.27    591.00     24.31
113.37    607.00     24.64
113.47    625.00     25.00
113.57    610.00     24.70
113.67    609.00     24.68
113.77    597.00     24.43
113.87    623.99     24.98
113.97    625.47     25.01
114.07    694.01     26.34
114.17    757.00     27.51
114.27    720.07     26.83
114.37    729.88     27.02
114.47    847.78     29.12
114.57    857.00     29.27
114.67    929.00     30.48
114.77   1028.00     32.06
114.87   1051.15     32.42
114.97   1201.95     34.67
115.07   1372.00     37.04
115.17   1615.00     40.19
115.27   1729.63     41.59
115.37   1917.38     43.79
115.47   2092.13     45.74
115.57   2491.00     49.91
115.67   2695.00     51.91
115.77   2995.51     54.73
115.87   3380.00     58.14
115.97   3513.55     59.28
116.07   3953.77     62.88
116.17   4308.00     65.64
116.27   4688.00     68.47
116.37   5075.00     71.24
116.47   5586.00     74.74
116.57   5802.00     76.17
116.67   6095.00     78.07
116.77   6219.00     78.86
116.87   6596.00     81.22
116.97   6862.00     82.84
117.07   6922.60     83.20
117.17   7040.18     83.91
117.27   6879.00     82.94
117.37   6708.30     81.90
117.47   6798.00     82.45
117.57   6390.00     79.94
117.67   6031.00     77.66
117.77   5689.00     75.43
117.87   5495.00     74.13
117.97   5092.00     71.36
118.07   4686.00     68.45
118.17   4512.00     67.17
118.27   4065.59     63.76
118.37   3733.00     61.10
118.47   3428.80     58.56
118.57   3001.34     54.78
118.67   2828.05     53.18
118.77   2466.00     49.66
118.87   2181.00     46.70
118.97   2033.00     45.09
119.07   1869.90     43.24
119.17   1676.00     40.94
119.27   1518.00     38.96
119.37   1376.27     37.10
119.47   1290.81     35.93
119.57   1113.00     33.36
119.67   1142.51     33.80
119.77    934.98     30.58
119.87    944.00     30.72
119.97    857.96     29.29
120.07    879.00     29.65
120.17    761.94     27.60
120.27    716.43     26.77
120.37    729.00     27.00
120.47    689.47     26.26
120.57    661.00     25.71
120.67    673.00     25.94
120.77    617.00     24.84
120.87    594.00     24.37
120.97    679.70     26.07
121.07    576.00     24.00
121.17    566.00     23.79
121.27    567.91     23.83
121.37    591.00     24.31
121.47    651.00     25.51
121.57    604.00     24.58
121.67    583.42     24.15
121.77    559.00     23.64
121.87    556.00     23.58
121.97    581.00     24.10
122.07    593.52     24.36
122.17    584.00     24.17
122.27    579.11     24.06
122.37    577.00     24.02
122.47    651.00     25.51
122.57    628.00     25.06
122.67    629.03     25.08
122.77    627.00     25.04
122.87    651.82     25.53
122.97    625.90     25.02
123.07    651.00     25.51
123.17    680.00     26.08
123.27    614.00     24.78
123.37    686.18     26.20
123.47    685.51     26.18
123.57    661.00     25.71
123.67    656.00     25.61
123.77    605.51     24.61
123.87    657.00     25.63
123.97    631.00     25.12
124.07    680.22     26.08
124.17    642.00     25.34
124.27    604.00     24.58
124.37    689.00     26.25
124.47    640.00     25.30
124.57    572.00     23.92
124.67    571.81     23.91
124.77    611.00     24.72
124.87    627.00     25.04
124.97    621.43     24.93
