XYDATA



INTER 1.0 1.0 0 0
TEMP 850.209
  9.97    634.00     25.18
 10.07    591.11     24.31
 10.17    634.00     25.18
 10.27    572.00     23.92
 10.37    563.00     23.73
 10.47    589.00     24.27
 10.57    583.00     24.15
 10.67    606.00     24.62
 10.77    545.00     23.35
 10.87    584.00     24.17
 10.97    579.00     24.06
 11.07    554.00     23.54
 11.17    593.00     24.35
 11.27    548.88     23.43
 11.37    612.00     24.74
 11.47    603.00     24.56
 11.57    581.46     24.11
 11.67    557.24     23.61
 11.77    641.00     25.32
 11.87    591.30     24.32
 11.97    663.00     25.75
 12.07    681.00     26.10
 12.17    680.00     26.08
 12.27    707.00     26.59
 12.37    665.00     25.79
 12.47    609.73     24.69
 12.57    602.00     24.54
 12.67    563.63     23.74
 12.77    551.83     23.49
 12.87    555.49     23.57
 12.97    551.04     23.47
 13.07    577.77     24.04
 13.17    543.00     23.30
 13.27    550.00     23.45
 13.37    518.00     22.76
 13.47    521.00     22.83
 13.57    560.00     23.66
 13.67    601.48     24.53
 13.77    529.68     23.01
 13.87    521.00     22.83
 13.97    562.00     23.71
 14.07    560.30     23.67
 14.17    591.65     24.32
 14.27    536.00     23.15
 14.37    538.02     23.20
 14.47    523.51     22.88
 14.57    578.00     24.04
 14.67    535.82     23.15
 14.77    574.00     23.96
 14.87    567.00     23.81
 14.97    573.00     23.94
 15.07    562.59     23.72
 15.17    556.80     23.60
 15.27    569.00     23.85
 15.37    549.00     23.43
 15.47    543.17     23.31
 15.57    598.33     24.46
 15.67    560.00     23.66
 15.77    542.00     23.28
 15.87    565.00     23.77
 15.97    529.18     23.00
 16.07    546.00     23.37
 16.17    528.17     22.98
 16.27    594.22     24.38
 16.37    533.00     23.09
 16.47    549.00     23.43
 16.57    507.00     22.52
 16.67    555.00     23.56
 16.77    546.00     23.37
 16.87    564.52     23.76
 16.97    532.00     23.07
 17.07    515.00     22.69
 17.17    550.00     23.45
 17.27    547.56     23.40
 17.37    585.00     24.19
 17.47    580.33     24.09
 17.57    579.88     24.08
 17.67    549.00     23.43
 17.77    574.00     23.96
 17.87    564.00     23.75
 17.97    611.00     24.72
 18.07    542.00     23.28
 18.17    554.00     23.54
 18.27    599.00     24.47
 18.37    545.00     23.35
 18.47    550.00     23.45
 18.57    583.00     24.15
 18.67    567.00     23.81
 18.77    563.00     23.73
 18.87    559.00     23.64
 18.97    521.00     22.83
 19.07    554.72     23.55
 19.17    581.00     24.10
 19.27    564.00     23.75
 19.37    550.00     23.45
 19.47    533.20     23.09
 19.57    589.13     24.27
 19.67    567.00     23.81
 19.77    530.00     23.02
 19.87    564.00     23.75
 19.97    516.00     22.72
 20.07    564.13     23.75
 20.17    520.00     22.80
 20.27    527.70     22.97
 20.37    586.24     24.21
 20.47    573.00     23.94
 20.57    589.87     24.29
 20.67    586.39     24.22
 20.77    572.00     23.92
 20.87    534.28     23.11
 20.97    605.41     24.61
 21.07    577.88     24.04
 21.17    605.00     24.60
 21.27    519.64     22.80
 21.37    545.00     23.35
 21.47    597.77     24.45
 21.57    570.00     23.87
 21.67    540.92     23.26
 21.77    538.00     23.19
 21.87    588.09     24.25
 21.97    574.69     23.97
 22.07    581.00     24.10
 22.17    530.00     23.02
 22.27    564.00     23.75
 22.37    550.71     23.47
 22.47    565.72     23.78
 22.57    581.00     24.10
 22.67    525.00     22.91
 22.77    538.00     23.19
 22.87    514.26     22.68
 22.97    553.50     23.53
 23.07    591.00     24.31
 23.17    538.00     23.19
 23.27    580.28     24.09
 23.37    562.84     23.72
 23.47    552.00     23.49
 23.57    550.00     23.45
 23.67    537.00     23.17
 23.77    572.00     23.92
 23.87    544.00     23.32
 23.97    569.00     23.85
 24.07    519.00     22.78
 24.17    517.46     22.75
 24.27    568.24     23.84
 24.37    529.80     23.02
 24.47    606.00     24.62
 24.57    614.19     24.78
 24.67    650.00     25.50
 24.77    674.84     25.98
 24.87    640.28     25.30
 24.97    637.00     25.24
 25.07    661.54     25.72
 25.17    641.74     25.33
 25.27    628.48     25.07
 25.37    577.00     24.02
 25.47    611.00     24.72
 25.57    536.19     23.16
 25.67    522.73     22.86
 25.77    546.00     23.37
 25.87    541.93     23.28
 25.97    559.32     23.65
 26.07    547.00     23.39
 26.17    606.00     24.62
 26.27    529.00     23.00
 26.37    582.00     24.12
 26.47    506.51     22.51
 26.57    580.00     24.08
 26.67    509.23     22.57
 26.77    549.00     23.43
 26.87    543.00     23.30
 26.97    589.00     24.27
 27.07    589.00     24.27
 27.17    534.55     23.12
 27.27    586.00     24.21
 27.37    565.00     23.77
 27.47    618.00     24.86
 27.57    575.00     23.98
 27.67    604.00     24.58
 27.77    564.00     23.75
 27.87    630.00     25.10
 27.97    627.00     25.04
 28.07    779.00     27.91
 28.17    829.00     28.79
 28.27    959.87     30.98
 28.37    890.00     29.83
 28.47    836.14     28.92
 28.57    838.30     28.95
 28.67    773.00     27.80
 28.77    760.00     27.57
 28.87    740.00     27.20
 28.97    817.00     28.58
 29.07    792.00     28.14
 29.17    799.00     28.27
 29.27    654.00     25.57
 29.37    673.00     25.94
 29.47    655.00     25.59
 29.57    600.00     24.49
 29.67    611.00     24.72
 29.77    563.18     23.73
 29.87    572.00     23.92
 29.97    559.90     23.66
 30.07    552.97     23.52
 30.17    585.17     24.19
 30.27    620.00     24.90
 30.37    536.84     23.17
 30.47    572.00     23.92
 30.57    564.00     23.75
 30.67    571.39     23.90
 30.77    570.92     23.89
 30.87    612.86     24.76
 30.97    609.00     24.68
 31.07    638.00     25.26
 31.17    606.00     24.62
 31.27    582.17     24.13
 31.37    602.00     24.54
 31.47    593.00     24.35
 31.57    569.00     23.85
 31.67    551.00     23.47
 31.77    519.00     22.78
 31.87    545.69     23.36
 31.97    516.25     22.72
 32.07    596.00     24.41
 32.17    515.00     22.69
 32.27    547.42     23.40
 32.37    577.00     24.02
 32.47    549.00     23.43
 32.57    556.27     23.59
 32.67    492.90     22.20
 32.77    563.00     23.73
 32.87    512.78     22.64
 32.97    514.00     22.67
 33.07    533.00     23.09
 33.17    536.06     23.15
 33.27    539.00     23.22
 33.37    588.88     24.27
 33.47    627.00     25.04
 33.57    613.00     24.76
 33.67    594.00     24.37
 33.77    687.24     26.22
 33.87    807.00     28.41
 33.97    907.00     30.12
 34.07   1032.16     32.13
 34.17   1034.00     32.16
 34.27    993.05     31.51
 34.37    852.00     29.19
 34.47    761.22     27.59
 34.57    647.33     25.44
 34.67    603.00     24.56
 34.77    562.00     23.71
 34.87    524.56     22.90
 34.97    520.00     22.80
 35.07    548.00     23.41
 35.17    543.42     23.31
 35.27    548.22     23.41
 35.37    540.58     23.25
 35.47    552.02     23.50
 35.57    525.00     22.91
 35.67    521.00     22.83
 35.77    532.00     23.07
 35.87    515.00     22.69
 35.97    511.00     22.61
 36.07    541.00     23.26
 36.17    491.00     22.16
 36.27    517.00     22.74
 36.37    511.49     22.62
 36.47    487.97     22.09
 36.57    535.00     23.13
 36.67    509.00     22.56
 36.77    520.32     22.81
 36.87    485.00     22.02
 36.97    509.00     22.56
 37.07    479.00     21.89
 37.17    490.57     22.15
 37.27    489.00     22.11
 37.37    504.75     22.47
 37.47    511.06     22.61
 37.57    462.00     21.49
 37.67    555.03     23.56
 37.77    541.00     23.26
 37.87    523.00     22.87
 37.97    521.11     22.83
 38.07    524.94     22.91
 38.17    529.00     23.00
 38.27    457.00     21.38
 38.37    487.00     22.07
 38.47    513.00     22.65
 38.57    488.00     22.09
 38.67    504.79     22.47
 38.77    503.00     22.43
 38.87    517.00     22.74
 38.97    477.00     21.84
 39.07    504.00     22.45
 39.17    482.89     21.97
 39.27    462.97     21.52
 39.37    454.47     21.32
 39.47    453.00     21.28
 39.57    464.03     21.54
 39.67    507.24     22.52
 39.77    462.00     21.49
 39.87    480.86     21.93
 39.97    506.00     22.49
 40.07    500.25     22.37
 40.17    480.75     21.93
 40.27    496.00     22.27
 40.37    480.00     21.91
 40.47    465.00     21.56
 40.57    491.00     22.16
 40.67    494.00     22.23
 40.77    447.00     21.14
 40.87    499.00     22.34
 40.97    489.00     22.11
 41.07    537.00     23.17
 41.17    484.00     22.00
 41.27    458.04     21.40
 41.37    461.00     21.47
 41.47    497.00     22.29
 41.57    470.91     21.70
 41.67    491.00     22.16
 41.77    538.99     23.22
 41.87    490.00     22.14
 41.97    513.00     22.65
 42.07    481.00     21.93
 42.17    473.43     21.76
 42.27    481.00     21.93
 42.37    543.00     23.30
 42.47    491.00     22.16
 42.57    510.00     22.58
 42.67    576.00     24.00
 42.77    552.00     23.49
 42.87    568.43     23.84
 42.97    539.00     23.22
 43.07    603.44     24.57
 43.17    562.00     23.71
 43.27    490.70     22.15
 43.37    525.00     22.91
 43.47    508.00     22.54
 43.57    489.00     22.11
 43.67    504.00     22.45
 43.77    467.89     21.63
 43.87    473.00     21.75
 43.97    528.00     22.98
 44.07    503.00     22.43
 44.17    512.00     22.63
 44.27    477.00     21.84
 44.37    468.18     21.64
 44.47    523.88     22.89
 44.57    480.00     21.91
 44.67    489.00     22.11
 44.77    471.00     21.70
 44.87    514.00     22.67
 44.97    485.14     22.03
 45.07    518.67     22.77
 45.17    486.17     22.05
 45.27    482.02     21.95
 45.37    543.00     23.30
 45.47    473.00     21.75
 45.57    531.72     23.06
 45.67    497.10     22.30
 45.77    506.76     22.51
 45.87    479.00     21.89
 45.97    510.71     22.60
 46.07    450.40     21.22
 46.17    537.12     23.18
 46.27    528.24     22.98
 46.37    507.37     22.52
 46.47    485.00     22.02
 46.57    513.66     22.66
 46.67    514.71     22.69
 46.77    469.00     21.66
 46.87    451.52     21.25
 46.97    488.00     22.09
 47.07    517.00     22.74
 47.17    502.76     22.42
 47.27    490.00     22.14
 47.37    476.41     21.83
 47.47    531.00     23.04
 47.57    556.00     23.58
 47.67    572.00     23.92
 47.77    579.00     24.06
 47.87    613.61     24.77
 47.97    569.00     23.85
 48.07    539.00     23.22
 48.17    575.00     23.98
 48.27    553.00     23.52
 48.37    547.36     23.40
 48.47    519.00     22.78
 48.57    552.90     23.51
 48.67    515.00     22.69
 48.77    537.93     23.19
 48.87    516.00     22.72
 48.97    507.00     22.52
 49.07    530.00     23.02
 49.17    556.00     23.58
 49.27    547.00     23.39
 49.37    530.07     23.02
 49.47    611.00     24.72
 49.57    666.00     25.81
 49.67    736.11     27.13
 49.77    802.04     28.32
 49.87   1055.58     32.49
 49.97   1269.68     35.63
 50.07   1689.17     41.10
 50.17   2040.00     45.17
 50.27   2265.00     47.59
 50.37   2301.00     47.97
 50.47   2156.00     46.43
 50.57   1883.00     43.39
 50.67   1534.65     39.17
 50.77   1163.00     34.10
 50.87    854.00     29.22
 50.97    755.07     27.48
 51.07    722.78     26.88
 51.17    611.47     24.73
 51.27    615.00     24.80
 51.37    545.87     23.36
 51.47    607.00     24.64
 51.57    507.00     22.52
 51.67    600.76     24.51
 51.77    575.00     23.98
 51.87    563.00     23.73
 51.97    616.00     24.82
 52.07    520.90     22.82
 52.17    577.00     24.02
 52.27    546.71     23.38
 52.37    574.48     23.97
 52.47    529.85     23.02
 52.57    562.00     23.71
 52.67    585.09     24.19
 52.77    578.00     24.04
 52.87    589.54     24.28
 52.97    606.00     24.62
 53.07    668.11     25.85
 53.17    746.00     27.31
 53.27    813.00     28.51
 53.37    957.45     30.94
 53.47    991.00     31.48
 53.57   1091.24     33.03
 53.67   1120.00     33.47
 53.77   1182.88     34.39
 53.87   1086.00     32.95
 53.97    981.00     31.32
 54.07    824.47     28.71
 54.17    827.36     28.76
 54.27    703.06     26.52
 54.37    619.66     24.89
 54.47    601.00     24.52
 54.57    578.43     24.05
 54.67    581.00     24.10
 54.77    535.68     23.14
 54.87    559.00     23.64
 54.97    506.16     22.50
 55.07    583.00     24.15
 55.17    521.82     22.84
 55.27    550.40     23.46
 55.37    565.24     23.77
 55.47    625.00     25.00
 55.57    543.43     23.31
 55.67    601.80     24.53
 55.77    534.19     23.11
 55.87    571.73     23.91
 55.97    640.00     25.30
 56.07    718.00     26.80
 56.17    629.00     25.08
 56.27    753.00     27.44
 56.37    799.00     28.27
 56.47   1046.00     32.34
 56.57   1320.00     36.33
 56.67   1647.55     40.59
 56.77   1939.00     44.03
 56.87   2219.00     47.11
 56.97   2390.70     48.89
 57.07   2499.00     49.99
 57.17   2388.00     48.87
 57.27   2210.00     47.01
 57.37   1824.00     42.71
 57.47   1460.43     38.22
 57.57   1201.00     34.66
 57.67   1018.30     31.91
 57.77    896.00     29.93
 57.87    834.38     28.89
 57.97    763.00     27.62
 58.07    695.00     26.36
 58.17    666.45     25.82
 58.27    715.12     26.74
 58.37    747.00     27.33
 58.47    750.00     27.39
 58.57    828.00     28.77
 58.67    898.19     29.97
 58.77   1067.01     32.67
 58.87   1122.00     33.50
 58.97   1163.75     34.11
 59.07   1238.00     35.19
 59.17   1211.23     34.80
 59.27   1291.00     35.93
 59.37   1291.00     35.93
 59.47   1269.94     35.64
 59.57   1235.00     35.14
 59.67   1142.06     33.79
 59.77   1182.00     34.38
 59.87   1173.80     34.26
 59.97   1222.00     34.96
 60.07   1299.00     36.04
 60.17   1427.00     37.78
 60.27   1485.54     38.54
 60.37   1590.00     39.87
 60.47   1431.01     37.83
 60.57   1417.79     37.65
 60.67   1341.00     36.62
 60.77   1198.00     34.61
 60.87    995.72     31.56
 60.97    913.00     30.22
 61.07    783.83     28.00
 61.17    749.00     27.37
 61.27    687.00     26.21
 61.37    691.00     26.29
 61.47    647.00     25.44
 61.57    744.36     27.28
 61.67    734.66     27.10
 61.77    829.00     28.79
 61.87    965.00     31.06
 61.97    990.00     31.46
 62.07   1084.00     32.92
 62.17   1265.00     35.57
 62.27   1286.00     35.86
 62.37   1268.00     35.61
 62.47   1251.03     35.37
 62.57   1255.98     35.44
 62.67   1056.01     32.50
 62.77    953.00     30.87
 62.87    821.00     28.65
 62.97    804.00     28.35
 63.07    661.22     25.71
 63.17    608.00     24.66
 63.27    620.81     24.92
 63.37    568.00     23.83
 63.47    587.00     24.23
 63.57    601.00     24.52
 63.67    549.74     23.45
 63.77    583.99     24.17
 63.87    610.00     24.70
 63.97    653.00     25.55
 64.07    693.00     26.32
 64.17    728.00     26.98
 64.27    735.00     27.11
 64.37    769.00     27.73
 64.47    831.00     28.83
 64.57    902.00     30.03
 64.67    891.05     29.85
 64.77    972.67     31.19
 64.87   1026.00     32.03
 64.97    979.00     31.29
 65.07    948.19     30.79
 65.17    912.00     30.20
 65.27    841.00     29.00
 65.37    759.00     27.55
 65.47    726.00     26.94
 65.57    747.23     27.34
 65.67    656.00     25.61
 65.77    610.46     24.71
 65.87    616.00     24.82
 65.97    581.00     24.10
 66.07    583.00     24.15
 66.17    575.83     24.00
 66.27    559.00     23.64
 66.37    589.00     24.27
 66.47    548.00     23.41
 66.57    599.31     24.48
 66.67    526.69     22.95
 66.77    568.00     23.83
 66.87    605.00     24.60
 66.97    616.00     24.82
 67.07    610.00     24.70
 67.17    652.00     25.53
 67.27    737.86     27.16
 67.37    751.00     27.40
 67.47    788.00     28.07
 67.57    972.00     31.18
 67.67   1161.00     34.07
 67.77   1431.00     37.83
 67.87   1495.00     38.67
 67.97   1758.44     41.93
 68.07   2017.00     44.91
 68.17   2233.00     47.25
 68.27   2299.82     47.96
 68.37   2307.00     48.03
 68.47   2278.00     47.73
 68.57   2042.00     45.19
 68.67   1851.00     43.02
 68.77   1608.00     40.10
 68.87   1275.65     35.72
 68.97   1055.02     32.48
 69.07    963.00     31.03
 69.17    799.70     28.28
 69.27    721.00     26.85
 69.37    639.96     25.30
 69.47    666.00     25.81
 69.57    676.00     26.00
 69.67    569.00     23.85
 69.77    571.98     23.92
 69.87    572.00     23.92
 69.97    583.00     24.15
 70.07    574.00     23.96
 70.17    576.00     24.00
 70.27    538.00     23.19
 70.37    599.00     24.47
 70.47    548.56     23.42
 70.57    581.26     24.11
 70.67    532.37     23.07
 70.77    548.00     23.41
 70.87    638.00     25.26
 70.97    635.00     25.20
 71.07    675.00     25.98
 71.17    676.00     26.00
 71.27    763.76     27.64
 71.37    824.63     28.72
 71.47    842.00     29.02
 71.57   1039.08     32.23
 71.67   1077.00     32.82
 71.77   1275.00     35.71
 71.87   1318.00     36.30
 71.97   1588.04     39.85
 72.07   1758.00     41.93
 72.17   1789.00     42.30
 72.27   1796.27     42.38
 72.37   1739.00     41.70
 72.47   1769.00     42.06
 72.57   1651.00     40.63
 72.67   1378.57     37.13
 72.77   1379.00     37.13
 72.87   1196.00     34.58
 72.97    974.00     31.21
 73.07    863.00     29.38
 73.17    803.68     28.35
 73.27    788.00     28.07
 73.37    667.00     25.83
 73.47    693.00     26.32
 73.57    639.00     25.28
 73.67    598.30     24.46
 73.77    639.00     25.28
 73.87    639.00     25.28
 73.97    540.00     23.24
 74.07    570.00     23.87
 74.17    586.29     24.21
 74.27    557.00     23.60
 74.37    624.83     25.00
 74.47    565.09     23.77
 74.57    577.93     24.04
 74.67    588.00     24.25
 74.77    609.00     24.68
 74.87    528.51     22.99
 74.97    616.07     24.82
 75.07    609.66     24.69
 75.17    618.00     24.86
 75.27    597.96     24.45
 75.37    581.00     24.10
 75.47    633.00     25.16
 75.57    596.00     24.41
 75.67    608.00     24.66
 75.77    578.00     24.04
 75.87    528.47     22.99
 75.97    541.00     23.26
 76.07    623.00     24.96
 76.17    600.00     24.49
 76.27    658.82     25.67
 76.37    623.00     24.96
 76.47    683.00     26.13
 76.57    655.00     25.59
 76.67    728.00     26.98
 76.77    729.87     27.02
 76.87    710.00     26.65
 76.97    721.22     26.86
 77.07    648.09     25.46
 77.17    649.76     25.49
 77.27    609.88     24.70
 77.37    572.78     23.93
 77.47    558.00     23.62
 77.57    589.00     24.27
 77.67    529.00     23.00
 77.77    520.00     22.80
 77.87    541.00     23.26
 77.97    560.84     23.68
 78.07    530.53     23.03
 78.17    447.00     21.14
 78.27    519.00     22.78
 78.37    530.19     23.03
 78.47    501.00     22.38
 78.57    518.00     22.76
 78.67    499.00     22.34
 78.77    527.52     22.97
 78.87    506.24     22.50
 78.97    525.00     22.91
 79.07    475.00     21.79
 79.17    528.00     22.98
 79.27    479.55     21.90
 79.37    503.00     22.43
 79.47    493.39     22.21
 79.57    490.78     22.15
 79.67    541.00     23.26
 79.77    509.00     22.56
 79.87    505.00     22.47
 79.97    526.00     22.93
 80.07    550.00     23.45
 80.17    547.00     23.39
 80.27    566.23     23.80
 80.37    499.00     22.34
 80.47    522.00     22.85
 80.57    565.54     23.78
 80.67    585.00     24.19
 80.77    567.46     23.82
 80.87    593.00     24.35
 80.97    632.00     25.14
 81.07    656.45     25.62
 81.17    642.33     25.34
 81.27    681.00     26.10
 81.37    735.62     27.12
 81.47    788.00     28.07
 81.57    778.75     27.91
 81.67    746.00     27.31
 81.77    745.71     27.31
 81.87    741.00     27.22
 81.97    672.00     25.92
 82.07    710.00     26.65
 82.17    691.00     26.29
 82.27    676.00     26.00
 82.37    638.00     25.26
 82.47    618.00     24.86
 82.57    583.00     24.15
 82.67    579.00     24.06
 82.77    544.00     23.32
 82.87    565.19     23.77
 82.97    588.36     24.26
 83.07    524.00     22.89
 83.17    578.79     24.06
 83.27    509.00     22.56
 83.37    560.70     23.68
 83.47    543.00     23.30
 83.57    579.00     24.06
 83.67    580.25     24.09
 83.77    583.00     24.15
 83.87    509.00     22.56
 83.97    548.00     23.41
 84.07    500.00     22.36
 84.17    564.00     23.75
 84.27    553.00     23.52
 84.37    503.00     22.43
 84.47    581.24     24.11
 84.57    571.00     23.90
 84.67    496.01     22.27
 84.77    542.00     23.28
 84.87    526.00     22.93
 84.97    561.37     23.69
 85.07    511.00     22.61
 85.17    472.00     21.73
 85.27    490.88     22.16
 85.37    484.39     22.01
 85.47    566.00     23.79
 85.57    511.00     22.61
 85.67    526.00     22.93
 85.77    453.00     21.28
 85.87    562.00     23.71
 85.97    504.00     22.45
 86.07    534.00     23.11
 86.17    544.00     23.32
 86.27    498.00     22.32
 86.37    548.00     23.41
 86.47    524.00     22.89
 86.57    552.00     23.49
 86.67    528.00     22.98
 86.77    524.00     22.89
 86.87    528.00     22.98
 86.97    527.00     22.96
 87.07    546.00     23.37
 87.17    542.26     23.29
 87.27    577.00     24.02
 87.37    591.00     24.31
 87.47    601.00     24.52
 87.57    613.67     24.77
 87.67    615.00     24.80
 87.77    654.00     25.57
 87.87    627.00     25.04
 87.97    584.86     24.18
 88.07    543.89     23.32
 88.17    560.00     23.66
 88.27    565.00     23.77
 88.37    559.00     23.64
 88.47    572.22     23.92
 88.57    575.00     23.98
 88.67    556.00     23.58
 88.77    527.00     22.96
 88.87    551.00     23.47
 88.97    583.34     24.15
 89.07    582.00     24.12
 89.17    595.00     24.39
 89.27    557.00     23.60
 89.37    610.00     24.70
 89.47    616.27     24.82
 89.57    581.00     24.10
 89.67    559.94     23.66
 89.77    579.00     24.06
 89.87    602.00     24.54
 89.97    530.00     23.02
 90.07    564.00     23.75
 90.17    575.00     23.98
 90.27    541.00     23.26
 90.37    545.67     23.36
 90.47    545.00     23.35
 90.57    511.48     22.62
 90.67    511.00     22.61
 90.77    497.54     22.31
 90.87    516.00     22.72
 90.97    549.00     23.43
 91.07    508.00     22.54
 91.17    463.03     21.52
 91.27    510.00     22.58
 91.37    526.46     22.94
 91.47    486.85     22.06
 91.57    491.00     22.16
 91.67    543.00     23.30
 91.77    488.00     22.09
 91.87    519.00     22.78
 91.97    506.00     22.49
 92.07    520.00     22.80
 92.17    493.23     22.21
 92.27    464.00     21.54
 92.37    586.98     24.23
 92.47    555.00     23.56
 92.57    615.06     24.80
 92.67    571.00     23.90
 92.77    593.00     24.35
 92.87    645.00     25.40
 92.97    586.23     24.21
 93.07    620.00     24.90
 93.17    653.00     25.55
 93.27    672.00     25.92
 93.37    703.00     26.51
 93.47    708.00     26.61
 93.57    716.63     26.77
 93.67    782.00     27.96
 93.77    735.00     27.11
 93.87    775.00     27.84
 93.97    816.00     28.57
 94.07    735.14     27.11
 94.17    826.00     28.74
 94.27    776.92     27.87
 94.37    826.73     28.75
 94.47    835.00     28.90
 94.57    808.00     28.43
 94.67    836.12     28.92
 94.77    892.00     29.87
 94.87    877.00     29.61
 94.97    896.75     29.95
 95.07    916.00     30.27
 95.17    909.97     30.17
 95.27    868.21     29.47
 95.37    881.12     29.68
 95.47    897.00     29.95
 95.57    838.08     28.95
 95.67    773.26     27.81
 95.77    821.00     28.65
 95.87    733.00     27.07
 95.97    708.08     26.61
 96.07    744.11     27.28
 96.17    705.85     26.57
 96.27    687.00     26.21
 96.37    690.00     26.27
 96.47    671.00     25.90
 96.57    719.55     26.82
 96.67    785.00     28.02
 96.77    801.37     28.31
 96.87    874.00     29.56
 96.97    904.00     30.07
 97.07   1009.00     31.76
 97.17   1075.25     32.79
 97.27   1174.76     34.27
 97.37   1187.00     34.45
 97.47   1251.00     35.37
 97.57   1294.64     35.98
 97.67   1354.84     36.81
 97.77   1454.20     38.13
 97.87   1438.00     37.92
 97.97   1457.30     38.17
 98.07   1319.00     36.32
 98.17   1406.89     37.51
 98.27   1357.00     36.84
 98.37   1291.00     35.93
 98.47   1122.25     33.50
 98.57   1069.91     32.71
 98.67   1059.32     32.55
 98.77   1025.00     32.02
 98.87    963.00     31.03
 98.97    909.72     30.16
 99.07    887.85     29.80
 99.17    854.00     29.22
 99.27    895.00     29.92
 99.37    884.00     29.73
 99.47    880.00     29.66
 99.57    930.00     30.50
 99.67   1016.00     31.87
 99.77   1047.00     32.36
 99.87   1106.00     33.26
 99.97   1151.66     33.94
100.07   1214.05     34.84
100.17   1381.00     37.16
100.27   1408.00     37.52
100.37   1603.92     40.05
100.47   1690.44     41.11
100.57   1749.00     41.82
100.67   1763.00     41.99
100.77   1865.00     43.19
100.87   1907.00     43.67
100.97   1910.33     43.71
101.07   1979.70     44.49
101.17   1950.00     44.16
101.27   1993.00     44.64
101.37   1947.00     44.12
101.47   1878.00     43.34
101.57   1889.00     43.46
101.67   1705.00     41.29
101.77   1633.00     40.41
101.87   1536.00     39.19
101.97   1444.42     38.01
102.07   1427.25     37.78
102.17   1377.00     37.11
102.27   1259.59     35.49
102.37   1274.00     35.69
102.47   1257.00     35.45
102.57   1206.00     34.73
102.67   1223.66     34.98
102.77   1185.00     34.42
102.87   1165.51     34.14
102.97   1129.98     33.62
103.07   1136.00     33.70
103.17   1098.32     33.14
103.27   1072.42     32.75
103.37    965.03     31.07
103.47    918.00     30.30
103.57    908.49     30.14
103.67    887.00     29.78
103.77    850.00     29.15
103.87    819.15     28.62
103.97    788.00     28.07
104.07    741.28     27.23
104.17    645.64     25.41
104.27    690.29     26.27
104.37    595.00     24.39
104.47    612.00     24.74
104.57    592.32     24.34
104.67    651.00     25.51
104.77    544.00     23.32
104.87    591.00     24.31
104.97    534.00     23.11
105.07    535.00     23.13
105.17    547.00     23.39
105.27    533.31     23.09
105.37    546.00     23.37
105.47    559.98     23.66
105.57    542.00     23.28
105.67    520.00     22.80
105.77    500.23     22.37
105.87    513.00     22.65
105.97    554.00     23.54
106.07    506.52     22.51
106.17    552.52     23.51
106.27    528.00     22.98
106.37    540.00     23.24
106.47    543.00     23.30
106.57    577.00     24.02
106.67    609.85     24.70
106.77    578.15     24.04
106.87    584.00     24.17
106.97    607.00     24.64
107.07    579.00     24.06
107.17    603.00     24.56
107.27    640.51     25.31
107.37    624.00     24.98
107.47    622.26     24.95
107.57    654.00     25.57
107.67    640.46     25.31
107.77    687.06     26.21
107.87    680.00     26.08
107.97    674.00     25.96
108.07    683.00     26.13
108.17    654.39     25.58
108.27    649.00     25.48
108.37    726.00     26.94
108.47    685.68     26.19
108.57    656.52     25.62
108.67    662.00     25.73
108.77    688.15     26.23
108.87    627.00     25.04
108.97    681.00     26.10
109.07    680.00     26.08
109.17    710.00     26.65
109.27    652.37     25.54
109.37    669.00     25.87
109.47    678.00     26.04
109.57    660.00     25.69
109.67    694.98     26.36
109.77    638.00     25.26
109.87    633.01     25.16
109.97    598.03     24.45
110.07    632.60     25.15
110.17    634.00     25.18
110.27    566.54     23.80
110.37    610.00     24.70
110.47    603.00     24.56
110.57    559.45     23.65
110.67    566.00     23.79
110.77    570.00     23.87
110.87    549.00     23.43
110.97    536.55     23.16
111.07    523.72     22.88
111.17    583.00     24.15
111.27    587.02     24.23
111.37    552.00     23.49
111.47    534.00     23.11
111.57    505.94     22.49
111.67    549.00     23.43
111.77    536.00     23.15
111.87    573.00     23.94
111.97    500.54     22.37
112.07    554.99     23.56
112.17    525.00     22.91
112.27    518.00     22.76
112.37    523.54     22.88
112.47    590.13     24.29
112.57    552.94     23.51
112.67    559.00     23.64
112.77    556.00     23.58
112.87    575.00     23.98
112.97    584.00     24.17
113.07    572.00     23.92
113.17    547.00     23.39
113.27    633.32     25.17
113.37    584.00     24.17
113.47    594.46     24.38
113.57    611.06     24.72
113.67    610.00     24.70
113.77    640.90     25.32
113.87    663.90     25.77
113.97    654.00     25.57
114.07    673.79     25.96
114.17    761.00     27.59
114.27    759.00     27.55
114.37    796.00     28.21
114.47    861.00     29.34
114.57    880.96     29.68
114.67   1012.00     31.81
114.77   1076.00     32.80
114.87   1205.00     34.71
114.97   1415.00     37.62
115.07   1579.00     39.74
115.17   1723.57     41.52
115.27   1921.00     43.83
115.37   2092.27     45.74
115.47   2204.51     46.95
115.57   2656.00     51.54
115.67   2915.00     53.99
115.77   3177.00     56.36
115.87   3524.00     59.36
115.97   3934.00     62.72
116.07   4178.00     64.64
116.17   4555.00     67.49
116.27   5113.39     71.51
116.37   5360.00     73.21
116.47   5682.00     75.38
116.57   5838.98     76.41
116.67   6326.00     79.54
116.77   6387.43     79.92
116.87   6840.01     82.70
116.97   6896.00     83.04
117.07   6875.00     82.92
117.17   6866.00     82.86
117.27   6805.00     82.49
117.37   6829.00     82.64
117.47   6320.00     79.50
117.57   6174.00     78.57
117.67   5930.00     77.01
117.77   5742.44     75.78
117.87   5321.25     72.95
117.97   4784.00     69.17
118.07   4687.72     68.47
118.17   4187.00     64.71
118.27   3920.00     62.61
118.37   3446.00     58.70
118.47   3094.12     55.62
118.57   2792.39     52.84
118.67   2568.79     50.68
118.77   2287.84     47.83
118.87   2143.62     46.30
118.97   1831.33     42.79
119.07   1600.00     40.00
119.17   1533.00     39.15
119.27   1352.00     36.77
119.37   1214.00     34.84
119.47   1177.30     34.31
119.57   1028.00     32.06
119.67   1025.00     32.02
119.77    871.00     29.51
119.87    876.00     29.60
119.97    815.00     28.55
120.07    738.00     27.17
120.17    705.00     26.55
120.27    694.00     26.34
120.37    722.00     26.87
120.47    638.00     25.26
120.57    629.46     25.09
120.67    606.00     24.62
120.77    603.00     24.56
120.87    642.65     25.35
120.97    556.16     23.58
121.07    587.19     24.23
121.17    547.00     23.39
121.27    597.00     24.43
121.37    555.16     23.56
121.47    584.00     24.17
121.57    583.00     24.15
121.67    560.86     23.68
121.77    573.00     23.94
121.87    589.00     24.27
121.97    634.00     25.18
122.07    600.00     24.49
122.17    594.54     24.38
122.27    619.00     24.88
122.37    583.19     24.15
122.47    558.08     23.62
122.57    572.00     23.92
122.67    619.00     24.88
122.77    612.36     24.75
122.87    619.00     24.88
122.97    626.00     25.02
123.07    628.00     25.06
123.17    619.00     24.88
123.27    625.00     25.00
123.37    681.00     26.10
123.47    601.00     24.52
123.57    605.01     24.60
123.67    630.37     25.11
123.77    667.00     25.83
123.87    632.00     25.14
123.97    615.00     24.80
124.07    652.00     25.53
124.17    603.00     24.56
124.27    647.71     25.45
124.37    575.37     23.99
124.47    635.19     25.20
124.57    579.92     24.08
124.67    572.13     23.92
124.77    579.00     24.06
124.87    588.53     24.26
124.97    604.00     24.58
