XYDATA



INTER 1.0 1.0 0 0
TEMP 1074.0
  9.97    631.00     25.12
 10.07    543.70     23.32
 10.17    605.00     24.60
 10.27    575.70     23.99
 10.37    563.75     23.74
 10.47    586.00     24.21
 10.57    552.60     23.51
 10.67    553.00     23.52
 10.77    597.25     24.44
 10.87    600.00     24.49
 10.97    626.00     25.02
 11.07    636.00     25.22
 11.17    579.00     24.06
 11.27    579.00     24.06
 11.37    589.42     24.28
 11.47    583.00     24.15
 11.57    531.87     23.06
 11.67    592.00     24.33
 11.77    552.95     23.51
 11.87    681.00     26.10
 11.97    621.93     24.94
 12.07    647.11     25.44
 12.17    622.00     24.94
 12.27    718.00     26.80
 12.37    659.32     25.68
 12.47    604.00     24.58
 12.57    593.43     24.36
 12.67    572.00     23.92
 12.77    575.00     23.98
 12.87    576.00     24.00
 12.97    523.00     22.87
 13.07    595.48     24.40
 13.17    612.87     24.76
 13.27    611.00     24.72
 13.37    552.21     23.50
 13.47    614.53     24.79
 13.57    555.00     23.56
 13.67    565.68     23.78
 13.77    510.00     22.58
 13.87    524.13     22.89
 13.97    553.00     23.52
 14.07    529.00     23.00
 14.17    556.08     23.58
 14.27    573.00     23.94
 14.37    570.00     23.87
 14.47    591.00     24.31
 14.57    612.36     24.75
 14.67    536.00     23.15
 14.77    554.00     23.54
 14.87    543.00     23.30
 14.97    586.31     24.21
 15.07    581.63     24.12
 15.17    533.00     23.09
 15.27    518.00     22.76
 15.37    540.00     23.24
 15.47    552.00     23.49
 15.57    525.09     22.91
 15.67    532.00     23.07
 15.77    610.69     24.71
 15.87    565.00     23.77
 15.97    559.47     23.65
 16.07    557.91     23.62
 16.17    579.00     24.06
 16.27    596.08     24.41
 16.37    592.46     24.34
 16.47    537.00     23.17
 16.57    536.00     23.15
 16.67    590.00     24.29
 16.77    508.00     22.54
 16.87    557.73     23.62
 16.97    572.42     23.93
 17.07    608.00     24.66
 17.17    558.00     23.62
 17.27    581.00     24.10
 17.37    564.00     23.75
 17.47    577.00     24.02
 17.57    602.12     24.54
 17.67    549.14     23.43
 17.77    543.36     23.31
 17.87    551.00     23.47
 17.97    531.00     23.04
 18.07    565.00     23.77
 18.17    586.00     24.21
 18.27    548.92     23.43
 18.37    593.00     24.35
 18.47    603.12     24.56
 18.57    560.40     23.67
 18.67    547.52     23.40
 18.77    540.00     23.24
 18.87    506.00     22.49
 18.97    594.24     24.38
 19.07    593.99     24.37
 19.17    562.00     23.71
 19.27    554.23     23.54
 19.37    539.00     23.22
 19.47    537.00     23.17
 19.57    566.00     23.79
 19.67    562.00     23.71
 19.77    571.00     23.90
 19.87    524.00     22.89
 19.97    512.57     22.64
 20.07    587.34     24.24
 20.17    590.00     24.29
 20.27    537.69     23.19
 20.37    538.08     23.20
 20.47    512.01     22.63
 20.57    557.65     23.61
 20.67    567.00     23.81
 20.77    523.04     22.87
 20.87    520.00     22.80
 20.97    568.64     23.85
 21.07    556.30     23.59
 21.17    587.00     24.23
 21.27    546.00     23.37
 21.37    513.00     22.65
 21.47    538.00     23.19
 21.57    581.00     24.10
 21.67    586.00     24.21
 21.77    533.00     23.09
 21.87    551.98     23.49
 21.97    582.44     24.13
 22.07    556.10     23.58
 22.17    603.00     24.56
 22.27    528.00     22.98
 22.37    540.00     23.24
 22.47    502.00     22.41
 22.57    558.00     23.62
 22.67    586.00     24.21
 22.77    531.28     23.05
 22.87    553.00     23.52
 22.97    563.00     23.73
 23.07    513.00     22.65
 23.17    567.00     23.81
 23.27    512.00     22.63
 23.37    542.00     23.28
 23.47    605.00     24.60
 23.57    557.00     23.60
 23.67    568.00     23.83
 23.77    568.00     23.83
 23.87    557.00     23.60
 23.97    578.22     24.05
 24.07    540.00     23.24
 24.17    530.00     23.02
 24.27    510.59     22.60
 24.37    596.30     24.42
 24.47    567.00     23.81
 24.57    599.32     24.48
 24.67    628.55     25.07
 24.77    682.54     26.13
 24.87    607.67     24.65
 24.97    581.29     24.11
 25.07    617.00     24.84
 25.17    565.00     23.77
 25.27    543.00     23.30
 25.37    534.00     23.11
 25.47    591.00     24.31
 25.57    569.00     23.85
 25.67    569.00     23.85
 25.77    549.00     23.43
 25.87    584.00     24.17
 25.97    572.00     23.92
 26.07    529.00     23.00
 26.17    575.00     23.98
 26.27    497.86     22.31
 26.37    635.00     25.20
 26.47    555.00     23.56
 26.57    506.00     22.49
 26.67    557.00     23.60
 26.77    520.00     22.80
 26.87    571.54     23.91
 26.97    563.00     23.73
 27.07    537.00     23.17
 27.17    576.41     24.01
 27.27    524.74     22.91
 27.37    569.62     23.87
 27.47    575.00     23.98
 27.57    522.00     22.85
 27.67    579.50     24.07
 27.77    548.00     23.41
 27.87    614.41     24.79
 27.97    703.00     26.51
 28.07    765.41     27.67
 28.17    906.00     30.10
 28.27   1017.21     31.89
 28.37    905.00     30.08
 28.47    795.82     28.21
 28.57    700.00     26.46
 28.67    733.64     27.09
 28.77    731.00     27.04
 28.87    770.20     27.75
 28.97    879.56     29.66
 29.07    775.52     27.85
 29.17    691.00     26.29
 29.27    674.72     25.98
 29.37    614.00     24.78
 29.47    631.18     25.12
 29.57    605.00     24.60
 29.67    607.00     24.64
 29.77    592.00     24.33
 29.87    587.00     24.23
 29.97    555.00     23.56
 30.07    568.05     23.83
 30.17    516.00     22.72
 30.27    561.00     23.69
 30.37    562.00     23.71
 30.47    550.00     23.45
 30.57    579.00     24.06
 30.67    589.00     24.27
 30.77    550.00     23.45
 30.87    605.81     24.61
 30.97    594.29     24.38
 31.07    630.00     25.10
 31.17    577.00     24.02
 31.27    585.00     24.19
 31.37    558.00     23.62
 31.47    519.00     22.78
 31.57    548.00     23.41
 31.67    563.00     23.73
 31.77    525.00     22.91
 31.87    551.00     23.47
 31.97    566.41     23.80
 32.07    489.12     22.12
 32.17    532.00     23.07
 32.27    543.00     23.30
 32.37    536.00     23.15
 32.47    561.89     23.70
 32.57    542.00     23.28
 32.67    549.00     23.43
 32.77    520.00     22.80
 32.87    505.00     22.47
 32.97    545.38     23.35
 33.07    496.97     22.29
 33.17    566.00     23.79
 33.27    507.83     22.54
 33.37    511.29     22.61
 33.47    555.50     23.57
 33.57    585.00     24.19
 33.67    638.00     25.26
 33.77    803.00     28.34
 33.87    928.00     30.46
 33.97   1009.08     31.77
 34.07   1124.00     33.53
 34.17   1010.00     31.78
 34.27    908.71     30.14
 34.37    755.00     27.48
 34.47    643.85     25.37
 34.57    571.95     23.92
 34.67    589.02     24.27
 34.77    547.00     23.39
 34.87    533.00     23.09
 34.97    550.00     23.45
 35.07    559.00     23.64
 35.17    530.00     23.02
 35.27    515.00     22.69
 35.37    543.00     23.30
 35.47    529.00     23.00
 35.57    566.00     23.79
 35.67    508.00     22.54
 35.77    504.46     22.46
 35.87    519.00     22.78
 35.97    554.44     23.55
 36.07    488.00     22.09
 36.17    492.30     22.19
 36.27    485.00     22.02
 36.37    541.00     23.26
 36.47    469.00     21.66
 36.57    514.00     22.67
 36.67    562.00     23.71
 36.77    518.00     22.76
 36.87    487.00     22.07
 36.97    508.00     22.54
 37.07    485.42     22.03
 37.17    494.00     22.23
 37.27    473.74     21.77
 37.37    514.00     22.67
 37.47    493.00     22.20
 37.57    565.47     23.78
 37.67    528.00     22.98
 37.77    512.00     22.63
 37.87    479.00     21.89
 37.97    508.00     22.54
 38.07    568.00     23.83
 38.17    538.96     23.22
 38.27    506.00     22.49
 38.37    516.00     22.72
 38.47    526.66     22.95
 38.57    466.00     21.59
 38.67    491.00     22.16
 38.77    502.40     22.41
 38.87    542.24     23.29
 38.97    558.00     23.62
 39.07    528.00     22.98
 39.17    481.00     21.93
 39.27    517.24     22.74
 39.37    505.53     22.48
 39.47    502.00     22.41
 39.57    508.23     22.54
 39.67    546.58     23.38
 39.77    480.00     21.91
 39.87    515.00     22.69
 39.97    480.00     21.91
 40.07    494.00     22.23
 40.17    486.60     22.06
 40.27    509.52     22.57
 40.37    478.26     21.87
 40.47    543.20     23.31
 40.57    482.00     21.95
 40.67    476.00     21.82
 40.77    507.00     22.52
 40.87    477.47     21.85
 40.97    468.14     21.64
 41.07    511.00     22.61
 41.17    480.00     21.91
 41.27    537.70     23.19
 41.37    519.69     22.80
 41.47    490.00     22.14
 41.57    515.60     22.71
 41.67    553.00     23.52
 41.77    471.00     21.70
 41.87    485.76     22.04
 41.97    540.00     23.24
 42.07    554.00     23.54
 42.17    497.00     22.29
 42.27    521.00     22.83
 42.37    586.85     24.22
 42.47    582.00     24.12
 42.57    616.19     24.82
 42.67    628.34     25.07
 42.77    647.75     25.45
 42.87    584.00     24.17
 42.97    520.00     22.80
 43.07    477.00     21.84
 43.17    518.00     22.76
 43.27    525.00     22.91
 43.37    528.43     22.99
 43.47    555.00     23.56
 43.57    552.42     23.50
 43.67    504.24     22.46
 43.77    474.00     21.77
 43.87    532.91     23.08
 43.97    470.95     21.70
 44.07    548.00     23.41
 44.17    473.62     21.76
 44.27    480.00     21.91
 44.37    495.26     22.25
 44.47    536.00     23.15
 44.57    573.00     23.94
 44.67    503.00     22.43
 44.77    503.00     22.43
 44.87    508.00     22.54
 44.97    465.00     21.56
 45.07    461.90     21.49
 45.17    499.00     22.34
 45.27    517.00     22.74
 45.37    514.00     22.67
 45.47    489.00     22.11
 45.57    508.22     22.54
 45.67    518.68     22.77
 45.77    526.69     22.95
 45.87    494.33     22.23
 45.97    496.00     22.27
 46.07    482.00     21.95
 46.17    489.00     22.11
 46.27    520.00     22.80
 46.37    516.00     22.72
 46.47    498.00     22.32
 46.57    549.24     23.44
 46.67    508.00     22.54
 46.77    541.00     23.26
 46.87    486.00     22.05
 46.97    491.00     22.16
 47.07    552.25     23.50
 47.17    525.00     22.91
 47.27    531.00     23.04
 47.37    484.22     22.01
 47.47    544.00     23.32
 47.57    571.00     23.90
 47.67    559.96     23.66
 47.77    585.50     24.20
 47.87    567.00     23.81
 47.97    601.00     24.52
 48.07    604.00     24.58
 48.17    589.85     24.29
 48.27    562.00     23.71
 48.37    509.00     22.56
 48.47    518.00     22.76
 48.57    551.00     23.47
 48.67    549.00     23.43
 48.77    556.00     23.58
 48.87    559.47     23.65
 48.97    541.00     23.26
 49.07    613.00     24.76
 49.17    569.00     23.85
 49.27    660.00     25.69
 49.37    632.00     25.14
 49.47    742.59     27.25
 49.57    813.30     28.52
 49.67    901.00     30.02
 49.77   1177.00     34.31
 49.87   1453.36     38.12
 49.97   1888.00     43.45
 50.07   2303.00     47.99
 50.17   2470.00     49.70
 50.27   2439.81     49.39
 50.37   2327.72     48.25
 50.47   1915.00     43.76
 50.57   1430.00     37.82
 50.67   1081.30     32.88
 50.77    836.00     28.91
 50.87    730.08     27.02
 50.97    647.57     25.45
 51.07    642.00     25.34
 51.17    592.09     24.33
 51.27    599.89     24.49
 51.37    560.43     23.67
 51.47    603.00     24.56
 51.57    567.00     23.81
 51.67    514.29     22.68
 51.77    585.01     24.19
 51.87    521.00     22.83
 51.97    496.27     22.28
 52.07    498.00     22.32
 52.17    537.00     23.17
 52.27    586.00     24.21
 52.37    530.00     23.02
 52.47    568.00     23.83
 52.57    570.83     23.89
 52.67    569.36     23.86
 52.77    553.61     23.53
 52.87    591.86     24.33
 52.97    684.00     26.15
 53.07    738.66     27.18
 53.17    898.00     29.97
 53.27    967.88     31.11
 53.37   1065.00     32.63
 53.47   1166.00     34.15
 53.57   1153.00     33.96
 53.67   1054.00     32.47
 53.77    949.00     30.81
 53.87    889.68     29.83
 53.97    747.22     27.34
 54.07    713.00     26.70
 54.17    657.20     25.64
 54.27    545.00     23.35
 54.37    612.00     24.74
 54.47    504.87     22.47
 54.57    536.00     23.15
 54.67    560.00     23.66
 54.77    534.00     23.11
 54.87    594.00     24.37
 54.97    553.00     23.52
 55.07    559.00     23.64
 55.17    549.71     23.45
 55.27    546.88     23.39
 55.37    579.00     24.06
 55.47    555.27     23.56
 55.57    593.50     24.36
 55.67    581.00     24.10
 55.77    592.71     24.35
 55.87    567.95     23.83
 55.97    601.00     24.52
 56.07    666.00     25.81
 56.17    756.00     27.50
 56.27    846.00     29.09
 56.37   1121.00     33.48
 56.47   1363.00     36.92
 56.57   1735.50     41.66
 56.67   2144.00     46.30
 56.77   2453.00     49.53
 56.87   2644.99     51.43
 56.97   2597.00     50.96
 57.07   2389.00     48.88
 57.17   2101.00     45.84
 57.27   1697.00     41.19
 57.37   1330.36     36.47
 57.47    941.00     30.68
 57.57    915.00     30.25
 57.67    743.00     27.26
 57.77    730.00     27.02
 57.87    657.00     25.63
 57.97    665.00     25.79
 58.07    711.00     26.66
 58.17    732.00     27.06
 58.27    813.48     28.52
 58.37    818.00     28.60
 58.47    905.00     30.08
 58.57   1129.71     33.61
 58.67   1223.50     34.98
 58.77   1427.00     37.78
 58.87   1559.00     39.48
 58.97   1591.00     39.89
 59.07   1686.00     41.06
 59.17   1561.00     39.51
 59.27   1497.58     38.70
 59.37   1335.00     36.54
 59.47   1333.00     36.51
 59.57   1195.00     34.57
 59.67   1188.00     34.47
 59.77   1141.00     33.78
 59.87   1204.00     34.70
 59.97   1324.00     36.39
 60.07   1354.94     36.81
 60.17   1508.00     38.83
 60.27   1640.00     40.50
 60.37   1544.00     39.29
 60.47   1423.00     37.72
 60.57   1269.44     35.63
 60.67   1128.00     33.59
 60.77    893.00     29.88
 60.87    738.00     27.17
 60.97    680.64     26.09
 61.07    663.84     25.77
 61.17    693.00     26.32
 61.27    613.00     24.76
 61.37    634.00     25.18
 61.47    698.99     26.44
 61.57    767.00     27.69
 61.67    821.10     28.65
 61.77    959.54     30.98
 61.87   1147.00     33.87
 61.97   1222.00     34.96
 62.07   1414.23     37.61
 62.17   1462.48     38.24
 62.27   1438.91     37.93
 62.37   1251.00     35.37
 62.47   1178.00     34.32
 62.57   1028.00     32.06
 62.67    894.00     29.90
 62.77    775.00     27.84
 62.87    684.00     26.15
 62.97    675.00     25.98
 63.07    586.00     24.21
 63.17    553.52     23.53
 63.27    609.00     24.68
 63.37    598.00     24.45
 63.47    591.00     24.31
 63.57    649.00     25.48
 63.67    552.00     23.49
 63.77    579.01     24.06
 63.87    597.00     24.43
 63.97    687.00     26.21
 64.07    687.00     26.21
 64.17    734.70     27.11
 64.27    770.00     27.75
 64.37    951.00     30.84
 64.47   1020.00     31.94
 64.57    961.42     31.01
 64.67   1039.16     32.24
 64.77   1006.00     31.72
 64.87    959.00     30.97
 64.97    900.01     30.00
 65.07    883.00     29.72
 65.17    743.85     27.27
 65.27    722.00     26.87
 65.37    673.64     25.95
 65.47    628.00     25.06
 65.57    605.41     24.61
 65.67    648.84     25.47
 65.77    605.23     24.60
 65.87    582.00     24.12
 65.97    590.00     24.29
 66.07    545.00     23.35
 66.17    551.00     23.47
 66.27    524.93     22.91
 66.37    520.23     22.81
 66.47    557.00     23.60
 66.57    588.20     24.25
 66.67    539.00     23.22
 66.77    573.00     23.94
 66.87    573.21     23.94
 66.97    600.51     24.51
 67.07    650.00     25.50
 67.17    652.00     25.53
 67.27    759.00     27.55
 67.37    817.00     28.58
 67.47   1068.00     32.68
 67.57   1211.00     34.80
 67.67   1501.00     38.74
 67.77   1830.00     42.78
 67.87   1995.00     44.67
 67.97   2291.00     47.86
 68.07   2386.00     48.85
 68.17   2430.11     49.30
 68.27   2165.25     46.53
 68.37   2092.00     45.74
 68.47   1812.83     42.58
 68.57   1436.45     37.90
 68.67   1301.30     36.07
 68.77    998.41     31.60
 68.87    881.00     29.68
 68.97    739.00     27.18
 69.07    724.00     26.91
 69.17    637.00     25.24
 69.27    628.00     25.06
 69.37    577.60     24.03
 69.47    586.00     24.21
 69.57    544.79     23.34
 69.67    555.75     23.57
 69.77    546.00     23.37
 69.87    567.00     23.81
 69.97    543.79     23.32
 70.07    580.00     24.08
 70.17    520.74     22.82
 70.27    565.00     23.77
 70.37    596.00     24.41
 70.47    575.32     23.99
 70.57    611.00     24.72
 70.67    582.82     24.14
 70.77    569.00     23.85
 70.87    639.31     25.28
 70.97    650.00     25.50
 71.07    606.00     24.62
 71.17    687.00     26.21
 71.27    804.00     28.35
 71.37    877.00     29.61
 71.47   1035.57     32.18
 71.57   1244.00     35.27
 71.67   1377.00     37.11
 71.77   1564.88     39.56
 71.87   1745.00     41.77
 71.97   1885.00     43.42
 72.07   1882.00     43.38
 72.17   1804.00     42.47
 72.27   1720.88     41.48
 72.37   1642.00     40.52
 72.47   1443.52     37.99
 72.57   1397.00     37.38
 72.67   1196.00     34.58
 72.77   1153.92     33.97
 72.87    940.00     30.66
 72.97    905.00     30.08
 73.07    788.00     28.07
 73.17    765.00     27.66
 73.27    785.33     28.02
 73.37    673.12     25.94
 73.47    642.00     25.34
 73.57    657.65     25.64
 73.67    586.00     24.21
 73.77    649.59     25.49
 73.87    575.00     23.98
 73.97    543.37     23.31
 74.07    613.35     24.77
 74.17    607.64     24.65
 74.27    534.27     23.11
 74.37    614.77     24.79
 74.47    577.70     24.04
 74.57    614.34     24.79
 74.67    537.68     23.19
 74.77    555.68     23.57
 74.87    609.00     24.68
 74.97    594.00     24.37
 75.07    634.00     25.18
 75.17    599.00     24.47
 75.27    561.06     23.69
 75.37    578.00     24.04
 75.47    546.00     23.37
 75.57    573.00     23.94
 75.67    581.62     24.12
 75.77    529.89     23.02
 75.87    581.00     24.10
 75.97    593.00     24.35
 76.07    593.56     24.36
 76.17    692.51     26.32
 76.27    637.00     25.24
 76.37    670.00     25.88
 76.47    679.00     26.06
 76.57    709.00     26.63
 76.67    709.26     26.63
 76.77    735.33     27.12
 76.87    671.94     25.92
 76.97    645.00     25.40
 77.07    587.89     24.25
 77.17    625.88     25.02
 77.27    595.02     24.39
 77.37    574.00     23.96
 77.47    524.00     22.89
 77.57    585.99     24.21
 77.67    522.00     22.85
 77.77    484.00     22.00
 77.87    556.04     23.58
 77.97    556.07     23.58
 78.07    509.43     22.57
 78.17    540.00     23.24
 78.27    526.00     22.93
 78.37    521.00     22.83
 78.47    524.00     22.89
 78.57    515.03     22.69
 78.67    487.00     22.07
 78.77    503.84     22.45
 78.87    531.00     23.04
 78.97    498.06     22.32
 79.07    497.39     22.30
 79.17    503.04     22.43
 79.27    558.00     23.62
 79.37    513.48     22.66
 79.47    538.53     23.21
 79.57    528.00     22.98
 79.67    526.27     22.94
 79.77    530.81     23.04
 79.87    538.92     23.21
 79.97    527.00     22.96
 80.07    513.00     22.65
 80.17    578.38     24.05
 80.27    579.00     24.06
 80.37    593.00     24.35
 80.47    566.00     23.79
 80.57    614.00     24.78
 80.67    625.00     25.00
 80.77    665.00     25.79
 80.87    673.00     25.94
 80.97    689.00     26.25
 81.07    709.00     26.63
 81.17    659.00     25.67
 81.27    777.00     27.87
 81.37    754.00     27.46
 81.47    727.00     26.96
 81.57    766.00     27.68
 81.67    762.00     27.60
 81.77    767.45     27.70
 81.87    662.78     25.74
 81.97    670.00     25.88
 82.07    682.00     26.12
 82.17    658.00     25.65
 82.27    617.13     24.84
 82.37    638.26     25.26
 82.47    559.48     23.65
 82.57    615.00     24.80
 82.67    626.74     25.03
 82.77    567.00     23.81
 82.87    557.00     23.60
 82.97    559.00     23.64
 83.07    563.00     23.73
 83.17    598.91     24.47
 83.27    554.88     23.56
 83.37    559.00     23.64
 83.47    549.00     23.43
 83.57    576.00     24.00
 83.67    589.27     24.27
 83.77    535.00     23.13
 83.87    563.00     23.73
 83.97    563.00     23.73
 84.07    560.00     23.66
 84.17    546.05     23.37
 84.27    553.92     23.54
 84.37    537.00     23.17
 84.47    582.00     24.12
 84.57    554.00     23.54
 84.67    519.00     22.78
 84.77    543.01     23.30
 84.87    493.00     22.20
 84.97    538.86     23.21
 85.07    513.00     22.65
 85.17    525.00     22.91
 85.27    484.93     22.02
 85.37    532.00     23.07
 85.47    557.82     23.62
 85.57    558.28     23.63
 85.67    547.15     23.39
 85.77    535.00     23.13
 85.87    554.00     23.54
 85.97    493.00     22.20
 86.07    534.00     23.11
 86.17    574.43     23.97
 86.27    528.00     22.98
 86.37    528.32     22.99
 86.47    586.04     24.21
 86.57    547.00     23.39
 86.67    546.08     23.37
 86.77    602.00     24.54
 86.87    603.00     24.56
 86.97    569.00     23.85
 87.07    609.00     24.68
 87.17    637.00     25.24
 87.27    675.00     25.98
 87.37    667.00     25.83
 87.47    673.00     25.94
 87.57    674.00     25.96
 87.67    633.00     25.16
 87.77    638.00     25.26
 87.87    572.73     23.93
 87.97    566.47     23.80
 88.07    629.00     25.08
 88.17    603.00     24.56
 88.27    536.25     23.16
 88.37    571.00     23.90
 88.47    562.00     23.71
 88.57    574.00     23.96
 88.67    570.00     23.87
 88.77    613.81     24.78
 88.87    567.35     23.82
 88.97    592.00     24.33
 89.07    606.00     24.62
 89.17    582.00     24.12
 89.27    565.75     23.79
 89.37    613.00     24.76
 89.47    606.39     24.62
 89.57    615.00     24.80
 89.67    559.07     23.64
 89.77    596.08     24.41
 89.87    557.00     23.60
 89.97    557.06     23.60
 90.07    563.00     23.73
 90.17    511.00     22.61
 90.27    535.00     23.13
 90.37    533.00     23.09
 90.47    540.82     23.26
 90.57    555.00     23.56
 90.67    480.00     21.91
 90.77    518.73     22.78
 90.87    568.04     23.83
 90.97    536.00     23.15
 91.07    556.34     23.59
 91.17    533.83     23.10
 91.27    520.00     22.80
 91.37    543.00     23.30
 91.47    535.59     23.14
 91.57    526.00     22.93
 91.67    541.96     23.28
 91.77    535.00     23.13
 91.87    546.00     23.37
 91.97    553.19     23.52
 92.07    580.00     24.08
 92.17    598.00     24.45
 92.27    561.00     23.69
 92.37    587.83     24.25
 92.47    606.00     24.62
 92.57    679.00     26.06
 92.67    693.88     26.34
 92.77    658.00     25.65
 92.87    708.00     26.61
 92.97    717.00     26.78
 93.07    725.00     26.93
 93.17    749.62     27.38
 93.27    774.71     27.83
 93.37    828.47     28.78
 93.47    774.00     27.82
 93.57    865.18     29.41
 93.67    875.21     29.58
 93.77    815.23     28.55
 93.87    848.00     29.12
 93.97    830.00     28.81
 94.07    807.82     28.42
 94.17    812.00     28.50
 94.27    872.00     29.53
 94.37    889.00     29.82
 94.47    832.17     28.85
 94.57    850.00     29.15
 94.67    964.00     31.05
 94.77    841.84     29.01
 94.87    965.00     31.06
 94.97    913.00     30.22
 95.07    875.00     29.58
 95.17    875.00     29.58
 95.27    809.00     28.44
 95.37    775.15     27.84
 95.47    781.54     27.96
 95.57    743.00     27.26
 95.67    754.00     27.46
 95.77    661.11     25.71
 95.87    678.00     26.04
 95.97    669.00     25.87
 96.07    695.00     26.36
 96.17    720.44     26.84
 96.27    697.00     26.40
 96.37    733.00     27.07
 96.47    810.00     28.46
 96.57    851.00     29.17
 96.67    940.64     30.67
 96.77    981.00     31.32
 96.87   1049.00     32.39
 96.97   1093.00     33.06
 97.07   1274.02     35.69
 97.17   1327.97     36.44
 97.27   1318.76     36.31
 97.37   1363.00     36.92
 97.47   1423.00     37.72
 97.57   1475.00     38.41
 97.67   1398.68     37.40
 97.77   1404.04     37.47
 97.87   1407.25     37.51
 97.97   1345.00     36.67
 98.07   1233.00     35.11
 98.17   1147.00     33.87
 98.27   1007.88     31.75
 98.37   1054.00     32.47
 98.47    959.00     30.97
 98.57    863.00     29.38
 98.67    832.87     28.86
 98.77    788.00     28.07
 98.87    776.80     27.87
 98.97    813.00     28.51
 99.07    841.00     29.00
 99.17    818.00     28.60
 99.27    850.00     29.15
 99.37    913.00     30.22
 99.47    985.00     31.38
 99.57   1068.00     32.68
 99.67   1187.63     34.46
 99.77   1337.00     36.57
 99.87   1406.00     37.50
 99.97   1469.00     38.33
100.07   1705.00     41.29
100.17   1776.00     42.14
100.27   1769.74     42.07
100.37   1943.00     44.08
100.47   1947.52     44.13
100.57   2123.00     46.08
100.67   2067.00     45.46
100.77   2037.00     45.13
100.87   2195.00     46.85
100.97   1934.95     43.99
101.07   1944.00     44.09
101.17   1872.00     43.27
101.27   1753.21     41.87
101.37   1667.09     40.83
101.47   1627.72     40.34
101.57   1570.09     39.62
101.67   1468.03     38.31
101.77   1352.00     36.77
101.87   1272.00     35.67
101.97   1201.00     34.66
102.07   1255.00     35.43
102.17   1232.65     35.11
102.27   1179.44     34.34
102.37   1213.00     34.83
102.47   1104.95     33.24
102.57   1085.57     32.95
102.67   1065.47     32.64
102.77   1012.00     31.81
102.87    992.25     31.50
102.97    964.33     31.05
103.07    883.00     29.72
103.17    879.00     29.65
103.27    856.00     29.26
103.37    816.00     28.57
103.47    774.45     27.83
103.57    758.42     27.54
103.67    639.86     25.30
103.77    672.00     25.92
103.87    614.00     24.78
103.97    656.00     25.61
104.07    610.00     24.70
104.17    568.00     23.83
104.27    537.94     23.19
104.37    529.87     23.02
104.47    583.00     24.15
104.57    550.00     23.45
104.67    547.71     23.40
104.77    542.89     23.30
104.87    522.14     22.85
104.97    484.96     22.02
105.07    549.00     23.43
105.17    542.00     23.28
105.27    544.00     23.32
105.37    515.00     22.69
105.47    554.58     23.55
105.57    509.00     22.56
105.67    557.00     23.60
105.77    575.00     23.98
105.87    529.00     23.00
105.97    582.00     24.12
106.07    558.00     23.62
106.17    586.00     24.21
106.27    598.00     24.45
106.37    626.00     25.02
106.47    607.10     24.64
106.57    648.00     25.46
106.67    640.00     25.30
106.77    604.00     24.58
106.87    679.00     26.06
106.97    690.95     26.29
107.07    627.00     25.04
107.17    726.86     26.96
107.27    693.97     26.34
107.37    680.00     26.08
107.47    696.00     26.38
107.57    656.31     25.62
107.67    690.85     26.28
107.77    705.01     26.55
107.87    698.78     26.43
107.97    657.00     25.63
108.07    719.73     26.83
108.17    713.00     26.70
108.27    740.04     27.20
108.37    651.39     25.52
108.47    649.86     25.49
108.57    681.00     26.10
108.67    708.37     26.62
108.77    687.00     26.21
108.87    690.00     26.27
108.97    704.00     26.53
109.07    684.00     26.15
109.17    686.48     26.20
109.27    691.00     26.29
109.37    648.00     25.46
109.47    641.00     25.32
109.57    648.00     25.46
109.67    642.60     25.35
109.77    579.00     24.06
109.87    671.00     25.90
109.97    618.00     24.86
110.07    633.00     25.16
110.17    551.00     23.47
110.27    586.00     24.21
110.37    584.00     24.17
110.47    580.45     24.09
110.57    526.00     22.93
110.67    553.00     23.52
110.77    567.00     23.81
110.87    555.16     23.56
110.97    546.51     23.38
111.07    611.00     24.72
111.17    513.85     22.67
111.27    558.62     23.64
111.37    519.98     22.80
111.47    555.83     23.58
111.57    553.00     23.52
111.67    583.87     24.16
111.77    543.59     23.32
111.87    568.00     23.83
111.97    578.00     24.04
112.07    526.00     22.93
112.17    546.00     23.37
112.27    609.00     24.68
112.37    540.00     23.24
112.47    570.00     23.87
112.57    581.58     24.12
112.67    632.00     25.14
112.77    669.10     25.87
112.87    695.71     26.38
112.97    682.06     26.12
113.07    655.88     25.61
113.17    719.00     26.81
113.27    719.00     26.81
113.37    764.00     27.64
113.47    746.10     27.31
113.57    787.00     28.05
113.67    905.00     30.08
113.77    846.74     29.10
113.87    956.00     30.92
113.97    995.75     31.56
114.07   1017.00     31.89
114.17   1120.00     33.47
114.27   1201.00     34.66
114.37   1296.00     36.00
114.47   1328.00     36.44
114.57   1473.00     38.38
114.67   1555.52     39.44
114.77   1691.26     41.12
114.87   1871.00     43.26
114.97   2088.00     45.69
115.07   2359.00     48.57
115.17   2545.00     50.45
115.27   2897.00     53.82
115.37   3101.50     55.69
115.47   3389.00     58.22
115.57   3827.47     61.87
115.67   4060.78     63.72
115.77   4425.00     66.52
115.87   4790.00     69.21
115.97   5281.42     72.67
116.07   5501.00     74.17
116.17   6094.76     78.07
116.27   6293.00     79.33
116.37   6643.00     81.50
116.47   6659.64     81.61
116.57   7010.00     83.73
116.67   6951.00     83.37
116.77   6916.00     83.16
116.87   6809.43     82.52
116.97   6611.27     81.31
117.07   6340.00     79.62
117.17   6080.88     77.98
117.27   5717.00     75.61
117.37   5485.08     74.06
117.47   4979.00     70.56
117.57   4614.00     67.93
117.67   4275.40     65.39
117.77   3946.00     62.82
117.87   3680.00     60.66
117.97   3246.00     56.97
118.07   2902.00     53.87
118.17   2541.00     50.41
118.27   2222.00     47.14
118.37   1982.00     44.52
118.47   1775.00     42.13
118.57   1578.00     39.72
118.67   1343.00     36.65
118.77   1179.28     34.34
118.87   1130.74     33.63
118.97   1055.45     32.49
119.07    907.00     30.12
119.17    906.00     30.10
119.27    782.99     27.98
119.37    700.00     26.46
119.47    689.00     26.25
119.57    684.08     26.15
119.67    642.00     25.34
119.77    611.00     24.72
119.87    609.00     24.68
119.97    606.00     24.62
120.07    582.86     24.14
120.17    622.63     24.95
120.27    545.18     23.35
120.37    537.30     23.18
120.47    593.23     24.36
120.57    553.00     23.52
120.67    559.00     23.64
120.77    560.00     23.66
120.87    540.00     23.24
120.97    544.00     23.32
121.07    519.00     22.78
121.17    578.00     24.04
121.27    548.00     23.41
121.37    555.00     23.56
121.47    590.00     24.29
121.57    604.00     24.58
121.67    574.00     23.96
121.77    582.00     24.12
121.87    596.28     24.42
121.97    597.00     24.43
122.07    612.00     24.74
122.17    607.00     24.64
122.27    609.00     24.68
122.37    626.00     25.02
122.47    663.59     25.76
122.57    641.00     25.32
122.67    650.00     25.50
122.77    645.14     25.40
122.87    646.00     25.42
122.97    588.37     24.26
123.07    704.00     26.53
123.17    672.79     25.94
123.27    603.24     24.56
123.37    616.84     24.84
123.47    578.00     24.04
123.57    659.00     25.67
123.67    647.00     25.44
123.77    608.00     24.66
123.87    667.00     25.83
123.97    652.67     25.55
124.07    655.15     25.60
124.17    626.00     25.02
124.27    620.00     24.90
124.37    577.12     24.02
124.47    570.97     23.89
124.57    631.71     25.13
124.67    569.11     23.86
124.77    576.00     24.00
124.87    590.69     24.30
124.97    563.00     23.73
