XYDATA



INTER 1.0 1.0 0 0
TEMP 1020.333
  9.97    541.00     23.26
 10.07    584.00     24.17
 10.17    555.00     23.56
 10.27    585.00     24.19
 10.37    565.00     23.77
 10.47    608.00     24.66
 10.57    536.74     23.17
 10.67    523.17     22.87
 10.77    529.38     23.01
 10.87    580.00     24.08
 10.97    569.79     23.87
 11.07    600.00     24.49
 11.17    588.00     24.25
 11.27    607.00     24.64
 11.37    531.00     23.04
 11.47    598.00     24.45
 11.57    564.14     23.75
 11.67    620.00     24.90
 11.77    634.12     25.18
 11.87    634.13     25.18
 11.97    620.97     24.92
 12.07    708.00     26.61
 12.17    693.00     26.32
 12.27    652.00     25.53
 12.37    685.00     26.17
 12.47    658.24     25.66
 12.57    600.00     24.49
 12.67    600.22     24.50
 12.77    593.00     24.35
 12.87    583.00     24.15
 12.97    543.00     23.30
 13.07    578.00     24.04
 13.17    616.78     24.84
 13.27    547.00     23.39
 13.37    527.00     22.96
 13.47    574.00     23.96
 13.57    553.18     23.52
 13.67    541.27     23.27
 13.77    559.00     23.64
 13.87    538.96     23.22
 13.97    552.00     23.49
 14.07    544.00     23.32
 14.17    557.00     23.60
 14.27    530.00     23.02
 14.37    606.62     24.63
 14.47    594.00     24.37
 14.57    576.00     24.00
 14.67    535.10     23.13
 14.77    558.40     23.63
 14.87    574.57     23.97
 14.97    562.00     23.71
 15.07    601.42     24.52
 15.17    567.00     23.81
 15.27    529.00     23.00
 15.37    545.00     23.35
 15.47    542.72     23.30
 15.57    583.00     24.15
 15.67    534.82     23.13
 15.77    520.00     22.80
 15.87    563.00     23.73
 15.97    611.67     24.73
 16.07    549.00     23.43
 16.17    612.00     24.74
 16.27    533.39     23.10
 16.37    552.00     23.49
 16.47    582.00     24.12
 16.57    502.00     22.41
 16.67    562.22     23.71
 16.77    541.55     23.27
 16.87    570.00     23.87
 16.97    612.04     24.74
 17.07    577.64     24.03
 17.17    523.00     22.87
 17.27    528.00     22.98
 17.37    521.71     22.84
 17.47    570.67     23.89
 17.57    535.76     23.15
 17.67    588.00     24.25
 17.77    579.67     24.08
 17.87    527.71     22.97
 17.97    579.00     24.06
 18.07    535.00     23.13
 18.17    583.00     24.15
 18.27    569.00     23.85
 18.37    576.34     24.01
 18.47    561.61     23.70
 18.57    512.73     22.64
 18.67    523.00     22.87
 18.77    510.05     22.58
 18.87    543.19     23.31
 18.97    553.00     23.52
 19.07    560.54     23.68
 19.17    552.00     23.49
 19.27    542.00     23.28
 19.37    526.00     22.93
 19.47    579.00     24.06
 19.57    562.00     23.71
 19.67    535.00     23.13
 19.77    562.00     23.71
 19.87    579.70     24.08
 19.97    563.00     23.73
 20.07    520.35     22.81
 20.17    597.00     24.43
 20.27    568.00     23.83
 20.37    548.00     23.41
 20.47    593.65     24.36
 20.57    578.00     24.04
 20.67    518.00     22.76
 20.77    525.00     22.91
 20.87    556.00     23.58
 20.97    556.00     23.58
 21.07    546.00     23.37
 21.17    551.03     23.47
 21.27    538.00     23.19
 21.37    553.00     23.52
 21.47    598.30     24.46
 21.57    561.28     23.69
 21.67    539.00     23.22
 21.77    569.00     23.85
 21.87    565.30     23.78
 21.97    555.00     23.56
 22.07    522.38     22.86
 22.17    523.00     22.87
 22.27    562.00     23.71
 22.37    568.00     23.83
 22.47    531.00     23.04
 22.57    574.00     23.96
 22.67    549.00     23.43
 22.77    554.66     23.55
 22.87    502.74     22.42
 22.97    532.98     23.09
 23.07    546.00     23.37
 23.17    554.00     23.54
 23.27    567.97     23.83
 23.37    521.74     22.84
 23.47    491.00     22.16
 23.57    523.91     22.89
 23.67    520.42     22.81
 23.77    578.00     24.04
 23.87    588.38     24.26
 23.97    560.61     23.68
 24.07    550.00     23.45
 24.17    549.00     23.43
 24.27    549.00     23.43
 24.37    570.00     23.87
 24.47    539.00     23.22
 24.57    573.00     23.94
 24.67    663.00     25.75
 24.77    596.00     24.41
 24.87    643.00     25.36
 24.97    582.00     24.12
 25.07    569.00     23.85
 25.17    561.00     23.69
 25.27    599.00     24.47
 25.37    576.00     24.00
 25.47    503.72     22.44
 25.57    585.37     24.19
 25.67    538.04     23.20
 25.77    584.74     24.18
 25.87    568.27     23.84
 25.97    553.49     23.53
 26.07    577.23     24.03
 26.17    561.00     23.69
 26.27    565.00     23.77
 26.37    544.00     23.32
 26.47    543.00     23.30
 26.57    586.00     24.21
 26.67    590.00     24.29
 26.77    505.07     22.47
 26.87    574.30     23.96
 26.97    573.00     23.94
 27.07    537.68     23.19
 27.17    587.99     24.25
 27.27    543.00     23.30
 27.37    517.00     22.74
 27.47    560.40     23.67
 27.57    589.00     24.27
 27.67    572.00     23.92
 27.77    581.00     24.10
 27.87    565.00     23.77
 27.97    699.00     26.44
 28.07    727.08     26.96
 28.17    919.00     30.32
 28.27    969.00     31.13
 28.37    929.00     30.48
 28.47    830.94     28.83
 28.57    735.00     27.11
 28.67    719.13     26.82
 28.77    783.00     27.98
 28.87    758.83     27.55
 28.97    840.00     28.98
 29.07    784.00     28.00
 29.17    752.96     27.44
 29.27    721.00     26.85
 29.37    596.59     24.43
 29.47    615.00     24.80
 29.57    659.00     25.67
 29.67    609.00     24.68
 29.77    581.00     24.10
 29.87    599.67     24.49
 29.97    596.00     24.41
 30.07    599.00     24.47
 30.17    552.00     23.49
 30.27    574.00     23.96
 30.37    563.00     23.73
 30.47    553.53     23.53
 30.57    578.00     24.04
 30.67    572.00     23.92
 30.77    597.00     24.43
 30.87    619.00     24.88
 30.97    618.00     24.86
 31.07    631.00     25.12
 31.17    554.00     23.54
 31.27    519.00     22.78
 31.37    565.00     23.77
 31.47    514.00     22.67
 31.57    522.68     22.86
 31.67    548.00     23.41
 31.77    552.35     23.50
 31.87    482.41     21.96
 31.97    532.00     23.07
 32.07    556.00     23.58
 32.17    533.00     23.09
 32.27    517.00     22.74
 32.37    549.00     23.43
 32.47    495.83     22.27
 32.57    542.00     23.28
 32.67    574.00     23.96
 32.77    547.00     23.39
 32.87    532.21     23.07
 32.97    535.28     23.14
 33.07    515.00     22.69
 33.17    559.90     23.66
 33.27    552.00     23.49
 33.37    514.00     22.67
 33.47    544.93     23.34
 33.57    591.00     24.31
 33.67    616.00     24.82
 33.77    724.00     26.91
 33.87    847.00     29.10
 33.97   1021.00     31.95
 34.07   1078.26     32.84
 34.17   1072.49     32.75
 34.27    919.00     30.32
 34.37    780.71     27.94
 34.47    648.00     25.46
 34.57    608.00     24.66
 34.67    539.00     23.22
 34.77    523.00     22.87
 34.87    577.00     24.02
 34.97    584.00     24.17
 35.07    561.00     23.69
 35.17    513.00     22.65
 35.27    503.00     22.43
 35.37    481.83     21.95
 35.47    546.05     23.37
 35.57    530.00     23.02
 35.67    555.24     23.56
 35.77    474.00     21.77
 35.87    530.02     23.02
 35.97    480.65     21.92
 36.07    502.00     22.41
 36.17    525.00     22.91
 36.27    486.00     22.05
 36.37    546.29     23.37
 36.47    506.00     22.49
 36.57    521.00     22.83
 36.67    505.04     22.47
 36.77    522.00     22.85
 36.87    562.00     23.71
 36.97    488.47     22.10
 37.07    524.97     22.91
 37.17    517.66     22.75
 37.27    550.00     23.45
 37.37    550.40     23.46
 37.47    467.00     21.61
 37.57    526.00     22.93
 37.67    530.45     23.03
 37.77    548.64     23.42
 37.87    481.12     21.93
 37.97    543.00     23.30
 38.07    530.00     23.02
 38.17    498.00     22.32
 38.27    509.00     22.56
 38.37    508.00     22.54
 38.47    530.37     23.03
 38.57    494.00     22.23
 38.67    524.04     22.89
 38.77    480.00     21.91
 38.87    518.00     22.76
 38.97    493.00     22.20
 39.07    489.00     22.11
 39.17    515.00     22.69
 39.27    516.16     22.72
 39.37    501.00     22.38
 39.47    472.00     21.73
 39.57    526.00     22.93
 39.67    526.00     22.93
 39.77    493.00     22.20
 39.87    484.00     22.00
 39.97    566.00     23.79
 40.07    492.00     22.18
 40.17    535.77     23.15
 40.27    508.00     22.54
 40.37    533.16     23.09
 40.47    508.66     22.55
 40.57    481.00     21.93
 40.67    510.00     22.58
 40.77    522.00     22.85
 40.87    516.00     22.72
 40.97    492.56     22.19
 41.07    510.98     22.60
 41.17    536.40     23.16
 41.27    502.00     22.41
 41.37    537.92     23.19
 41.47    534.00     23.11
 41.57    490.98     22.16
 41.67    550.82     23.47
 41.77    536.84     23.17
 41.87    517.00     22.74
 41.97    524.68     22.91
 42.07    505.00     22.47
 42.17    500.47     22.37
 42.27    525.87     22.93
 42.37    520.00     22.80
 42.47    534.20     23.11
 42.57    578.43     24.05
 42.67    566.00     23.79
 42.77    646.62     25.43
 42.87    541.00     23.26
 42.97    625.49     25.01
 43.07    522.01     22.85
 43.17    495.00     22.25
 43.27    492.00     22.18
 43.37    532.42     23.07
 43.47    528.00     22.98
 43.57    525.00     22.91
 43.67    506.52     22.51
 43.77    492.00     22.18
 43.87    502.00     22.41
 43.97    516.00     22.72
 44.07    535.00     23.13
 44.17    537.00     23.17
 44.27    471.88     21.72
 44.37    474.82     21.79
 44.47    519.21     22.79
 44.57    495.90     22.27
 44.67    510.00     22.58
 44.77    494.75     22.24
 44.87    454.00     21.31
 44.97    498.00     22.32
 45.07    534.00     23.11
 45.17    516.00     22.72
 45.27    513.00     22.65
 45.37    528.00     22.98
 45.47    465.45     21.57
 45.57    546.75     23.38
 45.67    496.45     22.28
 45.77    507.52     22.53
 45.87    469.00     21.66
 45.97    489.77     22.13
 46.07    526.17     22.94
 46.17    551.99     23.49
 46.27    488.35     22.10
 46.37    540.00     23.24
 46.47    463.00     21.52
 46.57    490.00     22.14
 46.67    524.45     22.90
 46.77    488.51     22.10
 46.87    509.00     22.56
 46.97    500.00     22.36
 47.07    557.00     23.60
 47.17    470.13     21.68
 47.27    536.27     23.16
 47.37    528.00     22.98
 47.47    528.00     22.98
 47.57    532.00     23.07
 47.67    534.24     23.11
 47.77    532.05     23.07
 47.87    596.00     24.41
 47.97    608.00     24.66
 48.07    581.00     24.10
 48.17    610.03     24.70
 48.27    571.00     23.90
 48.37    568.00     23.83
 48.47    513.00     22.65
 48.57    562.00     23.71
 48.67    526.00     22.93
 48.77    503.09     22.43
 48.87    526.32     22.94
 48.97    558.13     23.62
 49.07    545.00     23.35
 49.17    558.00     23.62
 49.27    613.00     24.76
 49.37    631.00     25.12
 49.47    788.00     28.07
 49.57    785.00     28.02
 49.67    921.00     30.35
 49.77   1033.25     32.14
 49.87   1409.00     37.54
 49.97   1819.00     42.65
 50.07   2134.00     46.20
 50.17   2507.00     50.07
 50.27   2596.00     50.95
 50.37   2241.00     47.34
 50.47   2009.00     44.82
 50.57   1600.00     40.00
 50.67   1132.00     33.65
 50.77    850.00     29.15
 50.87    730.39     27.03
 50.97    634.00     25.18
 51.07    653.00     25.55
 51.17    568.35     23.84
 51.27    645.00     25.40
 51.37    613.00     24.76
 51.47    589.00     24.27
 51.57    571.88     23.91
 51.67    527.00     22.96
 51.77    563.35     23.73
 51.87    557.00     23.60
 51.97    529.00     23.00
 52.07    519.64     22.80
 52.17    577.00     24.02
 52.27    545.00     23.35
 52.37    569.00     23.85
 52.47    568.00     23.83
 52.57    539.80     23.23
 52.67    571.83     23.91
 52.77    588.00     24.25
 52.87    619.00     24.88
 52.97    702.21     26.50
 53.07    742.84     27.26
 53.17    905.00     30.08
 53.27   1018.00     31.91
 53.37   1115.00     33.39
 53.47   1201.19     34.66
 53.57   1183.00     34.39
 53.67   1069.00     32.70
 53.77   1042.13     32.28
 53.87    897.00     29.95
 53.97    811.17     28.48
 54.07    674.24     25.97
 54.17    627.65     25.05
 54.27    593.00     24.35
 54.37    568.00     23.83
 54.47    563.00     23.73
 54.57    579.00     24.06
 54.67    507.10     22.52
 54.77    539.00     23.22
 54.87    612.00     24.74
 54.97    500.35     22.37
 55.07    552.00     23.49
 55.17    574.00     23.96
 55.27    568.91     23.85
 55.37    606.00     24.62
 55.47    559.65     23.66
 55.57    532.02     23.07
 55.67    530.00     23.02
 55.77    537.00     23.17
 55.87    610.00     24.70
 55.97    637.00     25.24
 56.07    630.00     25.10
 56.17    708.00     26.61
 56.27    838.00     28.95
 56.37   1006.00     31.72
 56.47   1327.76     36.44
 56.57   1714.00     41.40
 56.67   2019.00     44.93
 56.77   2513.03     50.13
 56.87   2732.76     52.28
 56.97   2596.00     50.95
 57.07   2350.87     48.49
 57.17   2199.13     46.89
 57.27   1716.35     41.43
 57.37   1429.00     37.80
 57.47   1074.00     32.77
 57.57    892.00     29.87
 57.67    713.61     26.71
 57.77    709.18     26.63
 57.87    711.00     26.66
 57.97    651.99     25.53
 58.07    666.00     25.81
 58.17    751.93     27.42
 58.27    707.66     26.60
 58.37    756.00     27.50
 58.47    932.00     30.53
 58.57   1130.61     33.62
 58.67   1267.33     35.60
 58.77   1365.00     36.95
 58.87   1534.00     39.17
 58.97   1595.00     39.94
 59.07   1669.00     40.85
 59.17   1639.00     40.48
 59.27   1496.00     38.68
 59.37   1444.50     38.01
 59.47   1208.99     34.77
 59.57   1152.51     33.95
 59.67   1145.00     33.84
 59.77   1131.00     33.63
 59.87   1181.00     34.37
 59.97   1310.55     36.20
 60.07   1441.00     37.96
 60.17   1537.22     39.21
 60.27   1574.00     39.67
 60.37   1485.89     38.55
 60.47   1461.00     38.22
 60.57   1251.02     35.37
 60.67   1116.00     33.41
 60.77    973.06     31.19
 60.87    830.00     28.81
 60.97    747.00     27.33
 61.07    679.00     26.06
 61.17    623.76     24.98
 61.27    616.00     24.82
 61.37    618.00     24.86
 61.47    633.78     25.17
 61.57    700.00     26.46
 61.67    762.00     27.60
 61.77    902.00     30.03
 61.87   1068.00     32.68
 61.97   1211.00     34.80
 62.07   1296.00     36.00
 62.17   1369.00     37.00
 62.27   1381.00     37.16
 62.37   1293.00     35.96
 62.47   1227.00     35.03
 62.57   1077.00     32.82
 62.67    969.89     31.14
 62.77    810.00     28.46
 62.87    745.33     27.30
 62.97    704.62     26.54
 63.07    576.00     24.00
 63.17    562.00     23.71
 63.27    612.00     24.74
 63.37    568.00     23.83
 63.47    538.00     23.19
 63.57    581.00     24.10
 63.67    601.00     24.52
 63.77    581.00     24.10
 63.87    626.32     25.03
 63.97    683.00     26.13
 64.07    673.00     25.94
 64.17    801.00     28.30
 64.27    838.00     28.95
 64.37    843.41     29.04
 64.47    912.17     30.20
 64.57   1023.00     31.98
 64.67   1009.00     31.76
 64.77   1045.98     32.34
 64.87    944.00     30.72
 64.97    931.14     30.51
 65.07    837.00     28.93
 65.17    822.00     28.67
 65.27    760.00     27.57
 65.37    717.00     26.78
 65.47    647.92     25.45
 65.57    589.00     24.27
 65.67    619.10     24.88
 65.77    620.00     24.90
 65.87    574.00     23.96
 65.97    574.00     23.96
 66.07    599.29     24.48
 66.17    542.04     23.28
 66.27    568.88     23.85
 66.37    554.00     23.54
 66.47    547.01     23.39
 66.57    548.00     23.41
 66.67    553.00     23.52
 66.77    548.00     23.41
 66.87    550.72     23.47
 66.97    612.00     24.74
 67.07    619.00     24.88
 67.17    704.91     26.55
 67.27    740.00     27.20
 67.37    839.00     28.97
 67.47    998.47     31.60
 67.57   1183.27     34.40
 67.67   1471.08     38.35
 67.77   1695.00     41.17
 67.87   1942.96     44.08
 67.97   2332.67     48.30
 68.07   2378.83     48.77
 68.17   2451.00     49.51
 68.27   2272.00     47.67
 68.37   2202.98     46.94
 68.47   1990.00     44.61
 68.57   1583.11     39.79
 68.67   1420.00     37.68
 68.77   1090.55     33.02
 68.87    884.00     29.73
 68.97    832.00     28.84
 69.07    721.00     26.85
 69.17    621.32     24.93
 69.27    652.00     25.53
 69.37    566.00     23.79
 69.47    643.00     25.36
 69.57    590.00     24.29
 69.67    638.00     25.26
 69.77    578.00     24.04
 69.87    557.00     23.60
 69.97    569.00     23.85
 70.07    594.82     24.39
 70.17    537.00     23.17
 70.27    562.00     23.71
 70.37    584.00     24.17
 70.47    608.00     24.66
 70.57    567.05     23.81
 70.67    579.60     24.07
 70.77    611.62     24.73
 70.87    597.12     24.44
 70.97    624.00     24.98
 71.07    659.31     25.68
 71.17    733.00     27.07
 71.27    783.00     27.98
 71.37    912.73     30.21
 71.47    998.81     31.60
 71.57   1230.59     35.08
 71.67   1342.00     36.63
 71.77   1501.17     38.74
 71.87   1751.00     41.84
 71.97   1889.00     43.46
 72.07   1943.00     44.08
 72.17   1976.00     44.45
 72.27   1837.00     42.86
 72.37   1750.50     41.84
 72.47   1590.00     39.87
 72.57   1439.00     37.93
 72.67   1266.00     35.58
 72.77   1152.00     33.94
 72.87   1120.77     33.48
 72.97   1038.47     32.23
 73.07    879.40     29.65
 73.17    918.28     30.30
 73.27    804.04     28.36
 73.37    706.34     26.58
 73.47    664.00     25.77
 73.57    674.18     25.96
 73.67    632.00     25.14
 73.77    592.00     24.33
 73.87    585.00     24.19
 73.97    568.51     23.84
 74.07    556.00     23.58
 74.17    637.00     25.24
 74.27    647.00     25.44
 74.37    638.00     25.26
 74.47    588.84     24.27
 74.57    647.00     25.44
 74.67    667.00     25.83
 74.77    647.00     25.44
 74.87    570.34     23.88
 74.97    541.71     23.27
 75.07    650.00     25.50
 75.17    570.22     23.88
 75.27    567.00     23.81
 75.37    577.00     24.02
 75.47    510.65     22.60
 75.57    551.00     23.47
 75.67    592.00     24.33
 75.77    585.85     24.20
 75.87    591.00     24.31
 75.97    566.00     23.79
 76.07    652.60     25.55
 76.17    680.00     26.08
 76.27    713.00     26.70
 76.37    640.43     25.31
 76.47    692.00     26.31
 76.57    686.00     26.19
 76.67    733.00     27.07
 76.77    634.00     25.18
 76.87    643.00     25.36
 76.97    648.75     25.47
 77.07    616.00     24.82
 77.17    566.00     23.79
 77.27    596.82     24.43
 77.37    540.00     23.24
 77.47    528.38     22.99
 77.57    522.00     22.85
 77.67    518.00     22.76
 77.77    569.20     23.86
 77.87    552.00     23.49
 77.97    549.00     23.43
 78.07    541.00     23.26
 78.17    491.00     22.16
 78.27    498.00     22.32
 78.37    524.00     22.89
 78.47    535.23     23.13
 78.57    531.00     23.04
 78.67    569.12     23.86
 78.77    551.86     23.49
 78.87    554.00     23.54
 78.97    514.00     22.67
 79.07    547.70     23.40
 79.17    534.00     23.11
 79.27    524.00     22.89
 79.37    539.00     23.22
 79.47    493.26     22.21
 79.57    488.63     22.10
 79.67    535.00     23.13
 79.77    508.56     22.55
 79.87    531.55     23.06
 79.97    541.00     23.26
 80.07    556.54     23.59
 80.17    557.00     23.60
 80.27    551.00     23.47
 80.37    579.00     24.06
 80.47    570.00     23.87
 80.57    626.85     25.04
 80.67    605.92     24.62
 80.77    652.00     25.53
 80.87    678.60     26.05
 80.97    707.00     26.59
 81.07    666.00     25.81
 81.17    689.41     26.26
 81.27    733.53     27.08
 81.37    717.94     26.79
 81.47    759.00     27.55
 81.57    724.00     26.91
 81.67    685.81     26.19
 81.77    718.00     26.80
 81.87    678.00     26.04
 81.97    736.00     27.13
 82.07    692.00     26.31
 82.17    666.19     25.81
 82.27    622.00     24.94
 82.37    637.00     25.24
 82.47    628.00     25.06
 82.57    631.73     25.13
 82.67    577.00     24.02
 82.77    555.00     23.56
 82.87    590.16     24.29
 82.97    515.00     22.69
 83.07    552.00     23.49
 83.17    523.18     22.87
 83.27    543.05     23.30
 83.37    535.37     23.14
 83.47    538.59     23.21
 83.57    571.00     23.90
 83.67    534.78     23.13
 83.77    568.00     23.83
 83.87    559.00     23.64
 83.97    598.00     24.45
 84.07    560.00     23.66
 84.17    622.44     24.95
 84.27    573.00     23.94
 84.37    612.64     24.75
 84.47    557.00     23.60
 84.57    550.03     23.45
 84.67    555.00     23.56
 84.77    565.95     23.79
 84.87    493.77     22.22
 84.97    538.00     23.19
 85.07    509.00     22.56
 85.17    559.80     23.66
 85.27    492.77     22.20
 85.37    543.00     23.30
 85.47    544.00     23.32
 85.57    487.00     22.07
 85.67    556.51     23.59
 85.77    506.00     22.49
 85.87    518.00     22.76
 85.97    564.82     23.77
 86.07    575.36     23.99
 86.17    520.00     22.80
 86.27    491.00     22.16
 86.37    543.00     23.30
 86.47    558.16     23.63
 86.57    571.00     23.90
 86.67    509.34     22.57
 86.77    604.00     24.58
 86.87    570.30     23.88
 86.97    642.00     25.34
 87.07    606.00     24.62
 87.17    618.00     24.86
 87.27    657.00     25.63
 87.37    697.00     26.40
 87.47    636.49     25.23
 87.57    616.00     24.82
 87.67    668.00     25.85
 87.77    618.93     24.88
 87.87    613.00     24.76
 87.97    572.22     23.92
 88.07    641.01     25.32
 88.17    574.00     23.96
 88.27    566.00     23.79
 88.37    562.00     23.71
 88.47    542.00     23.28
 88.57    600.95     24.51
 88.67    586.17     24.21
 88.77    586.53     24.22
 88.87    614.26     24.78
 88.97    583.00     24.15
 89.07    639.00     25.28
 89.17    578.99     24.06
 89.27    605.10     24.60
 89.37    607.00     24.64
 89.47    573.00     23.94
 89.57    616.00     24.82
 89.67    586.00     24.21
 89.77    564.00     23.75
 89.87    563.00     23.73
 89.97    602.81     24.55
 90.07    534.40     23.12
 90.17    580.97     24.10
 90.27    546.00     23.37
 90.37    528.00     22.98
 90.47    581.08     24.11
 90.57    505.00     22.47
 90.67    514.00     22.67
 90.77    512.00     22.63
 90.87    521.00     22.83
 90.97    471.00     21.70
 91.07    522.00     22.85
 91.17    538.38     23.20
 91.27    574.01     23.96
 91.37    499.00     22.34
 91.47    532.00     23.07
 91.57    558.00     23.62
 91.67    504.83     22.47
 91.77    512.00     22.63
 91.87    538.83     23.21
 91.97    552.00     23.49
 92.07    557.50     23.61
 92.17    540.00     23.24
 92.27    578.01     24.04
 92.37    591.00     24.31
 92.47    628.02     25.06
 92.57    659.60     25.68
 92.67    685.00     26.17
 92.77    671.00     25.90
 92.87    734.00     27.09
 92.97    664.22     25.77
 93.07    705.01     26.55
 93.17    756.00     27.50
 93.27    792.00     28.14
 93.37    738.00     27.17
 93.47    824.34     28.71
 93.57    895.00     29.92
 93.67    857.36     29.28
 93.77    872.00     29.53
 93.87    867.74     29.46
 93.97    843.00     29.03
 94.07    847.00     29.10
 94.17    850.00     29.15
 94.27    794.40     28.19
 94.37    823.00     28.69
 94.47    886.88     29.78
 94.57    821.93     28.67
 94.67    945.00     30.74
 94.77    902.00     30.03
 94.87    944.00     30.72
 94.97    960.00     30.98
 95.07    876.92     29.61
 95.17    869.37     29.49
 95.27    903.00     30.05
 95.37    785.00     28.02
 95.47    815.00     28.55
 95.57    706.65     26.58
 95.67    724.00     26.91
 95.77    708.00     26.61
 95.87    680.00     26.08
 95.97    625.11     25.00
 96.07    642.00     25.34
 96.17    674.00     25.96
 96.27    730.26     27.02
 96.37    751.00     27.40
 96.47    713.00     26.70
 96.57    791.00     28.12
 96.67    876.00     29.60
 96.77    954.00     30.89
 96.87    992.27     31.50
 96.97   1089.63     33.01
 97.07   1184.00     34.41
 97.17   1265.98     35.58
 97.27   1346.00     36.69
 97.37   1367.00     36.97
 97.47   1419.26     37.67
 97.57   1415.00     37.62
 97.67   1414.00     37.60
 97.77   1369.00     37.00
 97.87   1391.10     37.30
 97.97   1345.00     36.67
 98.07   1290.97     35.93
 98.17   1154.00     33.97
 98.27   1106.00     33.26
 98.37   1066.59     32.66
 98.47    943.00     30.71
 98.57    920.00     30.33
 98.67    883.00     29.72
 98.77    851.00     29.17
 98.87    786.65     28.05
 98.97    767.00     27.69
 99.07    797.00     28.23
 99.17    847.00     29.10
 99.27    795.13     28.20
 99.37    890.00     29.83
 99.47    895.16     29.92
 99.57   1025.00     32.02
 99.67   1119.00     33.45
 99.77   1267.00     35.59
 99.87   1318.60     36.31
 99.97   1483.00     38.51
100.07   1640.00     40.50
100.17   1689.00     41.10
100.27   1686.05     41.06
100.37   1856.00     43.08
100.47   2091.00     45.73
100.57   2058.62     45.37
100.67   2040.00     45.17
100.77   2070.00     45.50
100.87   2148.75     46.35
100.97   2064.00     45.43
101.07   2064.00     45.43
101.17   1879.10     43.35
101.27   1958.28     44.25
101.37   1823.40     42.70
101.47   1633.00     40.41
101.57   1604.00     40.05
101.67   1458.18     38.19
101.77   1419.23     37.67
101.87   1362.00     36.91
101.97   1255.80     35.44
102.07   1207.00     34.74
102.17   1224.52     34.99
102.27   1192.73     34.54
102.37   1167.33     34.17
102.47   1076.10     32.80
102.57   1112.00     33.35
102.67   1044.00     32.31
102.77   1116.00     33.41
102.87   1004.38     31.69
102.97    969.62     31.14
103.07    926.00     30.43
103.17    855.19     29.24
103.27    840.00     28.98
103.37    771.38     27.77
103.47    754.00     27.46
103.57    730.08     27.02
103.67    704.00     26.53
103.77    630.49     25.11
103.87    599.84     24.49
103.97    591.58     24.32
104.07    607.00     24.64
104.17    569.00     23.85
104.27    592.00     24.33
104.37    603.19     24.56
104.47    527.00     22.96
104.57    570.00     23.87
104.67    574.68     23.97
104.77    550.00     23.45
104.87    505.32     22.48
104.97    518.00     22.76
105.07    485.19     22.03
105.17    564.00     23.75
105.27    505.00     22.47
105.37    581.00     24.10
105.47    545.39     23.35
105.57    503.00     22.43
105.67    494.94     22.25
105.77    561.00     23.69
105.87    567.94     23.83
105.97    619.00     24.88
106.07    545.00     23.35
106.17    558.00     23.62
106.27    601.00     24.52
106.37    631.69     25.13
106.47    570.00     23.87
106.57    590.00     24.29
106.67    599.00     24.47
106.77    625.00     25.00
106.87    685.46     26.18
106.97    656.00     25.61
107.07    700.00     26.46
107.17    710.76     26.66
107.27    690.00     26.27
107.37    691.00     26.29
107.47    684.00     26.15
107.57    687.00     26.21
107.67    686.56     26.20
107.77    683.58     26.15
107.87    689.49     26.26
107.97    727.92     26.98
108.07    676.00     26.00
108.17    732.97     27.07
108.27    632.00     25.14
108.37    704.00     26.53
108.47    644.00     25.38
108.57    716.00     26.76
108.67    668.91     25.86
108.77    726.00     26.94
108.87    671.00     25.90
108.97    684.00     26.15
109.07    662.00     25.73
109.17    638.00     25.26
109.27    621.02     24.92
109.37    687.00     26.21
109.47    633.00     25.16
109.57    677.00     26.02
109.67    659.00     25.67
109.77    571.92     23.91
109.87    648.00     25.46
109.97    619.00     24.88
110.07    621.00     24.92
110.17    597.00     24.43
110.27    526.45     22.94
110.37    578.00     24.04
110.47    531.71     23.06
110.57    570.00     23.87
110.67    521.00     22.83
110.77    550.00     23.45
110.87    548.00     23.41
110.97    560.00     23.66
111.07    551.00     23.47
111.17    522.00     22.85
111.27    536.00     23.15
111.37    512.73     22.64
111.47    518.13     22.76
111.57    539.00     23.22
111.67    571.25     23.90
111.77    575.14     23.98
111.87    505.39     22.48
111.97    522.00     22.85
112.07    544.48     23.33
112.17    549.00     23.43
112.27    545.00     23.35
112.37    613.00     24.76
112.47    586.00     24.21
112.57    595.00     24.39
112.67    605.00     24.60
112.77    587.96     24.25
112.87    612.26     24.74
112.97    671.00     25.90
113.07    744.00     27.28
113.17    709.00     26.63
113.27    682.00     26.12
113.37    697.49     26.41
113.47    746.16     27.32
113.57    817.69     28.60
113.67    795.00     28.20
113.77    884.00     29.73
113.87    902.00     30.03
113.97    956.95     30.93
114.07   1029.00     32.08
114.17   1098.02     33.14
114.27   1121.00     33.48
114.37   1260.40     35.50
114.47   1327.43     36.43
114.57   1459.00     38.20
114.67   1514.00     38.91
114.77   1776.00     42.14
114.87   1841.00     42.91
114.97   2090.00     45.72
115.07   2218.39     47.10
115.17   2525.00     50.25
115.27   2760.00     52.54
115.37   2982.00     54.61
115.47   3231.63     56.85
115.57   3519.00     59.32
115.67   4002.55     63.27
115.77   4393.77     66.29
115.87   4521.00     67.24
115.97   5064.00     71.16
116.07   5320.00     72.94
116.17   5790.00     76.09
116.27   6196.00     78.71
116.37   6393.73     79.96
116.47   6668.24     81.66
116.57   6976.00     83.52
116.67   7011.28     83.73
116.77   7210.00     84.91
116.87   7011.00     83.73
116.97   6969.00     83.48
117.07   6628.00     81.41
117.17   6517.85     80.73
117.27   6026.00     77.63
117.37   5801.00     76.16
117.47   5270.00     72.59
117.57   4903.00     70.02
117.67   4523.00     67.25
117.77   4246.86     65.17
117.87   3720.25     60.99
117.97   3595.00     59.96
118.07   3160.00     56.21
118.17   2768.25     52.61
118.27   2610.00     51.09
118.37   2138.00     46.24
118.47   1979.50     44.49
118.57   1684.00     41.04
118.67   1546.00     39.32
118.77   1362.00     36.91
118.87   1228.00     35.04
118.97   1044.00     32.31
119.07   1053.11     32.45
119.17    911.00     30.18
119.27    818.72     28.61
119.37    792.48     28.15
119.47    718.00     26.80
119.57    707.99     26.61
119.67    731.50     27.05
119.77    665.00     25.79
119.87    624.00     24.98
119.97    590.00     24.29
120.07    583.00     24.15
120.17    598.85     24.47
120.27    610.00     24.70
120.37    525.00     22.91
120.47    577.24     24.03
120.57    544.78     23.34
120.67    563.00     23.73
120.77    544.00     23.32
120.87    611.00     24.72
120.97    541.75     23.28
121.07    542.00     23.28
121.17    573.00     23.94
121.27    550.00     23.45
121.37    538.00     23.19
121.47    622.99     24.96
121.57    616.15     24.82
121.67    604.00     24.58
121.77    595.00     24.39
121.87    573.00     23.94
121.97    552.43     23.50
122.07    566.69     23.81
122.17    579.00     24.06
122.27    624.59     24.99
122.37    639.00     25.28
122.47    622.00     24.94
122.57    618.00     24.86
122.67    610.67     24.71
122.77    633.00     25.16
122.87    667.31     25.83
122.97    673.00     25.94
123.07    615.00     24.80
123.17    638.00     25.26
123.27    643.00     25.36
123.37    647.00     25.44
123.47    715.00     26.74
123.57    617.00     24.84
123.67    647.00     25.44
123.77    636.78     25.23
123.87    656.00     25.61
123.97    594.00     24.37
124.07    644.00     25.38
124.17    567.62     23.82
124.27    612.00     24.74
124.37    600.35     24.50
124.47    584.00     24.17
124.57    627.90     25.06
124.67    606.00     24.62
124.77    545.19     23.35
124.87    547.86     23.41
124.97    588.00     24.25
