XYDATA



INTER 1.0 1.0 0 0
TEMP 749.815
  9.97    574.44     23.97
 10.07    670.00     25.88
 10.17    709.00     26.63
 10.27    678.00     26.04
 10.37    678.00     26.04
 10.47    688.00     26.23
 10.57    621.00     24.92
 10.67    681.00     26.10
 10.77    638.00     25.26
 10.87    592.40     24.34
 10.97    678.00     26.04
 11.07    620.96     24.92
 11.17    646.36     25.42
 11.27    642.09     25.34
 11.37    672.00     25.92
 11.47    664.00     25.77
 11.57    630.00     25.10
 11.67    640.97     25.32
 11.77    698.00     26.42
 11.87    715.76     26.75
 11.97    768.00     27.71
 12.07    723.00     26.89
 12.17    735.55     27.12
 12.27    729.34     27.01
 12.37    768.10     27.71
 12.47    753.00     27.44
 12.57    711.08     26.67
 12.67    638.00     25.26
 12.77    602.00     24.54
 12.87    633.00     25.16
 12.97    600.00     24.49
 13.07    587.74     24.24
 13.17    580.50     24.09
 13.27    627.01     25.04
 13.37    608.02     24.66
 13.47    679.00     26.06
 13.57    657.00     25.63
 13.67    607.00     24.64
 13.77    627.00     25.04
 13.87    587.00     24.23
 13.97    598.63     24.47
 14.07    641.45     25.33
 14.17    618.00     24.86
 14.27    633.93     25.18
 14.37    638.00     25.26
 14.47    621.51     24.93
 14.57    612.00     24.74
 14.67    663.27     25.75
 14.77    644.00     25.38
 14.87    606.13     24.62
 14.97    670.61     25.90
 15.07    603.00     24.56
 15.17    624.00     24.98
 15.27    589.00     24.27
 15.37    690.63     26.28
 15.47    633.00     25.16
 15.57    613.05     24.76
 15.67    586.00     24.21
 15.77    650.12     25.50
 15.87    611.89     24.74
 15.97    685.85     26.19
 16.07    603.00     24.56
 16.17    629.00     25.08
 16.27    594.09     24.37
 16.37    633.00     25.16
 16.47    652.85     25.55
 16.57    608.00     24.66
 16.67    655.13     25.60
 16.77    584.00     24.17
 16.87    672.30     25.93
 16.97    633.00     25.16
 17.07    606.00     24.62
 17.17    649.75     25.49
 17.27    602.00     24.54
 17.37    549.00     23.43
 17.47    601.00     24.52
 17.57    618.00     24.86
 17.67    590.00     24.29
 17.77    647.12     25.44
 17.87    578.00     24.04
 17.97    625.21     25.00
 18.07    618.28     24.87
 18.17    624.00     24.98
 18.27    607.00     24.64
 18.37    598.50     24.46
 18.47    672.39     25.93
 18.57    674.58     25.97
 18.67    594.00     24.37
 18.77    627.00     25.04
 18.87    630.00     25.10
 18.97    656.51     25.62
 19.07    627.32     25.05
 19.17    631.00     25.12
 19.27    599.00     24.47
 19.37    592.00     24.33
 19.47    584.34     24.17
 19.57    610.00     24.70
 19.67    613.00     24.76
 19.77    627.00     25.04
 19.87    610.00     24.70
 19.97    560.00     23.66
 20.07    550.00     23.45
 20.17    626.06     25.02
 20.27    590.00     24.29
 20.37    620.00     24.90
 20.47    644.77     25.39
 20.57    625.00     25.00
 20.67    603.00     24.56
 20.77    581.00     24.10
 20.87    591.44     24.32
 20.97    605.95     24.62
 21.07    586.94     24.23
 21.17    631.50     25.13
 21.27    625.00     25.00
 21.37    597.00     24.43
 21.47    680.10     26.08
 21.57    608.00     24.66
 21.67    595.00     24.39
 21.77    656.00     25.61
 21.87    598.67     24.47
 21.97    594.00     24.37
 22.07    617.00     24.84
 22.17    574.00     23.96
 22.27    665.91     25.81
 22.37    620.35     24.91
 22.47    683.53     26.14
 22.57    602.88     24.55
 22.67    622.69     24.95
 22.77    622.00     24.94
 22.87    635.24     25.20
 22.97    609.00     24.68
 23.07    623.00     24.96
 23.17    591.00     24.31
 23.27    580.55     24.09
 23.37    655.00     25.59
 23.47    620.00     24.90
 23.57    633.00     25.16
 23.67    676.00     26.00
 23.77    630.00     25.10
 23.87    621.00     24.92
 23.97    602.00     24.54
 24.07    642.00     25.34
 24.17    623.00     24.96
 24.27    684.00     26.15
 24.37    604.00     24.58
 24.47    630.88     25.12
 24.57    660.00     25.69
 24.67    669.69     25.88
 24.77    756.00     27.50
 24.87    742.00     27.24
 24.97    673.00     25.94
 25.07    706.00     26.57
 25.17    701.00     26.48
 25.27    650.00     25.50
 25.37    638.00     25.26
 25.47    693.54     26.34
 25.57    675.73     25.99
 25.67    695.00     26.36
 25.77    646.00     25.42
 25.87    668.00     25.85
 25.97    655.41     25.60
 26.07    672.00     25.92
 26.17    662.00     25.73
 26.27    679.46     26.07
 26.37    696.00     26.38
 26.47    654.00     25.57
 26.57    656.68     25.63
 26.67    633.16     25.16
 26.77    686.00     26.19
 26.87    681.00     26.10
 26.97    668.00     25.85
 27.07    683.00     26.13
 27.17    632.42     25.15
 27.27    667.73     25.84
 27.37    724.00     26.91
 27.47    778.00     27.89
 27.57    771.00     27.77
 27.67    758.00     27.53
 27.77    633.79     25.18
 27.87    746.00     27.31
 27.97    839.00     28.97
 28.07    842.00     29.02
 28.17    885.54     29.76
 28.27    943.22     30.71
 28.37   1104.00     33.23
 28.47   1047.63     32.37
 28.57    851.02     29.17
 28.67    948.00     30.79
 28.77    843.69     29.05
 28.87   1022.00     31.97
 28.97    995.00     31.54
 29.07    986.00     31.40
 29.17    989.00     31.45
 29.27    954.00     30.89
 29.37    838.00     28.95
 29.47    836.00     28.91
 29.57    808.00     28.43
 29.67    703.00     26.51
 29.77    742.00     27.24
 29.87    742.00     27.24
 29.97    571.59     23.91
 30.07    560.54     23.68
 30.17    766.00     27.68
 30.27    708.00     26.61
 30.37    675.00     25.98
 30.47    691.00     26.29
 30.57    566.09     23.79
 30.67    639.00     25.28
 30.77    657.09     25.63
 30.87    740.00     27.20
 30.97    712.00     26.68
 31.07    773.00     27.80
 31.17    713.00     26.70
 31.27    645.48     25.41
 31.37    627.73     25.05
 31.47    675.00     25.98
 31.57    595.74     24.41
 31.67    600.00     24.49
 31.77    555.84     23.58
 31.87    623.00     24.96
 31.97    612.09     24.74
 32.07    633.49     25.17
 32.17    632.28     25.15
 32.27    602.00     24.54
 32.37    554.10     23.54
 32.47    662.00     25.73
 32.57    587.01     24.23
 32.67    650.55     25.51
 32.77    585.00     24.19
 32.87    591.00     24.31
 32.97    645.00     25.40
 33.07    620.00     24.90
 33.17    574.06     23.96
 33.27    608.00     24.66
 33.37    618.63     24.87
 33.47    663.00     25.75
 33.57    639.30     25.28
 33.67    649.00     25.48
 33.77    747.65     27.34
 33.87    744.00     27.28
 33.97    966.11     31.08
 34.07   1014.00     31.84
 34.17   1085.19     32.94
 34.27   1070.06     32.71
 34.37    951.00     30.84
 34.47    846.00     29.09
 34.57    762.07     27.61
 34.67    725.94     26.94
 34.77    609.00     24.68
 34.87    649.00     25.48
 34.97    606.00     24.62
 35.07    606.00     24.62
 35.17    588.00     24.25
 35.27    562.12     23.71
 35.37    603.00     24.56
 35.47    547.06     23.39
 35.57    547.00     23.39
 35.67    508.00     22.54
 35.77    573.90     23.96
 35.87    579.00     24.06
 35.97    541.96     23.28
 36.07    563.96     23.75
 36.17    574.00     23.96
 36.27    628.12     25.06
 36.37    567.00     23.81
 36.47    549.00     23.43
 36.57    612.38     24.75
 36.67    539.58     23.23
 36.77    526.00     22.93
 36.87    570.00     23.87
 36.97    560.00     23.66
 37.07    523.53     22.88
 37.17    579.63     24.08
 37.27    551.00     23.47
 37.37    597.66     24.45
 37.47    552.00     23.49
 37.57    562.39     23.71
 37.67    547.00     23.39
 37.77    543.00     23.30
 37.87    568.00     23.83
 37.97    531.75     23.06
 38.07    589.41     24.28
 38.17    548.00     23.41
 38.27    526.00     22.93
 38.37    557.91     23.62
 38.47    527.35     22.96
 38.57    518.00     22.76
 38.67    580.09     24.09
 38.77    560.00     23.66
 38.87    593.92     24.37
 38.97    562.00     23.71
 39.07    518.00     22.76
 39.17    608.59     24.67
 39.27    527.27     22.96
 39.37    528.00     22.98
 39.47    554.00     23.54
 39.57    506.00     22.49
 39.67    506.00     22.49
 39.77    561.00     23.69
 39.87    565.00     23.77
 39.97    536.00     23.15
 40.07    531.25     23.05
 40.17    502.00     22.41
 40.27    553.00     23.52
 40.37    523.00     22.87
 40.47    597.00     24.43
 40.57    550.00     23.45
 40.67    529.34     23.01
 40.77    515.00     22.69
 40.87    537.00     23.17
 40.97    518.93     22.78
 41.07    568.30     23.84
 41.17    515.00     22.69
 41.27    542.00     23.28
 41.37    564.00     23.75
 41.47    551.44     23.48
 41.57    509.00     22.56
 41.67    527.58     22.97
 41.77    583.82     24.16
 41.87    499.13     22.34
 41.97    609.14     24.68
 42.07    553.00     23.52
 42.17    599.00     24.47
 42.27    540.00     23.24
 42.37    589.83     24.29
 42.47    557.47     23.61
 42.57    570.21     23.88
 42.67    614.00     24.78
 42.77    610.00     24.70
 42.87    665.08     25.79
 42.97    665.04     25.79
 43.07    583.00     24.15
 43.17    615.00     24.80
 43.27    568.83     23.85
 43.37    530.30     23.03
 43.47    526.00     22.93
 43.57    499.00     22.34
 43.67    552.00     23.49
 43.77    531.00     23.04
 43.87    520.00     22.80
 43.97    506.15     22.50
 44.07    531.92     23.06
 44.17    539.00     23.22
 44.27    571.00     23.90
 44.37    539.34     23.22
 44.47    564.00     23.75
 44.57    578.00     24.04
 44.67    519.00     22.78
 44.77    562.00     23.71
 44.87    577.00     24.02
 44.97    590.75     24.31
 45.07    570.46     23.88
 45.17    527.61     22.97
 45.27    576.00     24.00
 45.37    582.10     24.13
 45.47    487.60     22.08
 45.57    567.90     23.83
 45.67    491.46     22.17
 45.77    517.30     22.74
 45.87    500.00     22.36
 45.97    541.00     23.26
 46.07    545.00     23.35
 46.17    501.00     22.38
 46.27    547.00     23.39
 46.37    543.97     23.32
 46.47    554.00     23.54
 46.57    573.05     23.94
 46.67    543.00     23.30
 46.77    565.00     23.77
 46.87    550.12     23.45
 46.97    545.00     23.35
 47.07    553.00     23.52
 47.17    545.00     23.35
 47.27    558.50     23.63
 47.37    603.00     24.56
 47.47    508.00     22.54
 47.57    531.33     23.05
 47.67    608.00     24.66
 47.77    610.00     24.70
 47.87    649.32     25.48
 47.97    619.00     24.88
 48.07    672.00     25.92
 48.17    619.00     24.88
 48.27    631.95     25.14
 48.37    614.00     24.78
 48.47    624.00     24.98
 48.57    577.00     24.02
 48.67    621.67     24.93
 48.77    554.00     23.54
 48.87    588.00     24.25
 48.97    624.00     24.98
 49.07    551.00     23.47
 49.17    594.00     24.37
 49.27    539.00     23.22
 49.37    620.00     24.90
 49.47    600.44     24.50
 49.57    693.73     26.34
 49.67    744.00     27.28
 49.77    735.00     27.11
 49.87    980.00     31.30
 49.97   1132.00     33.65
 50.07   1517.00     38.95
 50.17   1814.00     42.59
 50.27   2109.43     45.93
 50.37   2335.46     48.33
 50.47   2314.00     48.10
 50.57   2087.40     45.69
 50.67   1859.28     43.12
 50.77   1523.00     39.03
 50.87   1153.00     33.96
 50.97    954.00     30.89
 51.07    893.46     29.89
 51.17    722.89     26.89
 51.27    682.82     26.13
 51.37    717.09     26.78
 51.47    648.00     25.46
 51.57    627.00     25.04
 51.67    582.96     24.14
 51.77    641.35     25.32
 51.87    639.56     25.29
 51.97    620.82     24.92
 52.07    636.00     25.22
 52.17    616.00     24.82
 52.27    526.83     22.95
 52.37    583.00     24.15
 52.47    603.00     24.56
 52.57    629.59     25.09
 52.67    578.00     24.04
 52.77    632.00     25.14
 52.87    603.00     24.56
 52.97    666.38     25.81
 53.07    655.20     25.60
 53.17    761.37     27.59
 53.27    833.00     28.86
 53.37    910.00     30.17
 53.47   1008.00     31.75
 53.57   1101.00     33.18
 53.67   1190.00     34.50
 53.77   1257.00     35.45
 53.87   1267.00     35.59
 53.97   1070.00     32.71
 54.07   1016.00     31.87
 54.17    962.23     31.02
 54.27    823.51     28.70
 54.37    754.00     27.46
 54.47    674.00     25.96
 54.57    695.86     26.38
 54.67    583.91     24.16
 54.77    653.00     25.55
 54.87    658.31     25.66
 54.97    632.97     25.16
 55.07    569.00     23.85
 55.17    621.58     24.93
 55.27    600.00     24.49
 55.37    594.00     24.37
 55.47    608.00     24.66
 55.57    598.00     24.45
 55.67    588.58     24.26
 55.77    600.00     24.49
 55.87    646.00     25.42
 55.97    645.00     25.40
 56.07    634.07     25.18
 56.17    762.65     27.62
 56.27    690.00     26.27
 56.37    836.00     28.91
 56.47   1054.91     32.48
 56.57   1172.00     34.23
 56.67   1524.94     39.05
 56.77   1686.29     41.06
 56.87   2109.00     45.92
 56.97   2261.73     47.56
 57.07   2550.31     50.50
 57.17   2596.00     50.95
 57.27   2468.00     49.68
 57.37   2128.00     46.13
 57.47   1831.00     42.79
 57.57   1560.00     39.50
 57.67   1204.00     34.70
 57.77   1091.00     33.03
 57.87    924.00     30.40
 57.97    795.00     28.20
 58.07    825.00     28.72
 58.17    726.00     26.94
 58.27    694.92     26.36
 58.37    696.15     26.38
 58.47    706.37     26.58
 58.57    865.00     29.41
 58.67    815.00     28.55
 58.77    991.59     31.49
 58.87   1055.29     32.49
 58.97   1049.00     32.39
 59.07   1205.00     34.71
 59.17   1229.00     35.06
 59.27   1236.00     35.16
 59.37   1223.24     34.97
 59.47   1325.00     36.40
 59.57   1264.08     35.55
 59.67   1233.00     35.11
 59.77   1202.00     34.67
 59.87   1182.00     34.38
 59.97   1186.00     34.44
 60.07   1282.00     35.81
 60.17   1330.00     36.47
 60.27   1473.63     38.39
 60.37   1477.80     38.44
 60.47   1633.35     40.41
 60.57   1488.41     38.58
 60.67   1545.00     39.31
 60.77   1361.00     36.89
 60.87   1232.57     35.11
 60.97   1108.18     33.29
 61.07    906.00     30.10
 61.17    857.32     29.28
 61.27    785.70     28.03
 61.37    781.00     27.95
 61.47    665.68     25.80
 61.57    763.00     27.62
 61.67    811.21     28.48
 61.77    837.00     28.93
 61.87    880.00     29.66
 61.97    991.00     31.48
 62.07   1072.00     32.74
 62.17   1211.44     34.81
 62.27   1357.57     36.85
 62.37   1405.60     37.49
 62.47   1290.00     35.92
 62.57   1370.00     37.01
 62.67   1226.00     35.01
 62.77   1116.84     33.42
 62.87   1013.04     31.83
 62.97    968.30     31.12
 63.07    877.55     29.62
 63.17    751.00     27.40
 63.27    671.00     25.90
 63.37    670.00     25.88
 63.47    665.00     25.79
 63.57    622.00     24.94
 63.67    615.53     24.81
 63.77    619.00     24.88
 63.87    621.48     24.93
 63.97    672.69     25.94
 64.07    681.00     26.10
 64.17    690.00     26.27
 64.27    752.00     27.42
 64.37    735.03     27.11
 64.47    893.00     29.88
 64.57    891.77     29.86
 64.67    944.95     30.74
 64.77   1099.00     33.15
 64.87   1071.46     32.73
 64.97   1116.00     33.41
 65.07   1069.00     32.70
 65.17   1056.82     32.51
 65.27    945.00     30.74
 65.37    875.00     29.58
 65.47    861.00     29.34
 65.57    773.00     27.80
 65.67    799.00     28.27
 65.77    735.00     27.11
 65.87    731.00     27.04
 65.97    679.00     26.06
 66.07    669.86     25.88
 66.17    640.00     25.30
 66.27    603.00     24.56
 66.37    604.69     24.59
 66.47    608.00     24.66
 66.57    632.42     25.15
 66.67    621.00     24.92
 66.77    596.00     24.41
 66.87    637.00     25.24
 66.97    661.00     25.71
 67.07    599.95     24.49
 67.17    719.68     26.83
 67.27    655.00     25.59
 67.37    795.00     28.20
 67.47    780.17     27.93
 67.57    888.00     29.80
 67.67   1010.00     31.78
 67.77   1155.00     33.99
 67.87   1331.00     36.48
 67.97   1685.54     41.06
 68.07   1924.50     43.87
 68.17   2163.00     46.51
 68.27   2299.00     47.95
 68.37   2407.72     49.07
 68.47   2409.00     49.08
 68.57   2324.00     48.21
 68.67   2167.00     46.55
 68.77   1898.00     43.57
 68.87   1598.72     39.98
 68.97   1382.00     37.18
 69.07   1297.02     36.01
 69.17    975.00     31.22
 69.27    954.03     30.89
 69.37    790.00     28.11
 69.47    720.18     26.84
 69.57    750.00     27.39
 69.67    675.00     25.98
 69.77    691.00     26.29
 69.87    656.00     25.61
 69.97    643.00     25.36
 70.07    623.00     24.96
 70.17    661.47     25.72
 70.27    564.81     23.77
 70.37    605.59     24.61
 70.47    660.00     25.69
 70.57    585.00     24.19
 70.67    670.48     25.89
 70.77    585.02     24.19
 70.87    610.00     24.70
 70.97    600.00     24.49
 71.07    675.00     25.98
 71.17    682.00     26.12
 71.27    692.00     26.31
 71.37    734.00     27.09
 71.47    770.00     27.75
 71.57    901.00     30.02
 71.67    940.56     30.67
 71.77   1204.37     34.70
 71.87   1272.00     35.67
 71.97   1501.00     38.74
 72.07   1581.00     39.76
 72.17   1701.00     41.24
 72.27   1881.00     43.37
 72.37   1870.00     43.24
 72.47   1811.00     42.56
 72.57   1748.00     41.81
 72.67   1581.00     39.76
 72.77   1531.00     39.13
 72.87   1307.00     36.15
 72.97   1219.00     34.91
 73.07   1085.00     32.94
 73.17    905.00     30.08
 73.27    808.00     28.43
 73.37    750.00     27.39
 73.47    774.00     27.82
 73.57    718.00     26.80
 73.67    701.15     26.48
 73.77    629.00     25.08
 73.87    659.00     25.67
 73.97    630.00     25.10
 74.07    610.00     24.70
 74.17    543.81     23.32
 74.27    652.00     25.53
 74.37    588.81     24.27
 74.47    594.62     24.38
 74.57    697.00     26.40
 74.67    629.00     25.08
 74.77    629.00     25.08
 74.87    682.00     26.12
 74.97    674.00     25.96
 75.07    664.00     25.77
 75.17    681.00     26.10
 75.27    662.00     25.73
 75.37    672.00     25.92
 75.47    552.06     23.50
 75.57    612.59     24.75
 75.67    580.80     24.10
 75.77    587.00     24.23
 75.87    633.63     25.17
 75.97    621.37     24.93
 76.07    626.37     25.03
 76.17    601.00     24.52
 76.27    611.00     24.72
 76.37    611.97     24.74
 76.47    689.00     26.25
 76.57    728.00     26.98
 76.67    696.00     26.38
 76.77    723.00     26.89
 76.87    724.00     26.91
 76.97    732.29     27.06
 77.07    670.53     25.89
 77.17    667.00     25.83
 77.27    698.00     26.42
 77.37    684.00     26.15
 77.47    650.24     25.50
 77.57    587.07     24.23
 77.67    611.00     24.72
 77.77    587.00     24.23
 77.87    579.91     24.08
 77.97    632.89     25.16
 78.07    582.00     24.12
 78.17    586.00     24.21
 78.27    553.89     23.53
 78.37    557.00     23.60
 78.47    569.00     23.85
 78.57    536.00     23.15
 78.67    556.00     23.58
 78.77    580.39     24.09
 78.87    546.00     23.37
 78.97    539.97     23.24
 79.07    499.46     22.35
 79.17    555.79     23.58
 79.27    539.00     23.22
 79.37    564.00     23.75
 79.47    572.00     23.92
 79.57    577.15     24.02
 79.67    559.00     23.64
 79.77    527.00     22.96
 79.87    591.00     24.31
 79.97    560.88     23.68
 80.07    578.00     24.04
 80.17    540.00     23.24
 80.27    548.00     23.41
 80.37    523.69     22.88
 80.47    591.00     24.31
 80.57    599.00     24.47
 80.67    602.00     24.54
 80.77    632.10     25.14
 80.87    696.84     26.40
 80.97    704.66     26.55
 81.07    701.23     26.48
 81.17    655.00     25.59
 81.27    712.00     26.68
 81.37    750.95     27.40
 81.47    811.00     28.48
 81.57    742.00     27.24
 81.67    698.00     26.42
 81.77    754.00     27.46
 81.87    764.69     27.65
 81.97    766.00     27.68
 82.07    730.00     27.02
 82.17    799.22     28.27
 82.27    806.83     28.40
 82.37    782.47     27.97
 82.47    672.88     25.94
 82.57    666.00     25.81
 82.67    695.71     26.38
 82.77    626.90     25.04
 82.87    668.25     25.85
 82.97    629.00     25.08
 83.07    592.00     24.33
 83.17    613.90     24.78
 83.27    575.00     23.98
 83.37    595.00     24.39
 83.47    613.00     24.76
 83.57    533.00     23.09
 83.67    601.29     24.52
 83.77    604.00     24.58
 83.87    559.63     23.66
 83.97    583.49     24.16
 84.07    552.00     23.49
 84.17    563.00     23.73
 84.27    598.00     24.45
 84.37    647.47     25.45
 84.47    662.92     25.75
 84.57    552.80     23.51
 84.67    565.75     23.79
 84.77    596.00     24.41
 84.87    582.00     24.12
 84.97    515.00     22.69
 85.07    591.00     24.31
 85.17    558.00     23.62
 85.27    603.00     24.56
 85.37    511.56     22.62
 85.47    601.77     24.53
 85.57    560.00     23.66
 85.67    564.00     23.75
 85.77    528.00     22.98
 85.87    539.00     23.22
 85.97    537.48     23.18
 86.07    594.40     24.38
 86.17    546.00     23.37
 86.27    531.00     23.04
 86.37    593.67     24.37
 86.47    526.00     22.93
 86.57    588.00     24.25
 86.67    611.91     24.74
 86.77    593.65     24.37
 86.87    600.00     24.49
 86.97    541.88     23.28
 87.07    602.93     24.55
 87.17    612.00     24.74
 87.27    618.00     24.86
 87.37    626.00     25.02
 87.47    657.00     25.63
 87.57    583.07     24.15
 87.67    636.00     25.22
 87.77    689.00     26.25
 87.87    676.88     26.02
 87.97    615.73     24.81
 88.07    648.00     25.46
 88.17    701.26     26.48
 88.27    664.01     25.77
 88.37    668.00     25.85
 88.47    643.00     25.36
 88.57    613.00     24.76
 88.67    618.36     24.87
 88.77    577.00     24.02
 88.87    577.00     24.02
 88.97    587.00     24.23
 89.07    582.00     24.12
 89.17    621.29     24.93
 89.27    609.00     24.68
 89.37    584.60     24.18
 89.47    594.00     24.37
 89.57    647.00     25.44
 89.67    654.68     25.59
 89.77    613.58     24.77
 89.87    641.00     25.32
 89.97    613.15     24.76
 90.07    659.00     25.67
 90.17    597.04     24.43
 90.27    634.00     25.18
 90.37    567.10     23.81
 90.47    599.00     24.47
 90.57    639.46     25.29
 90.67    552.00     23.49
 90.77    564.00     23.75
 90.87    599.67     24.49
 90.97    503.00     22.43
 91.07    568.00     23.83
 91.17    515.52     22.71
 91.27    509.00     22.56
 91.37    570.00     23.87
 91.47    539.00     23.22
 91.57    561.48     23.70
 91.67    528.00     22.98
 91.77    528.00     22.98
 91.87    552.00     23.49
 91.97    559.00     23.64
 92.07    544.00     23.32
 92.17    549.51     23.44
 92.27    566.00     23.79
 92.37    540.00     23.24
 92.47    588.00     24.25
 92.57    604.88     24.59
 92.67    588.00     24.25
 92.77    651.79     25.53
 92.87    559.00     23.64
 92.97    704.00     26.53
 93.07    693.08     26.33
 93.17    654.00     25.57
 93.27    685.00     26.17
 93.37    728.98     27.00
 93.47    683.06     26.14
 93.57    789.00     28.09
 93.67    723.00     26.89
 93.77    779.00     27.91
 93.87    776.00     27.86
 93.97    787.69     28.07
 94.07    816.00     28.57
 94.17    811.00     28.48
 94.27    849.63     29.15
 94.37    820.00     28.64
 94.47    837.62     28.94
 94.57    886.00     29.77
 94.67    842.65     29.03
 94.77    890.00     29.83
 94.87    907.75     30.13
 94.97    859.68     29.32
 95.07    932.00     30.53
 95.17    963.00     31.03
 95.27    924.00     30.40
 95.37    945.00     30.74
 95.47    892.68     29.88
 95.57    914.00     30.23
 95.67    904.95     30.08
 95.77    802.00     28.32
 95.87    841.00     29.00
 95.97    771.91     27.78
 96.07    814.41     28.54
 96.17    812.00     28.50
 96.27    807.35     28.41
 96.37    810.38     28.47
 96.47    797.00     28.23
 96.57    792.00     28.14
 96.67    772.00     27.78
 96.77    797.00     28.23
 96.87    850.00     29.15
 96.97    900.00     30.00
 97.07    928.00     30.46
 97.17    932.56     30.54
 97.27   1000.67     31.63
 97.37   1123.00     33.51
 97.47   1206.00     34.73
 97.57   1267.22     35.60
 97.67   1348.00     36.72
 97.77   1383.00     37.19
 97.87   1420.00     37.68
 97.97   1479.00     38.46
 98.07   1485.00     38.54
 98.17   1512.97     38.90
 98.27   1470.00     38.34
 98.37   1419.87     37.68
 98.47   1391.00     37.30
 98.57   1341.00     36.62
 98.67   1280.00     35.78
 98.77   1192.00     34.53
 98.87   1153.00     33.96
 98.97   1130.09     33.62
 99.07   1016.00     31.87
 99.17   1003.00     31.67
 99.27    903.00     30.05
 99.37    952.00     30.85
 99.47    881.54     29.69
 99.57    941.00     30.68
 99.67    972.00     31.18
 99.77    983.00     31.35
 99.87   1087.06     32.97
 99.97   1045.00     32.33
100.07   1176.00     34.29
100.17   1196.00     34.58
100.27   1315.00     36.26
100.37   1480.00     38.47
100.47   1535.00     39.18
100.57   1591.00     39.89
100.67   1666.00     40.82
100.77   1754.00     41.88
100.87   1789.45     42.30
100.97   1821.00     42.67
101.07   1994.00     44.65
101.17   1948.00     44.14
101.27   2036.00     45.12
101.37   2031.00     45.07
101.47   1866.92     43.21
101.57   1973.55     44.42
101.67   1947.00     44.12
101.77   1824.00     42.71
101.87   1790.00     42.31
101.97   1727.00     41.56
102.07   1569.96     39.62
102.17   1578.00     39.72
102.27   1484.00     38.52
102.37   1396.14     37.36
102.47   1372.00     37.04
102.57   1326.00     36.41
102.67   1344.39     36.67
102.77   1274.06     35.69
102.87   1257.11     35.46
102.97   1195.12     34.57
103.07   1150.00     33.91
103.17   1178.31     34.33
103.27   1145.00     33.84
103.37   1083.00     32.91
103.47   1035.87     32.18
103.57   1094.79     33.09
103.67   1016.00     31.87
103.77    951.00     30.84
103.87    870.43     29.50
103.97    876.00     29.60
104.07    827.00     28.76
104.17    816.10     28.57
104.27    812.23     28.50
104.37    753.00     27.44
104.47    702.23     26.50
104.57    710.00     26.65
104.67    682.00     26.12
104.77    654.99     25.59
104.87    634.00     25.18
104.97    614.00     24.78
105.07    642.00     25.34
105.17    617.00     24.84
105.27    591.21     24.31
105.37    540.60     23.25
105.47    524.86     22.91
105.57    567.00     23.81
105.67    559.68     23.66
105.77    579.04     24.06
105.87    580.00     24.08
105.97    588.00     24.25
106.07    549.00     23.43
106.17    594.00     24.37
106.27    582.00     24.12
106.37    564.00     23.75
106.47    558.00     23.62
106.57    590.00     24.29
106.67    616.16     24.82
106.77    631.00     25.12
106.87    632.00     25.14
106.97    667.00     25.83
107.07    625.61     25.01
107.17    661.00     25.71
107.27    632.08     25.14
107.37    702.00     26.50
107.47    642.28     25.34
107.57    700.01     26.46
107.67    750.00     27.39
107.77    704.00     26.53
107.87    680.00     26.08
107.97    724.00     26.91
108.07    715.00     26.74
108.17    681.00     26.10
108.27    749.71     27.38
108.37    695.00     26.36
108.47    712.00     26.68
108.57    717.00     26.78
108.67    715.00     26.74
108.77    684.00     26.15
108.87    690.00     26.27
108.97    710.00     26.65
109.07    722.00     26.87
109.17    717.00     26.78
109.27    726.00     26.94
109.37    704.00     26.53
109.47    722.34     26.88
109.57    700.00     26.46
109.67    708.00     26.61
109.77    701.00     26.48
109.87    700.14     26.46
109.97    659.80     25.69
110.07    696.00     26.38
110.17    639.68     25.29
110.27    686.00     26.19
110.37    653.00     25.55
110.47    615.65     24.81
110.57    656.87     25.63
110.67    654.00     25.57
110.77    590.38     24.30
110.87    553.99     23.54
110.97    556.00     23.58
111.07    581.53     24.12
111.17    620.00     24.90
111.27    596.00     24.41
111.37    588.00     24.25
111.47    607.00     24.64
111.57    569.00     23.85
111.67    540.00     23.24
111.77    566.86     23.81
111.87    562.00     23.71
111.97    545.00     23.35
112.07    613.00     24.76
112.17    569.00     23.85
112.27    569.00     23.85
112.37    532.35     23.07
112.47    611.00     24.72
112.57    536.00     23.15
112.67    573.00     23.94
112.77    606.04     24.62
112.87    543.41     23.31
112.97    621.90     24.94
113.07    592.00     24.33
113.17    564.90     23.77
113.27    601.32     24.52
113.37    593.92     24.37
113.47    603.00     24.56
113.57    566.58     23.80
113.67    570.35     23.88
113.77    687.61     26.22
113.87    693.22     26.33
113.97    616.60     24.83
114.07    632.04     25.14
114.17    698.00     26.42
114.27    675.79     26.00
114.37    783.00     27.98
114.47    799.00     28.27
114.57    833.62     28.87
114.67    870.27     29.50
114.77    941.39     30.68
114.87    997.00     31.58
114.97   1059.80     32.55
115.07   1138.00     33.73
115.17   1367.00     36.97
115.27   1417.34     37.65
115.37   1692.00     41.13
115.47   1824.64     42.72
115.57   2049.00     45.27
115.67   2266.00     47.60
115.77   2510.00     50.10
115.87   2809.00     53.00
115.97   3102.00     55.70
116.07   3342.00     57.81
116.17   3627.51     60.23
116.27   4222.12     64.98
116.37   4582.00     67.69
116.47   4946.00     70.33
116.57   5309.50     72.87
116.67   5644.00     75.13
116.77   5778.49     76.02
116.87   6261.00     79.13
116.97   6656.00     81.58
117.07   6762.88     82.24
117.17   6879.90     82.95
117.27   7187.00     84.78
117.37   6983.00     83.56
117.47   7021.00     83.79
117.57   7032.25     83.86
117.67   6639.00     81.48
117.77   6498.41     80.61
117.87   6278.44     79.24
117.97   5841.00     76.43
118.07   5378.00     73.33
118.17   5154.00     71.79
118.27   5019.99     70.85
118.37   4490.00     67.01
118.47   4165.00     64.54
118.57   3879.00     62.28
118.67   3425.83     58.53
118.77   3083.00     55.52
118.87   2847.00     53.36
118.97   2551.00     50.51
119.07   2283.00     47.78
119.17   2024.20     44.99
119.27   1837.00     42.86
119.37   1790.91     42.32
119.47   1517.00     38.95
119.57   1395.00     37.35
119.67   1295.00     35.99
119.77   1260.00     35.50
119.87   1212.00     34.81
119.97   1051.00     32.42
120.07    962.00     31.02
120.17    885.00     29.75
120.27    856.00     29.26
120.37    804.00     28.35
120.47    750.00     27.39
120.57    789.00     28.09
120.67    680.88     26.09
120.77    680.65     26.09
120.87    674.00     25.96
120.97    739.80     27.20
121.07    699.00     26.44
121.17    657.00     25.63
121.27    640.00     25.30
121.37    640.13     25.30
121.47    664.13     25.77
121.57    650.00     25.50
121.67    598.00     24.45
121.77    634.10     25.18
121.87    567.00     23.81
121.97    594.00     24.37
122.07    651.00     25.51
122.17    656.00     25.61
122.27    621.00     24.92
122.37    609.00     24.68
122.47    590.11     24.29
122.57    692.80     26.32
122.67    617.00     24.84
122.77    655.00     25.59
122.87    629.00     25.08
122.97    633.40     25.17
123.07    615.00     24.80
123.17    661.00     25.71
123.27    603.71     24.57
123.37    625.69     25.01
123.47    643.00     25.36
123.57    699.40     26.45
123.67    651.00     25.51
123.77    706.00     26.57
123.87    712.77     26.70
123.97    698.95     26.44
124.07    670.00     25.88
124.17    665.00     25.79
124.27    656.00     25.61
124.37    671.00     25.90
124.47    693.74     26.34
124.57    636.00     25.22
124.67    651.00     25.51
124.77    571.92     23.91
124.87    620.00     24.90
124.97    637.00     25.24
