XYDATA



INTER 1.0 1.0 0 0
TEMP 808.568
  9.97    633.00     25.16
 10.07    592.35     24.34
 10.17    586.00     24.21
 10.27    669.00     25.87
 10.37    611.00     24.72
 10.47    576.90     24.02
 10.57    573.31     23.94
 10.67    589.35     24.28
 10.77    617.00     24.84
 10.87    602.00     24.54
 10.97    530.71     23.04
 11.07    547.57     23.40
 11.17    605.00     24.60
 11.27    632.83     25.16
 11.37    585.52     24.20
 11.47    620.00     24.90
 11.57    616.17     24.82
 11.67    649.00     25.48
 11.77    613.00     24.76
 11.87    675.00     25.98
 11.97    631.00     25.12
 12.07    718.00     26.80
 12.17    714.00     26.72
 12.27    717.00     26.78
 12.37    670.89     25.90
 12.47    660.00     25.69
 12.57    615.00     24.80
 12.67    587.28     24.23
 12.77    558.00     23.62
 12.87    615.00     24.80
 12.97    557.00     23.60
 13.07    593.00     24.35
 13.17    585.00     24.19
 13.27    540.70     23.25
 13.37    599.00     24.47
 13.47    538.00     23.19
 13.57    599.00     24.47
 13.67    572.00     23.92
 13.77    601.00     24.52
 13.87    590.86     24.31
 13.97    614.00     24.78
 14.07    572.00     23.92
 14.17    585.00     24.19
 14.27    567.80     23.83
 14.37    550.00     23.45
 14.47    551.00     23.47
 14.57    555.00     23.56
 14.67    574.00     23.96
 14.77    561.00     23.69
 14.87    593.00     24.35
 14.97    635.30     25.21
 15.07    557.00     23.60
 15.17    568.00     23.83
 15.27    566.00     23.79
 15.37    582.00     24.12
 15.47    573.04     23.94
 15.57    567.00     23.81
 15.67    559.00     23.64
 15.77    567.00     23.81
 15.87    569.47     23.86
 15.97    574.00     23.96
 16.07    534.00     23.11
 16.17    546.00     23.37
 16.27    604.17     24.58
 16.37    579.78     24.08
 16.47    593.00     24.35
 16.57    620.00     24.90
 16.67    538.00     23.19
 16.77    569.93     23.87
 16.87    589.83     24.29
 16.97    553.31     23.52
 17.07    638.00     25.26
 17.17    585.66     24.20
 17.27    589.00     24.27
 17.37    542.00     23.28
 17.47    578.09     24.04
 17.57    562.00     23.71
 17.67    579.66     24.08
 17.77    616.72     24.83
 17.87    617.06     24.84
 17.97    629.97     25.10
 18.07    543.00     23.30
 18.17    564.00     23.75
 18.27    640.19     25.30
 18.37    557.00     23.60
 18.47    581.00     24.10
 18.57    547.87     23.41
 18.67    593.00     24.35
 18.77    568.00     23.83
 18.87    587.00     24.23
 18.97    618.00     24.86
 19.07    550.94     23.47
 19.17    532.00     23.07
 19.27    538.89     23.21
 19.37    545.00     23.35
 19.47    549.00     23.43
 19.57    575.00     23.98
 19.67    566.00     23.79
 19.77    590.00     24.29
 19.87    637.86     25.26
 19.97    568.26     23.84
 20.07    562.00     23.71
 20.17    563.00     23.73
 20.27    610.45     24.71
 20.37    586.68     24.22
 20.47    576.00     24.00
 20.57    636.07     25.22
 20.67    596.00     24.41
 20.77    561.00     23.69
 20.87    598.00     24.45
 20.97    541.00     23.26
 21.07    606.00     24.62
 21.17    580.00     24.08
 21.27    614.93     24.80
 21.37    529.72     23.02
 21.47    542.00     23.28
 21.57    568.00     23.83
 21.67    606.00     24.62
 21.77    580.64     24.10
 21.87    562.00     23.71
 21.97    578.00     24.04
 22.07    571.00     23.90
 22.17    606.00     24.62
 22.27    600.00     24.49
 22.37    560.00     23.66
 22.47    564.00     23.75
 22.57    567.00     23.81
 22.67    580.00     24.08
 22.77    577.00     24.02
 22.87    552.63     23.51
 22.97    583.00     24.15
 23.07    632.88     25.16
 23.17    562.00     23.71
 23.27    579.74     24.08
 23.37    585.59     24.20
 23.47    585.00     24.19
 23.57    558.00     23.62
 23.67    545.32     23.35
 23.77    577.46     24.03
 23.87    601.00     24.52
 23.97    582.00     24.12
 24.07    538.67     23.21
 24.17    600.00     24.49
 24.27    561.00     23.69
 24.37    615.77     24.81
 24.47    604.00     24.58
 24.57    637.00     25.24
 24.67    663.00     25.75
 24.77    661.00     25.71
 24.87    694.00     26.34
 24.97    605.87     24.61
 25.07    666.00     25.81
 25.17    626.00     25.02
 25.27    612.00     24.74
 25.37    630.49     25.11
 25.47    577.00     24.02
 25.57    608.00     24.66
 25.67    561.74     23.70
 25.77    576.97     24.02
 25.87    625.19     25.00
 25.97    618.00     24.86
 26.07    569.41     23.86
 26.17    639.00     25.28
 26.27    604.00     24.58
 26.37    607.00     24.64
 26.47    609.00     24.68
 26.57    517.00     22.74
 26.67    605.00     24.60
 26.77    605.81     24.61
 26.87    622.52     24.95
 26.97    643.00     25.36
 27.07    594.00     24.37
 27.17    630.00     25.10
 27.27    630.00     25.10
 27.37    557.49     23.61
 27.47    601.00     24.52
 27.57    601.00     24.52
 27.67    623.00     24.96
 27.77    648.00     25.46
 27.87    590.67     24.30
 27.97    701.04     26.48
 28.07    764.00     27.64
 28.17    878.00     29.63
 28.27    914.00     30.23
 28.37    943.00     30.71
 28.47    956.00     30.92
 28.57    871.00     29.51
 28.67    758.00     27.53
 28.77    788.00     28.07
 28.87    745.70     27.31
 28.97    839.00     28.97
 29.07    895.73     29.93
 29.17    856.00     29.26
 29.27    755.00     27.48
 29.37    738.00     27.17
 29.47    689.00     26.25
 29.57    590.60     24.30
 29.67    596.00     24.41
 29.77    552.12     23.50
 29.87    616.00     24.82
 29.97    656.00     25.61
 30.07    642.00     25.34
 30.17    635.00     25.20
 30.27    642.00     25.34
 30.37    614.07     24.78
 30.47    605.00     24.60
 30.57    598.00     24.45
 30.67    641.00     25.32
 30.77    659.00     25.67
 30.87    549.86     23.45
 30.97    683.00     26.13
 31.07    644.62     25.39
 31.17    653.00     25.55
 31.27    580.00     24.08
 31.37    534.98     23.13
 31.47    592.00     24.33
 31.57    618.00     24.86
 31.67    572.00     23.92
 31.77    616.00     24.82
 31.87    517.70     22.75
 31.97    513.64     22.66
 32.07    595.00     24.39
 32.17    569.00     23.85
 32.27    557.00     23.60
 32.37    607.00     24.64
 32.47    533.00     23.09
 32.57    566.00     23.79
 32.67    537.58     23.19
 32.77    539.38     23.22
 32.87    573.00     23.94
 32.97    576.00     24.00
 33.07    618.00     24.86
 33.17    641.00     25.32
 33.27    572.63     23.93
 33.37    573.00     23.94
 33.47    589.00     24.27
 33.57    587.00     24.23
 33.67    651.04     25.52
 33.77    698.00     26.42
 33.87    741.00     27.22
 33.97    937.22     30.61
 34.07   1025.00     32.02
 34.17   1040.45     32.26
 34.27    956.00     30.92
 34.37    883.22     29.72
 34.47    769.00     27.73
 34.57    732.00     27.06
 34.67    617.82     24.86
 34.77    594.00     24.37
 34.87    602.00     24.54
 34.97    581.00     24.10
 35.07    533.80     23.10
 35.17    551.00     23.47
 35.27    511.00     22.61
 35.37    535.00     23.13
 35.47    564.25     23.75
 35.57    539.29     23.22
 35.67    573.98     23.96
 35.77    506.00     22.49
 35.87    524.90     22.91
 35.97    486.00     22.05
 36.07    480.00     21.91
 36.17    495.83     22.27
 36.27    575.90     24.00
 36.37    493.00     22.20
 36.47    510.00     22.58
 36.57    493.84     22.22
 36.67    530.67     23.04
 36.77    491.00     22.16
 36.87    506.00     22.49
 36.97    502.61     22.42
 37.07    569.00     23.85
 37.17    532.00     23.07
 37.27    520.00     22.80
 37.37    546.35     23.37
 37.47    527.62     22.97
 37.57    523.00     22.87
 37.67    504.00     22.45
 37.77    577.17     24.02
 37.87    551.00     23.47
 37.97    558.34     23.63
 38.07    587.38     24.24
 38.17    512.00     22.63
 38.27    512.00     22.63
 38.37    498.00     22.32
 38.47    477.00     21.84
 38.57    516.92     22.74
 38.67    504.51     22.46
 38.77    508.00     22.54
 38.87    529.00     23.00
 38.97    516.00     22.72
 39.07    482.73     21.97
 39.17    481.92     21.95
 39.27    499.00     22.34
 39.37    556.13     23.58
 39.47    544.00     23.32
 39.57    510.00     22.58
 39.67    507.00     22.52
 39.77    557.64     23.61
 39.87    475.68     21.81
 39.97    531.74     23.06
 40.07    563.96     23.75
 40.17    538.00     23.19
 40.27    551.66     23.49
 40.37    482.00     21.95
 40.47    471.00     21.70
 40.57    485.00     22.02
 40.67    465.00     21.56
 40.77    514.00     22.67
 40.87    516.00     22.72
 40.97    493.00     22.20
 41.07    487.00     22.07
 41.17    505.00     22.47
 41.27    487.00     22.07
 41.37    492.26     22.19
 41.47    554.31     23.54
 41.57    535.90     23.15
 41.67    487.58     22.08
 41.77    491.00     22.16
 41.87    479.00     21.89
 41.97    517.48     22.75
 42.07    506.00     22.49
 42.17    535.16     23.13
 42.27    519.00     22.78
 42.37    550.85     23.47
 42.47    502.00     22.41
 42.57    529.00     23.00
 42.67    624.63     24.99
 42.77    630.51     25.11
 42.87    640.01     25.30
 42.97    588.00     24.25
 43.07    591.00     24.31
 43.17    560.00     23.66
 43.27    518.00     22.76
 43.37    527.30     22.96
 43.47    549.00     23.43
 43.57    510.00     22.58
 43.67    566.75     23.81
 43.77    507.00     22.52
 43.87    506.28     22.50
 43.97    507.00     22.52
 44.07    530.00     23.02
 44.17    497.48     22.30
 44.27    511.00     22.61
 44.37    556.46     23.59
 44.47    495.59     22.26
 44.57    506.00     22.49
 44.67    520.00     22.80
 44.77    521.00     22.83
 44.87    534.54     23.12
 44.97    512.00     22.63
 45.07    510.00     22.58
 45.17    536.00     23.15
 45.27    456.75     21.37
 45.37    523.86     22.89
 45.47    466.00     21.59
 45.57    513.00     22.65
 45.67    515.07     22.70
 45.77    531.63     23.06
 45.87    475.00     21.79
 45.97    496.72     22.29
 46.07    531.00     23.04
 46.17    497.48     22.30
 46.27    524.63     22.90
 46.37    497.41     22.30
 46.47    487.02     22.07
 46.57    525.00     22.91
 46.67    514.00     22.67
 46.77    558.83     23.64
 46.87    549.13     23.43
 46.97    486.68     22.06
 47.07    491.00     22.16
 47.17    509.00     22.56
 47.27    530.96     23.04
 47.37    531.02     23.04
 47.47    496.00     22.27
 47.57    584.00     24.17
 47.67    496.74     22.29
 47.77    567.00     23.81
 47.87    616.00     24.82
 47.97    627.81     25.06
 48.07    604.00     24.58
 48.17    584.00     24.17
 48.27    529.00     23.00
 48.37    590.00     24.29
 48.47    592.00     24.33
 48.57    602.26     24.54
 48.67    534.00     23.11
 48.77    542.00     23.28
 48.87    556.00     23.58
 48.97    562.00     23.71
 49.07    541.00     23.26
 49.17    566.00     23.79
 49.27    520.57     22.82
 49.37    585.00     24.19
 49.47    628.00     25.06
 49.57    596.00     24.41
 49.67    743.29     27.26
 49.77    822.88     28.69
 49.87   1070.39     32.72
 49.97   1326.90     36.43
 50.07   1559.81     39.49
 50.17   1943.44     44.08
 50.27   2265.00     47.59
 50.37   2387.00     48.86
 50.47   2234.21     47.27
 50.57   1974.00     44.43
 50.67   1674.00     40.91
 50.77   1209.00     34.77
 50.87   1144.05     33.82
 50.97    812.00     28.50
 51.07    730.00     27.02
 51.17    671.00     25.90
 51.27    630.00     25.10
 51.37    668.86     25.86
 51.47    580.40     24.09
 51.57    626.00     25.02
 51.67    583.00     24.15
 51.77    598.00     24.45
 51.87    564.00     23.75
 51.97    591.00     24.31
 52.07    578.00     24.04
 52.17    554.00     23.54
 52.27    586.62     24.22
 52.37    585.00     24.19
 52.47    503.80     22.45
 52.57    585.00     24.19
 52.67    576.00     24.00
 52.77    603.00     24.56
 52.87    610.00     24.70
 52.97    645.07     25.40
 53.07    714.00     26.72
 53.17    728.00     26.98
 53.27    830.50     28.82
 53.37    853.38     29.21
 53.47   1042.00     32.28
 53.57   1143.42     33.81
 53.67   1156.00     34.00
 53.77   1218.00     34.90
 53.87   1133.76     33.67
 53.97   1038.00     32.22
 54.07    904.00     30.07
 54.17    780.00     27.93
 54.27    812.23     28.50
 54.37    645.00     25.40
 54.47    657.00     25.63
 54.57    624.00     24.98
 54.67    598.00     24.45
 54.77    570.02     23.88
 54.87    597.66     24.45
 54.97    593.00     24.35
 55.07    585.58     24.20
 55.17    594.00     24.37
 55.27    608.00     24.66
 55.37    567.00     23.81
 55.47    598.00     24.45
 55.57    562.00     23.71
 55.67    622.00     24.94
 55.77    573.00     23.94
 55.87    618.00     24.86
 55.97    635.00     25.20
 56.07    666.00     25.81
 56.17    737.35     27.15
 56.27    779.29     27.92
 56.37    886.37     29.77
 56.47   1150.16     33.91
 56.57   1227.00     35.03
 56.67   1563.53     39.54
 56.77   1867.32     43.21
 56.87   2104.00     45.87
 56.97   2344.00     48.41
 57.07   2479.14     49.79
 57.17   2496.00     49.96
 57.27   2238.99     47.32
 57.37   1889.02     43.46
 57.47   1693.00     41.15
 57.57   1335.00     36.54
 57.67   1103.00     33.21
 57.77   1025.00     32.02
 57.87    832.00     28.84
 57.97    737.36     27.15
 58.07    722.00     26.87
 58.17    728.00     26.98
 58.27    752.00     27.42
 58.37    664.40     25.78
 58.47    810.41     28.47
 58.57    851.00     29.17
 58.67    926.75     30.44
 58.77   1017.00     31.89
 58.87   1077.00     32.82
 58.97   1104.00     33.23
 59.07   1235.00     35.14
 59.17   1259.52     35.49
 59.27   1171.10     34.22
 59.37   1304.00     36.11
 59.47   1216.83     34.88
 59.57   1092.03     33.05
 59.67   1197.00     34.60
 59.77   1114.23     33.38
 59.87   1157.24     34.02
 59.97   1252.00     35.38
 60.07   1316.00     36.28
 60.17   1394.00     37.34
 60.27   1461.00     38.22
 60.37   1519.65     38.98
 60.47   1528.30     39.09
 60.57   1521.00     39.00
 60.67   1389.11     37.27
 60.77   1240.00     35.21
 60.87   1189.00     34.48
 60.97   1016.00     31.87
 61.07    880.04     29.67
 61.17    778.00     27.89
 61.27    722.83     26.89
 61.37    666.00     25.81
 61.47    733.32     27.08
 61.57    712.13     26.69
 61.67    726.00     26.94
 61.77    862.63     29.37
 61.87    884.00     29.73
 61.97    985.98     31.40
 62.07   1150.91     33.93
 62.17   1247.85     35.32
 62.27   1261.00     35.51
 62.37   1452.54     38.11
 62.47   1371.46     37.03
 62.57   1290.00     35.92
 62.67   1175.79     34.29
 62.77   1006.45     31.72
 62.87    947.00     30.77
 62.97    790.02     28.11
 63.07    736.15     27.13
 63.17    689.00     26.25
 63.27    635.68     25.21
 63.37    670.26     25.89
 63.47    607.00     24.64
 63.57    626.60     25.03
 63.67    596.00     24.41
 63.77    548.90     23.43
 63.87    612.00     24.74
 63.97    660.00     25.69
 64.07    679.71     26.07
 64.17    713.00     26.70
 64.27    695.00     26.36
 64.37    787.00     28.05
 64.47    805.84     28.39
 64.57    945.06     30.74
 64.67    907.39     30.12
 64.77    983.68     31.36
 64.87    997.00     31.58
 64.97   1053.00     32.45
 65.07    995.00     31.54
 65.17    907.00     30.12
 65.27    861.00     29.34
 65.37    821.00     28.65
 65.47    775.00     27.84
 65.57    724.21     26.91
 65.67    671.50     25.91
 65.77    724.13     26.91
 65.87    592.00     24.33
 65.97    595.00     24.39
 66.07    625.00     25.00
 66.17    559.00     23.64
 66.27    592.00     24.33
 66.37    541.00     23.26
 66.47    559.96     23.66
 66.57    541.00     23.26
 66.67    600.00     24.49
 66.77    549.51     23.44
 66.87    614.00     24.78
 66.97    571.61     23.91
 67.07    636.00     25.22
 67.17    685.10     26.17
 67.27    694.00     26.34
 67.37    709.00     26.63
 67.47    822.00     28.67
 67.57    886.00     29.77
 67.67   1062.00     32.59
 67.77   1269.00     35.62
 67.87   1458.00     38.18
 67.97   1829.46     42.77
 68.07   1963.00     44.31
 68.17   2203.00     46.94
 68.27   2327.00     48.24
 68.37   2327.00     48.24
 68.47   2301.00     47.97
 68.57   2205.00     46.96
 68.67   2021.00     44.96
 68.77   1714.00     41.40
 68.87   1483.00     38.51
 68.97   1203.12     34.69
 69.07   1078.00     32.83
 69.17    929.00     30.48
 69.27    841.97     29.02
 69.37    766.77     27.69
 69.47    706.00     26.57
 69.57    654.00     25.57
 69.67    607.00     24.64
 69.77    600.00     24.49
 69.87    616.00     24.82
 69.97    637.00     25.24
 70.07    544.19     23.33
 70.17    533.00     23.09
 70.27    602.00     24.54
 70.37    532.19     23.07
 70.47    587.00     24.23
 70.57    592.00     24.33
 70.67    614.56     24.79
 70.77    588.00     24.25
 70.87    578.00     24.04
 70.97    613.00     24.76
 71.07    584.68     24.18
 71.17    650.00     25.50
 71.27    708.00     26.61
 71.37    738.00     27.17
 71.47    860.00     29.33
 71.57    886.51     29.77
 71.67   1060.00     32.56
 71.77   1251.00     35.37
 71.87   1276.00     35.72
 71.97   1494.00     38.65
 72.07   1581.46     39.77
 72.17   1684.32     41.04
 72.27   1852.49     43.04
 72.37   1820.64     42.67
 72.47   1773.00     42.11
 72.57   1586.12     39.83
 72.67   1615.00     40.19
 72.77   1356.00     36.82
 72.87   1097.96     33.14
 72.97   1029.53     32.09
 73.07    997.00     31.58
 73.17    828.62     28.79
 73.27    805.00     28.37
 73.37    737.00     27.15
 73.47    611.08     24.72
 73.57    663.00     25.75
 73.67    663.00     25.75
 73.77    629.38     25.09
 73.87    557.36     23.61
 73.97    519.23     22.79
 74.07    508.28     22.55
 74.17    601.00     24.52
 74.27    558.37     23.63
 74.37    594.00     24.37
 74.47    609.67     24.69
 74.57    604.00     24.58
 74.67    564.22     23.75
 74.77    619.00     24.88
 74.87    554.63     23.55
 74.97    633.00     25.16
 75.07    594.00     24.37
 75.17    505.30     22.48
 75.27    580.90     24.10
 75.37    505.55     22.48
 75.47    609.00     24.68
 75.57    590.00     24.29
 75.67    577.87     24.04
 75.77    552.00     23.49
 75.87    603.99     24.58
 75.97    579.58     24.07
 76.07    637.00     25.24
 76.17    640.00     25.30
 76.27    589.00     24.27
 76.37    627.00     25.04
 76.47    602.38     24.54
 76.57    713.00     26.70
 76.67    774.00     27.82
 76.77    735.00     27.11
 76.87    742.93     27.26
 76.97    717.00     26.78
 77.07    678.00     26.04
 77.17    680.00     26.08
 77.27    632.00     25.14
 77.37    588.00     24.25
 77.47    571.08     23.90
 77.57    555.00     23.56
 77.67    603.00     24.56
 77.77    577.00     24.02
 77.87    503.01     22.43
 77.97    588.00     24.25
 78.07    561.00     23.69
 78.17    542.00     23.28
 78.27    509.00     22.56
 78.37    481.00     21.93
 78.47    504.00     22.45
 78.57    532.00     23.07
 78.67    475.82     21.81
 78.77    521.89     22.84
 78.87    466.00     21.59
 78.97    501.00     22.38
 79.07    550.00     23.45
 79.17    522.00     22.85
 79.27    476.34     21.83
 79.37    537.00     23.17
 79.47    544.00     23.32
 79.57    557.00     23.60
 79.67    479.71     21.90
 79.77    521.00     22.83
 79.87    536.00     23.15
 79.97    532.09     23.07
 80.07    523.16     22.87
 80.17    545.88     23.36
 80.27    552.75     23.51
 80.37    531.00     23.04
 80.47    587.01     24.23
 80.57    571.00     23.90
 80.67    615.50     24.81
 80.77    533.00     23.09
 80.87    606.00     24.62
 80.97    608.00     24.66
 81.07    659.70     25.68
 81.17    633.00     25.16
 81.27    679.00     26.06
 81.37    666.39     25.81
 81.47    695.00     26.36
 81.57    758.00     27.53
 81.67    750.00     27.39
 81.77    732.06     27.06
 81.87    737.63     27.16
 81.97    741.00     27.22
 82.07    707.00     26.59
 82.17    703.00     26.51
 82.27    750.34     27.39
 82.37    627.00     25.04
 82.47    618.90     24.88
 82.57    639.00     25.28
 82.67    622.18     24.94
 82.77    597.93     24.45
 82.87    579.00     24.06
 82.97    574.00     23.96
 83.07    574.00     23.96
 83.17    576.44     24.01
 83.27    574.00     23.96
 83.37    557.68     23.62
 83.47    581.00     24.10
 83.57    544.00     23.32
 83.67    548.65     23.42
 83.77    547.00     23.39
 83.87    529.00     23.00
 83.97    563.00     23.73
 84.07    577.99     24.04
 84.17    539.00     23.22
 84.27    604.67     24.59
 84.37    563.00     23.73
 84.47    543.00     23.30
 84.57    538.00     23.19
 84.67    557.00     23.60
 84.77    517.90     22.76
 84.87    537.00     23.17
 84.97    579.84     24.08
 85.07    524.00     22.89
 85.17    493.32     22.21
 85.27    561.00     23.69
 85.37    497.00     22.29
 85.47    524.00     22.89
 85.57    517.27     22.74
 85.67    533.29     23.09
 85.77    531.01     23.04
 85.87    517.00     22.74
 85.97    486.00     22.05
 86.07    530.00     23.02
 86.17    543.00     23.30
 86.27    544.50     23.33
 86.37    485.14     22.03
 86.47    499.07     22.34
 86.57    560.42     23.67
 86.67    539.67     23.23
 86.77    528.00     22.98
 86.87    513.25     22.65
 86.97    536.00     23.15
 87.07    571.00     23.90
 87.17    529.00     23.00
 87.27    557.93     23.62
 87.37    594.00     24.37
 87.47    600.00     24.49
 87.57    594.97     24.39
 87.67    609.00     24.68
 87.77    646.00     25.42
 87.87    665.78     25.80
 87.97    582.72     24.14
 88.07    663.00     25.75
 88.17    597.80     24.45
 88.27    625.00     25.00
 88.37    617.00     24.84
 88.47    607.00     24.64
 88.57    609.00     24.68
 88.67    605.71     24.61
 88.77    578.35     24.05
 88.87    568.00     23.83
 88.97    602.54     24.55
 89.07    568.00     23.83
 89.17    571.00     23.90
 89.27    578.00     24.04
 89.37    572.22     23.92
 89.47    633.21     25.16
 89.57    631.00     25.12
 89.67    587.00     24.23
 89.77    538.00     23.19
 89.87    604.00     24.58
 89.97    590.00     24.29
 90.07    598.00     24.45
 90.17    596.68     24.43
 90.27    539.00     23.22
 90.37    559.00     23.64
 90.47    541.00     23.26
 90.57    533.00     23.09
 90.67    540.00     23.24
 90.77    548.52     23.42
 90.87    505.97     22.49
 90.97    518.00     22.76
 91.07    546.00     23.37
 91.17    504.00     22.45
 91.27    522.05     22.85
 91.37    524.93     22.91
 91.47    542.00     23.28
 91.57    505.00     22.47
 91.67    501.13     22.39
 91.77    572.97     23.94
 91.87    513.00     22.65
 91.97    527.00     22.96
 92.07    546.00     23.37
 92.17    548.00     23.41
 92.27    526.00     22.93
 92.37    586.89     24.23
 92.47    524.00     22.89
 92.57    556.00     23.58
 92.67    554.54     23.55
 92.77    589.00     24.27
 92.87    626.84     25.04
 92.97    648.00     25.46
 93.07    671.00     25.90
 93.17    646.00     25.42
 93.27    648.29     25.46
 93.37    732.00     27.06
 93.47    679.02     26.06
 93.57    752.97     27.44
 93.67    781.89     27.96
 93.77    768.00     27.71
 93.87    812.00     28.50
 93.97    810.00     28.46
 94.07    825.07     28.72
 94.17    815.00     28.55
 94.27    819.00     28.62
 94.37    807.00     28.41
 94.47    825.00     28.72
 94.57    910.00     30.17
 94.67    808.76     28.44
 94.77    886.98     29.78
 94.87    870.96     29.51
 94.97    926.00     30.43
 95.07    908.34     30.14
 95.17    886.26     29.77
 95.27    942.00     30.69
 95.37    889.00     29.82
 95.47    833.03     28.86
 95.57    811.33     28.48
 95.67    804.00     28.35
 95.77    773.65     27.81
 95.87    747.34     27.34
 95.97    767.00     27.69
 96.07    766.00     27.68
 96.17    664.20     25.77
 96.27    724.00     26.91
 96.37    747.38     27.34
 96.47    747.00     27.33
 96.57    750.91     27.40
 96.67    716.00     26.76
 96.77    761.00     27.59
 96.87    883.12     29.72
 96.97    924.00     30.40
 97.07    984.00     31.37
 97.17   1048.00     32.37
 97.27   1077.00     32.82
 97.37   1131.00     33.63
 97.47   1240.00     35.21
 97.57   1385.00     37.22
 97.67   1375.98     37.09
 97.77   1364.00     36.93
 97.87   1348.91     36.73
 97.97   1456.00     38.16
 98.07   1441.00     37.96
 98.17   1463.00     38.25
 98.27   1354.46     36.80
 98.37   1295.00     35.99
 98.47   1209.47     34.78
 98.57   1162.73     34.10
 98.67   1193.00     34.54
 98.77   1083.00     32.91
 98.87    974.90     31.22
 98.97    984.46     31.38
 99.07    914.75     30.24
 99.17    871.00     29.51
 99.27    888.00     29.80
 99.37    947.00     30.77
 99.47    903.63     30.06
 99.57    922.00     30.36
 99.67   1009.00     31.76
 99.77    966.00     31.08
 99.87   1047.00     32.36
 99.97   1105.00     33.24
100.07   1214.00     34.84
100.17   1231.97     35.10
100.27   1429.00     37.80
100.37   1498.00     38.70
100.47   1586.00     39.82
100.57   1625.00     40.31
100.67   1787.37     42.28
100.77   1751.00     41.84
100.87   1880.00     43.36
100.97   1918.38     43.80
101.07   1951.00     44.17
101.17   1900.00     43.59
101.27   2056.41     45.35
101.37   1938.00     44.02
101.47   1933.00     43.97
101.57   1981.00     44.51
101.67   1861.52     43.15
101.77   1800.53     42.43
101.87   1613.31     40.17
101.97   1566.00     39.57
102.07   1546.00     39.32
102.17   1418.82     37.67
102.27   1396.00     37.36
102.37   1332.14     36.50
102.47   1343.00     36.65
102.57   1199.00     34.63
102.67   1177.00     34.31
102.77   1236.48     35.16
102.87   1134.00     33.67
102.97   1145.75     33.85
103.07   1147.00     33.87
103.17   1109.65     33.31
103.27   1019.00     31.92
103.37   1019.43     31.93
103.47    996.00     31.56
103.57    965.31     31.07
103.67    939.00     30.64
103.77    857.00     29.27
103.87    849.00     29.14
103.97    783.06     27.98
104.07    801.00     28.30
104.17    748.00     27.35
104.27    693.00     26.32
104.37    655.27     25.60
104.47    697.09     26.40
104.57    601.00     24.52
104.67    607.00     24.64
104.77    611.00     24.72
104.87    642.00     25.34
104.97    584.00     24.17
105.07    599.00     24.47
105.17    585.00     24.19
105.27    529.21     23.00
105.37    544.00     23.32
105.47    520.00     22.80
105.57    531.00     23.04
105.67    520.00     22.80
105.77    561.00     23.69
105.87    550.00     23.45
105.97    550.00     23.45
106.07    599.38     24.48
106.17    607.00     24.64
106.27    517.00     22.74
106.37    599.19     24.48
106.47    575.52     23.99
106.57    627.12     25.04
106.67    636.34     25.23
106.77    543.00     23.30
106.87    609.00     24.68
106.97    642.00     25.34
107.07    621.00     24.92
107.17    656.00     25.61
107.27    643.00     25.36
107.37    687.00     26.21
107.47    676.57     26.01
107.57    705.20     26.56
107.67    643.00     25.36
107.77    711.00     26.66
107.87    736.17     27.13
107.97    758.09     27.53
108.07    662.00     25.73
108.17    693.00     26.32
108.27    658.00     25.65
108.37    674.00     25.96
108.47    762.64     27.62
108.57    688.27     26.23
108.67    697.00     26.40
108.77    689.00     26.25
108.87    665.13     25.79
108.97    756.31     27.50
109.07    684.00     26.15
109.17    634.00     25.18
109.27    665.00     25.79
109.37    699.49     26.45
109.47    739.00     27.18
109.57    715.00     26.74
109.67    697.00     26.40
109.77    713.00     26.70
109.87    652.00     25.53
109.97    623.49     24.97
110.07    634.38     25.19
110.17    632.94     25.16
110.27    645.00     25.40
110.37    627.34     25.05
110.47    589.00     24.27
110.57    621.00     24.92
110.67    620.00     24.90
110.77    604.00     24.58
110.87    622.15     24.94
110.97    567.95     23.83
111.07    582.00     24.12
111.17    514.88     22.69
111.27    570.00     23.87
111.37    597.27     24.44
111.47    571.00     23.90
111.57    585.00     24.19
111.67    524.62     22.90
111.77    531.71     23.06
111.87    565.00     23.77
111.97    542.00     23.28
112.07    579.00     24.06
112.17    585.00     24.19
112.27    553.11     23.52
112.37    528.55     22.99
112.47    540.22     23.24
112.57    537.00     23.17
112.67    528.92     23.00
112.77    549.00     23.43
112.87    561.00     23.69
112.97    605.00     24.60
113.07    580.00     24.08
113.17    540.97     23.26
113.27    581.00     24.10
113.37    535.98     23.15
113.47    571.00     23.90
113.57    618.51     24.87
113.67    586.00     24.21
113.77    601.00     24.52
113.87    617.06     24.84
113.97    608.00     24.66
114.07    683.00     26.13
114.17    751.26     27.41
114.27    740.00     27.20
114.37    806.00     28.39
114.47    820.00     28.64
114.57    860.00     29.33
114.67    955.00     30.90
114.77    986.00     31.40
114.87   1061.07     32.57
114.97   1238.00     35.19
115.07   1384.32     37.21
115.17   1535.00     39.18
115.27   1729.00     41.58
115.37   1975.00     44.44
115.47   2206.00     46.97
115.57   2412.00     49.11
115.67   2595.00     50.94
115.77   2943.00     54.25
115.87   3222.00     56.76
115.97   3490.13     59.08
116.07   3986.00     63.13
116.17   4279.00     65.41
116.27   4758.00     68.98
116.37   4961.00     70.43
116.47   5375.00     73.31
116.57   5871.65     76.63
116.67   6039.00     77.71
116.77   6311.41     79.44
116.87   6452.75     80.33
116.97   6682.00     81.74
117.07   6769.19     82.28
117.17   6952.60     83.38
117.27   6994.25     83.63
117.37   6861.00     82.83
117.47   6803.00     82.48
117.57   6571.00     81.06
117.67   6247.00     79.04
117.77   5872.67     76.63
117.87   5644.00     75.13
117.97   5147.00     71.74
118.07   5102.36     71.43
118.17   4627.00     68.02
118.27   4184.48     64.69
118.37   3930.00     62.69
118.47   3550.66     59.59
118.57   3177.34     56.37
118.67   2950.78     54.32
118.77   2607.00     51.06
118.87   2488.75     49.89
118.97   2102.00     45.85
119.07   1894.97     43.53
119.17   1770.00     42.07
119.27   1607.16     40.09
119.37   1474.00     38.39
119.47   1331.20     36.49
119.57   1143.59     33.82
119.67   1181.79     34.38
119.77    961.00     31.00
119.87   1019.00     31.92
119.97    868.00     29.46
120.07    898.06     29.97
120.17    782.00     27.96
120.27    794.55     28.19
120.37    786.00     28.04
120.47    689.77     26.26
120.57    667.00     25.83
120.67    655.22     25.60
120.77    654.00     25.57
120.87    589.00     24.27
120.97    626.74     25.03
121.07    651.00     25.51
121.17    626.00     25.02
121.27    605.00     24.60
121.37    649.14     25.48
121.47    559.17     23.65
121.57    616.04     24.82
121.67    601.70     24.53
121.77    651.79     25.53
121.87    583.00     24.15
121.97    586.00     24.21
122.07    627.24     25.04
122.17    622.00     24.94
122.27    633.05     25.16
122.37    564.20     23.75
122.47    592.00     24.33
122.57    613.60     24.77
122.67    652.68     25.55
122.77    575.48     23.99
122.87    612.00     24.74
122.97    591.00     24.31
123.07    620.00     24.90
123.17    642.00     25.34
123.27    691.00     26.29
123.37    624.00     24.98
123.47    637.00     25.24
123.57    627.00     25.04
123.67    671.00     25.90
123.77    644.00     25.38
123.87    644.13     25.38
123.97    680.00     26.08
124.07    646.00     25.42
124.17    592.00     24.33
124.27    655.00     25.59
124.37    623.38     24.97
124.47    620.00     24.90
124.57    590.91     24.31
124.67    634.84     25.20
124.77    559.62     23.66
124.87    644.00     25.38
124.97    596.00     24.41
