XYDATA



INTER 1.0 1.0 0 0
TEMP 1074.0
  9.97    578.00     24.04
 10.07    623.00     24.96
 10.17    617.53     24.85
 10.27    611.00     24.72
 10.37    569.28     23.86
 10.47    599.00     24.47
 10.57    604.70     24.59
 10.67    588.00     24.25
 10.77    572.00     23.92
 10.87    613.16     24.76
 10.97    604.60     24.59
 11.07    615.00     24.80
 11.17    565.85     23.79
 11.27    604.00     24.58
 11.37    623.00     24.96
 11.47    603.00     24.56
 11.57    580.00     24.08
 11.67    644.00     25.38
 11.77    587.23     24.23
 11.87    667.00     25.83
 11.97    615.00     24.80
 12.07    650.90     25.51
 12.17    732.00     27.06
 12.27    732.61     27.07
 12.37    676.30     26.01
 12.47    678.63     26.05
 12.57    597.00     24.43
 12.67    624.31     24.99
 12.77    526.00     22.93
 12.87    554.00     23.54
 12.97    524.00     22.89
 13.07    560.00     23.66
 13.17    535.86     23.15
 13.27    584.44     24.18
 13.37    586.00     24.21
 13.47    530.64     23.04
 13.57    541.71     23.27
 13.67    591.47     24.32
 13.77    566.39     23.80
 13.87    557.00     23.60
 13.97    559.00     23.64
 14.07    577.00     24.02
 14.17    620.00     24.90
 14.27    545.11     23.35
 14.37    599.10     24.48
 14.47    538.00     23.19
 14.57    587.12     24.23
 14.67    559.65     23.66
 14.77    566.00     23.79
 14.87    548.71     23.42
 14.97    515.00     22.69
 15.07    572.92     23.94
 15.17    571.69     23.91
 15.27    556.00     23.58
 15.37    560.74     23.68
 15.47    605.00     24.60
 15.57    601.00     24.52
 15.67    582.00     24.12
 15.77    605.00     24.60
 15.87    558.10     23.62
 15.97    527.00     22.96
 16.07    558.82     23.64
 16.17    566.77     23.81
 16.27    551.19     23.48
 16.37    583.00     24.15
 16.47    552.00     23.49
 16.57    562.00     23.71
 16.67    566.00     23.79
 16.77    556.29     23.59
 16.87    529.19     23.00
 16.97    590.12     24.29
 17.07    554.00     23.54
 17.17    557.00     23.60
 17.27    538.00     23.19
 17.37    583.00     24.15
 17.47    576.00     24.00
 17.57    551.00     23.47
 17.67    602.14     24.54
 17.77    551.00     23.47
 17.87    521.28     22.83
 17.97    569.00     23.85
 18.07    556.00     23.58
 18.17    604.08     24.58
 18.27    548.15     23.41
 18.37    529.20     23.00
 18.47    514.00     22.67
 18.57    520.31     22.81
 18.67    586.00     24.21
 18.77    580.00     24.08
 18.87    562.00     23.71
 18.97    607.23     24.64
 19.07    597.32     24.44
 19.17    524.00     22.89
 19.27    532.56     23.08
 19.37    556.00     23.58
 19.47    533.00     23.09
 19.57    573.00     23.94
 19.67    566.81     23.81
 19.77    596.79     24.43
 19.87    600.00     24.49
 19.97    547.00     23.39
 20.07    566.00     23.79
 20.17    561.91     23.70
 20.27    515.00     22.69
 20.37    556.00     23.58
 20.47    574.13     23.96
 20.57    533.00     23.09
 20.67    572.00     23.92
 20.77    523.25     22.87
 20.87    565.00     23.77
 20.97    558.00     23.62
 21.07    517.00     22.74
 21.17    587.00     24.23
 21.27    529.00     23.00
 21.37    553.00     23.52
 21.47    549.63     23.44
 21.57    516.34     22.72
 21.67    517.54     22.75
 21.77    569.00     23.85
 21.87    594.40     24.38
 21.97    516.04     22.72
 22.07    559.97     23.66
 22.17    570.40     23.88
 22.27    568.00     23.83
 22.37    526.84     22.95
 22.47    562.00     23.71
 22.57    530.65     23.04
 22.67    570.00     23.87
 22.77    534.00     23.11
 22.87    559.00     23.64
 22.97    523.59     22.88
 23.07    576.00     24.00
 23.17    512.00     22.63
 23.27    517.00     22.74
 23.37    587.44     24.24
 23.47    582.80     24.14
 23.57    541.47     23.27
 23.67    543.00     23.30
 23.77    535.79     23.15
 23.87    554.00     23.54
 23.97    557.29     23.61
 24.07    545.00     23.35
 24.17    564.04     23.75
 24.27    571.00     23.90
 24.37    603.00     24.56
 24.47    572.00     23.92
 24.57    628.62     25.07
 24.67    601.67     24.53
 24.77    669.18     25.87
 24.87    673.05     25.94
 24.97    627.00     25.04
 25.07    623.00     24.96
 25.17    614.07     24.78
 25.27    540.34     23.25
 25.37    591.09     24.31
 25.47    526.66     22.95
 25.57    565.00     23.77
 25.67    558.00     23.62
 25.77    588.00     24.25
 25.87    576.00     24.00
 25.97    555.00     23.56
 26.07    531.00     23.04
 26.17    563.00     23.73
 26.27    512.80     22.64
 26.37    545.15     23.35
 26.47    564.30     23.75
 26.57    577.68     24.03
 26.67    601.00     24.52
 26.77    581.00     24.10
 26.87    540.00     23.24
 26.97    586.00     24.21
 27.07    507.94     22.54
 27.17    574.54     23.97
 27.27    593.00     24.35
 27.37    620.00     24.90
 27.47    538.00     23.19
 27.57    516.53     22.73
 27.67    601.00     24.52
 27.77    582.47     24.13
 27.87    598.00     24.45
 27.97    629.99     25.10
 28.07    800.60     28.29
 28.17    937.25     30.61
 28.27    956.28     30.92
 28.37    859.78     29.32
 28.47    772.00     27.78
 28.57    723.71     26.90
 28.67    705.00     26.55
 28.77    765.00     27.66
 28.87    828.00     28.77
 28.97    783.00     27.98
 29.07    721.00     26.85
 29.17    759.00     27.55
 29.27    650.00     25.50
 29.37    605.00     24.60
 29.47    555.05     23.56
 29.57    541.70     23.27
 29.67    553.21     23.52
 29.77    605.40     24.60
 29.87    534.32     23.12
 29.97    580.85     24.10
 30.07    507.30     22.52
 30.17    557.00     23.60
 30.27    561.00     23.69
 30.37    548.83     23.43
 30.47    587.00     24.23
 30.57    630.00     25.10
 30.67    568.00     23.83
 30.77    617.00     24.84
 30.87    654.00     25.57
 30.97    598.00     24.45
 31.07    602.15     24.54
 31.17    608.26     24.66
 31.27    540.00     23.24
 31.37    587.00     24.23
 31.47    542.00     23.28
 31.57    563.00     23.73
 31.67    488.36     22.10
 31.77    575.06     23.98
 31.87    506.00     22.49
 31.97    562.00     23.71
 32.07    542.00     23.28
 32.17    561.00     23.69
 32.27    547.00     23.39
 32.37    547.00     23.39
 32.47    517.40     22.75
 32.57    553.00     23.52
 32.67    531.00     23.04
 32.77    488.03     22.09
 32.87    566.00     23.79
 32.97    513.00     22.65
 33.07    518.00     22.76
 33.17    544.00     23.32
 33.27    537.03     23.17
 33.37    569.00     23.85
 33.47    549.00     23.43
 33.57    596.85     24.43
 33.67    630.00     25.10
 33.77    773.54     27.81
 33.87    922.88     30.38
 33.97   1010.00     31.78
 34.07   1101.72     33.19
 34.17   1041.00     32.26
 34.27    919.00     30.32
 34.37    776.00     27.86
 34.47    650.00     25.50
 34.57    621.00     24.92
 34.67    582.87     24.14
 34.77    534.00     23.11
 34.87    575.00     23.98
 34.97    552.00     23.49
 35.07    550.37     23.46
 35.17    492.21     22.19
 35.27    541.70     23.27
 35.37    514.83     22.69
 35.47    518.00     22.76
 35.57    459.00     21.42
 35.67    516.00     22.72
 35.77    548.17     23.41
 35.87    511.80     22.62
 35.97    502.00     22.41
 36.07    472.00     21.73
 36.17    517.00     22.74
 36.27    518.00     22.76
 36.37    508.00     22.54
 36.47    528.00     22.98
 36.57    535.86     23.15
 36.67    500.30     22.37
 36.77    524.10     22.89
 36.87    523.00     22.87
 36.97    501.00     22.38
 37.07    555.00     23.56
 37.17    539.00     23.22
 37.27    516.00     22.72
 37.37    463.00     21.52
 37.47    527.00     22.96
 37.57    495.92     22.27
 37.67    534.00     23.11
 37.77    531.00     23.04
 37.87    569.70     23.87
 37.97    561.00     23.69
 38.07    511.00     22.61
 38.17    525.55     22.92
 38.27    478.79     21.88
 38.37    497.00     22.29
 38.47    528.00     22.98
 38.57    453.00     21.28
 38.67    495.00     22.25
 38.77    522.00     22.85
 38.87    474.00     21.77
 38.97    476.00     21.82
 39.07    520.00     22.80
 39.17    491.00     22.16
 39.27    525.00     22.91
 39.37    563.00     23.73
 39.47    537.00     23.17
 39.57    478.00     21.86
 39.67    504.00     22.45
 39.77    483.00     21.98
 39.87    496.00     22.27
 39.97    517.64     22.75
 40.07    506.81     22.51
 40.17    480.00     21.91
 40.27    522.00     22.85
 40.37    513.75     22.67
 40.47    486.00     22.05
 40.57    484.50     22.01
 40.67    510.93     22.60
 40.77    519.00     22.78
 40.87    500.38     22.37
 40.97    494.00     22.23
 41.07    491.00     22.16
 41.17    484.00     22.00
 41.27    526.00     22.93
 41.37    506.37     22.50
 41.47    540.26     23.24
 41.57    514.03     22.67
 41.67    524.00     22.89
 41.77    510.74     22.60
 41.87    528.00     22.98
 41.97    487.00     22.07
 42.07    505.00     22.47
 42.17    520.42     22.81
 42.27    516.74     22.73
 42.37    551.00     23.47
 42.47    534.00     23.11
 42.57    582.00     24.12
 42.67    568.00     23.83
 42.77    632.18     25.14
 42.87    604.00     24.58
 42.97    566.00     23.79
 43.07    514.25     22.68
 43.17    548.39     23.42
 43.27    539.00     23.22
 43.37    521.37     22.83
 43.47    530.09     23.02
 43.57    519.00     22.78
 43.67    475.00     21.79
 43.77    486.00     22.05
 43.87    466.38     21.60
 43.97    493.00     22.20
 44.07    504.00     22.45
 44.17    488.01     22.09
 44.27    470.94     21.70
 44.37    531.00     23.04
 44.47    533.00     23.09
 44.57    523.00     22.87
 44.67    491.00     22.16
 44.77    552.00     23.49
 44.87    520.00     22.80
 44.97    553.00     23.52
 45.07    504.00     22.45
 45.17    489.00     22.11
 45.27    502.55     22.42
 45.37    526.00     22.93
 45.47    465.00     21.56
 45.57    551.00     23.47
 45.67    498.00     22.32
 45.77    547.54     23.40
 45.87    507.00     22.52
 45.97    520.00     22.80
 46.07    477.10     21.84
 46.17    494.66     22.24
 46.27    481.12     21.93
 46.37    468.43     21.64
 46.47    468.64     21.65
 46.57    514.34     22.68
 46.67    480.00     21.91
 46.77    468.86     21.65
 46.87    479.00     21.89
 46.97    543.43     23.31
 47.07    528.00     22.98
 47.17    530.97     23.04
 47.27    497.00     22.29
 47.37    522.00     22.85
 47.47    537.00     23.17
 47.57    628.00     25.06
 47.67    609.00     24.68
 47.77    587.00     24.23
 47.87    601.00     24.52
 47.97    595.00     24.39
 48.07    539.00     23.22
 48.17    525.52     22.92
 48.27    597.35     24.44
 48.37    547.43     23.40
 48.47    553.00     23.52
 48.57    575.46     23.99
 48.67    542.00     23.28
 48.77    506.49     22.51
 48.87    515.63     22.71
 48.97    582.00     24.12
 49.07    560.00     23.66
 49.17    613.00     24.76
 49.27    613.00     24.76
 49.37    637.00     25.24
 49.47    721.00     26.85
 49.57    776.00     27.86
 49.67    860.33     29.33
 49.77   1108.00     33.29
 49.87   1419.00     37.67
 49.97   1888.00     43.45
 50.07   2248.09     47.41
 50.17   2523.00     50.23
 50.27   2491.00     49.91
 50.37   2138.00     46.24
 50.47   1820.00     42.66
 50.57   1388.00     37.26
 50.67   1091.71     33.04
 50.77    810.00     28.46
 50.87    761.08     27.59
 50.97    715.57     26.75
 51.07    645.00     25.40
 51.17    622.00     24.94
 51.27    562.33     23.71
 51.37    601.00     24.52
 51.47    587.00     24.23
 51.57    575.00     23.98
 51.67    559.00     23.64
 51.77    519.00     22.78
 51.87    566.00     23.79
 51.97    517.23     22.74
 52.07    511.08     22.61
 52.17    535.00     23.13
 52.27    570.65     23.89
 52.37    565.00     23.77
 52.47    549.00     23.43
 52.57    554.00     23.54
 52.67    618.00     24.86
 52.77    638.00     25.26
 52.87    651.00     25.51
 52.97    744.34     27.28
 53.07    797.00     28.23
 53.17    922.00     30.36
 53.27   1031.00     32.11
 53.37   1087.55     32.98
 53.47   1213.72     34.84
 53.57   1159.00     34.04
 53.67   1148.92     33.90
 53.77    991.00     31.48
 53.87    854.31     29.23
 53.97    713.00     26.70
 54.07    685.00     26.17
 54.17    670.93     25.90
 54.27    602.00     24.54
 54.37    537.95     23.19
 54.47    532.24     23.07
 54.57    626.00     25.02
 54.67    567.00     23.81
 54.77    515.61     22.71
 54.87    567.00     23.81
 54.97    595.00     24.39
 55.07    604.00     24.58
 55.17    521.66     22.84
 55.27    574.00     23.96
 55.37    557.00     23.60
 55.47    593.15     24.35
 55.57    577.00     24.02
 55.67    582.00     24.12
 55.77    614.10     24.78
 55.87    596.00     24.41
 55.97    605.00     24.60
 56.07    676.00     26.00
 56.17    749.00     27.37
 56.27    870.00     29.50
 56.37   1211.88     34.81
 56.47   1370.00     37.01
 56.57   1731.00     41.61
 56.67   2070.00     45.50
 56.77   2514.00     50.14
 56.87   2620.00     51.19
 56.97   2608.00     51.07
 57.07   2406.00     49.05
 57.17   2037.00     45.13
 57.27   1625.00     40.31
 57.37   1314.07     36.25
 57.47   1040.00     32.25
 57.57    874.00     29.56
 57.67    803.00     28.34
 57.77    662.33     25.74
 57.87    662.33     25.74
 57.97    732.00     27.06
 58.07    665.00     25.79
 58.17    672.00     25.92
 58.27    833.00     28.86
 58.37    801.00     28.30
 58.47    910.00     30.17
 58.57   1045.26     32.33
 58.67   1143.00     33.81
 58.77   1313.00     36.24
 58.87   1422.00     37.71
 58.97   1500.00     38.73
 59.07   1473.00     38.38
 59.17   1493.00     38.64
 59.27   1442.00     37.97
 59.37   1305.42     36.13
 59.47   1337.00     36.57
 59.57   1208.00     34.76
 59.67   1136.00     33.70
 59.77   1122.00     33.50
 59.87   1139.45     33.76
 59.97   1294.48     35.98
 60.07   1409.91     37.55
 60.17   1477.00     38.43
 60.27   1536.32     39.20
 60.37   1497.00     38.69
 60.47   1360.71     36.89
 60.57   1254.12     35.41
 60.67   1078.00     32.83
 60.77    937.00     30.61
 60.87    800.00     28.28
 60.97    692.69     26.32
 61.07    649.75     25.49
 61.17    605.00     24.60
 61.27    634.00     25.18
 61.37    694.00     26.34
 61.47    676.67     26.01
 61.57    793.00     28.16
 61.67    825.00     28.72
 61.77    985.62     31.39
 61.87   1083.64     32.92
 61.97   1238.04     35.19
 62.07   1345.00     36.67
 62.17   1405.00     37.48
 62.27   1355.00     36.81
 62.37   1325.00     36.40
 62.47   1146.56     33.86
 62.57    976.00     31.24
 62.67    855.00     29.24
 62.77    810.00     28.46
 62.87    704.00     26.53
 62.97    610.00     24.70
 63.07    584.37     24.17
 63.17    584.00     24.17
 63.27    511.00     22.61
 63.37    601.00     24.52
 63.47    531.52     23.05
 63.57    536.93     23.17
 63.67    600.49     24.50
 63.77    639.00     25.28
 63.87    644.00     25.38
 63.97    653.88     25.57
 64.07    699.00     26.44
 64.17    763.00     27.62
 64.27    854.00     29.22
 64.37    902.00     30.03
 64.47    972.00     31.18
 64.57   1080.00     32.86
 64.67   1034.00     32.16
 64.77   1068.86     32.69
 64.87   1018.23     31.91
 64.97    933.43     30.55
 65.07    853.00     29.21
 65.17    757.93     27.53
 65.27    726.51     26.95
 65.37    678.18     26.04
 65.47    666.00     25.81
 65.57    632.00     25.14
 65.67    610.90     24.72
 65.77    607.39     24.65
 65.87    566.00     23.79
 65.97    579.00     24.06
 66.07    530.00     23.02
 66.17    560.00     23.66
 66.27    559.00     23.64
 66.37    554.99     23.56
 66.47    580.12     24.09
 66.57    586.00     24.21
 66.67    606.79     24.63
 66.77    579.00     24.06
 66.87    558.00     23.62
 66.97    591.00     24.31
 67.07    644.00     25.38
 67.17    658.33     25.66
 67.27    815.00     28.55
 67.37    850.00     29.15
 67.47   1020.71     31.95
 67.57   1313.00     36.24
 67.67   1525.00     39.05
 67.77   1816.00     42.61
 67.87   2171.00     46.59
 67.97   2261.00     47.55
 68.07   2488.46     49.88
 68.17   2437.00     49.37
 68.27   2299.65     47.95
 68.37   2091.00     45.73
 68.47   1826.00     42.73
 68.57   1590.00     39.87
 68.67   1329.66     36.46
 68.77   1079.00     32.85
 68.87    841.00     29.00
 68.97    798.53     28.26
 69.07    732.99     27.07
 69.17    657.54     25.64
 69.27    665.52     25.80
 69.37    607.00     24.64
 69.47    610.00     24.70
 69.57    613.28     24.76
 69.67    574.66     23.97
 69.77    559.28     23.65
 69.87    553.00     23.52
 69.97    587.92     24.25
 70.07    602.00     24.54
 70.17    536.00     23.15
 70.27    587.00     24.23
 70.37    550.00     23.45
 70.47    591.00     24.31
 70.57    600.12     24.50
 70.67    567.05     23.81
 70.77    574.00     23.96
 70.87    599.86     24.49
 70.97    610.55     24.71
 71.07    661.99     25.73
 71.17    741.00     27.22
 71.27    829.00     28.79
 71.37    946.62     30.77
 71.47   1090.00     33.02
 71.57   1269.00     35.62
 71.67   1386.00     37.23
 71.77   1716.99     41.44
 71.87   1780.83     42.20
 71.97   1930.58     43.94
 72.07   1922.70     43.85
 72.17   1892.00     43.50
 72.27   1822.62     42.69
 72.37   1683.10     41.03
 72.47   1503.23     38.77
 72.57   1297.00     36.01
 72.67   1185.00     34.42
 72.77   1058.00     32.53
 72.87    983.95     31.37
 72.97    825.00     28.72
 73.07    826.66     28.75
 73.17    710.00     26.65
 73.27    691.00     26.29
 73.37    661.00     25.71
 73.47    628.00     25.06
 73.57    688.67     26.24
 73.67    621.00     24.92
 73.77    621.00     24.92
 73.87    605.00     24.60
 73.97    626.74     25.03
 74.07    593.00     24.35
 74.17    625.00     25.00
 74.27    648.00     25.46
 74.37    588.00     24.25
 74.47    629.00     25.08
 74.57    651.00     25.51
 74.67    607.00     24.64
 74.77    591.06     24.31
 74.87    520.16     22.81
 74.97    616.00     24.82
 75.07    557.00     23.60
 75.17    597.00     24.43
 75.27    541.00     23.26
 75.37    546.00     23.37
 75.47    548.78     23.43
 75.57    577.00     24.02
 75.67    572.00     23.92
 75.77    582.00     24.12
 75.87    623.00     24.96
 75.97    605.00     24.60
 76.07    623.00     24.96
 76.17    635.35     25.21
 76.27    713.00     26.70
 76.37    680.00     26.08
 76.47    709.00     26.63
 76.57    738.00     27.17
 76.67    662.74     25.74
 76.77    727.22     26.97
 76.87    690.34     26.27
 76.97    655.00     25.59
 77.07    624.45     24.99
 77.17    644.99     25.40
 77.27    529.00     23.00
 77.37    575.32     23.99
 77.47    532.00     23.07
 77.57    530.00     23.02
 77.67    504.17     22.45
 77.77    499.00     22.34
 77.87    492.66     22.20
 77.97    562.00     23.71
 78.07    498.00     22.32
 78.17    556.44     23.59
 78.27    502.00     22.41
 78.37    525.00     22.91
 78.47    503.00     22.43
 78.57    508.33     22.55
 78.67    496.00     22.27
 78.77    539.00     23.22
 78.87    510.79     22.60
 78.97    496.00     22.27
 79.07    565.00     23.77
 79.17    478.00     21.86
 79.27    539.00     23.22
 79.37    521.24     22.83
 79.47    548.00     23.41
 79.57    568.54     23.84
 79.67    550.00     23.45
 79.77    495.00     22.25
 79.87    537.00     23.17
 79.97    570.00     23.87
 80.07    540.00     23.24
 80.17    517.11     22.74
 80.27    561.00     23.69
 80.37    582.00     24.12
 80.47    600.00     24.49
 80.57    595.43     24.40
 80.67    587.00     24.23
 80.77    670.00     25.88
 80.87    634.00     25.18
 80.97    672.03     25.92
 81.07    696.00     26.38
 81.17    746.74     27.33
 81.27    775.00     27.84
 81.37    747.00     27.33
 81.47    797.00     28.23
 81.57    717.00     26.78
 81.67    698.53     26.43
 81.77    772.00     27.78
 81.87    702.00     26.50
 81.97    663.10     25.75
 82.07    677.00     26.02
 82.17    649.00     25.48
 82.27    669.00     25.87
 82.37    664.00     25.77
 82.47    637.00     25.24
 82.57    612.00     24.74
 82.67    554.00     23.54
 82.77    593.00     24.35
 82.87    571.00     23.90
 82.97    572.38     23.92
 83.07    527.00     22.96
 83.17    537.12     23.18
 83.27    574.87     23.98
 83.37    545.00     23.35
 83.47    563.00     23.73
 83.57    543.71     23.32
 83.67    554.00     23.54
 83.77    539.27     23.22
 83.87    567.00     23.81
 83.97    560.00     23.66
 84.07    570.99     23.90
 84.17    581.50     24.11
 84.27    564.12     23.75
 84.37    521.00     22.83
 84.47    597.00     24.43
 84.57    586.55     24.22
 84.67    590.00     24.29
 84.77    546.12     23.37
 84.87    511.00     22.61
 84.97    504.71     22.47
 85.07    544.00     23.32
 85.17    505.00     22.47
 85.27    541.00     23.26
 85.37    561.00     23.69
 85.47    509.00     22.56
 85.57    554.15     23.54
 85.67    508.00     22.54
 85.77    512.00     22.63
 85.87    560.00     23.66
 85.97    519.58     22.79
 86.07    540.00     23.24
 86.17    599.00     24.47
 86.27    484.00     22.00
 86.37    548.00     23.41
 86.47    537.00     23.17
 86.57    515.00     22.69
 86.67    566.00     23.79
 86.77    600.75     24.51
 86.87    605.00     24.60
 86.97    625.00     25.00
 87.07    619.00     24.88
 87.17    646.00     25.42
 87.27    631.09     25.12
 87.37    672.00     25.92
 87.47    669.91     25.88
 87.57    655.00     25.59
 87.67    664.87     25.79
 87.77    648.00     25.46
 87.87    623.00     24.96
 87.97    635.53     25.21
 88.07    606.77     24.63
 88.17    605.00     24.60
 88.27    640.00     25.30
 88.37    561.03     23.69
 88.47    594.00     24.37
 88.57    592.00     24.33
 88.67    579.00     24.06
 88.77    569.51     23.86
 88.87    611.82     24.73
 88.97    599.00     24.47
 89.07    603.00     24.56
 89.17    581.00     24.10
 89.27    601.00     24.52
 89.37    576.00     24.00
 89.47    623.36     24.97
 89.57    617.23     24.84
 89.67    579.72     24.08
 89.77    564.64     23.76
 89.87    580.96     24.10
 89.97    535.28     23.14
 90.07    523.70     22.88
 90.17    519.00     22.78
 90.27    532.00     23.07
 90.37    461.00     21.47
 90.47    556.86     23.60
 90.57    510.44     22.59
 90.67    517.00     22.74
 90.77    514.00     22.67
 90.87    521.00     22.83
 90.97    524.00     22.89
 91.07    509.00     22.56
 91.17    531.00     23.04
 91.27    510.46     22.59
 91.37    570.84     23.89
 91.47    551.42     23.48
 91.57    476.00     21.82
 91.67    576.41     24.01
 91.77    500.45     22.37
 91.87    527.00     22.96
 91.97    564.00     23.75
 92.07    570.00     23.87
 92.17    576.00     24.00
 92.27    625.09     25.00
 92.37    606.95     24.64
 92.47    615.31     24.81
 92.57    602.28     24.54
 92.67    674.39     25.97
 92.77    674.00     25.96
 92.87    680.51     26.09
 92.97    704.00     26.53
 93.07    793.00     28.16
 93.17    748.00     27.35
 93.27    810.34     28.47
 93.37    803.00     28.34
 93.47    791.00     28.12
 93.57    820.00     28.64
 93.67    817.00     28.58
 93.77    858.39     29.30
 93.87    825.00     28.72
 93.97    842.10     29.02
 94.07    899.00     29.98
 94.17    786.60     28.05
 94.27    871.00     29.51
 94.37    806.39     28.40
 94.47    899.00     29.98
 94.57    899.89     30.00
 94.67    845.89     29.08
 94.77    972.00     31.18
 94.87    908.88     30.15
 94.97    874.12     29.57
 95.07    934.00     30.56
 95.17    882.00     29.70
 95.27    788.82     28.09
 95.37    764.00     27.64
 95.47    782.00     27.96
 95.57    767.00     27.69
 95.67    740.03     27.20
 95.77    707.57     26.60
 95.87    737.00     27.15
 95.97    682.38     26.12
 96.07    647.94     25.45
 96.17    710.49     26.66
 96.27    742.00     27.24
 96.37    800.00     28.28
 96.47    798.00     28.25
 96.57    854.00     29.22
 96.67    934.24     30.57
 96.77   1008.00     31.75
 96.87   1110.35     33.32
 96.97   1168.00     34.18
 97.07   1246.00     35.30
 97.17   1313.00     36.24
 97.27   1393.00     37.32
 97.37   1387.00     37.24
 97.47   1402.00     37.44
 97.57   1497.00     38.69
 97.67   1429.50     37.81
 97.77   1338.13     36.58
 97.87   1350.00     36.74
 97.97   1272.00     35.67
 98.07   1248.00     35.33
 98.17   1222.00     34.96
 98.27   1084.00     32.92
 98.37   1024.00     32.00
 98.47    944.00     30.72
 98.57    850.00     29.15
 98.67    850.00     29.15
 98.77    838.08     28.95
 98.87    781.00     27.95
 98.97    782.00     27.96
 99.07    788.60     28.08
 99.17    803.00     28.34
 99.27    904.00     30.07
 99.37    941.00     30.68
 99.47   1034.00     32.16
 99.57   1130.87     33.63
 99.67   1171.00     34.22
 99.77   1262.82     35.54
 99.87   1341.00     36.62
 99.97   1539.00     39.23
100.07   1618.00     40.22
100.17   1698.00     41.21
100.27   1863.00     43.16
100.37   1934.00     43.98
100.47   1913.00     43.74
100.57   2000.70     44.73
100.67   2122.60     46.07
100.77   2110.31     45.94
100.87   2039.62     45.16
100.97   1982.00     44.52
101.07   1979.00     44.49
101.17   1906.00     43.66
101.27   1842.00     42.92
101.37   1729.00     41.58
101.47   1642.89     40.53
101.57   1581.00     39.76
101.67   1491.48     38.62
101.77   1298.12     36.03
101.87   1231.97     35.10
101.97   1243.00     35.26
102.07   1231.50     35.09
102.17   1116.00     33.41
102.27   1130.00     33.62
102.37   1130.23     33.62
102.47   1068.00     32.68
102.57   1041.00     32.26
102.67   1031.00     32.11
102.77   1004.00     31.69
102.87   1025.00     32.02
102.97    968.69     31.12
103.07    918.00     30.30
103.17    863.99     29.39
103.27    881.00     29.68
103.37    790.90     28.12
103.47    850.00     29.15
103.57    745.00     27.29
103.67    741.49     27.23
103.77    710.72     26.66
103.87    602.84     24.55
103.97    603.00     24.56
104.07    624.55     24.99
104.17    637.00     25.24
104.27    572.00     23.92
104.37    590.00     24.29
104.47    570.81     23.89
104.57    559.00     23.64
104.67    543.53     23.31
104.77    562.00     23.71
104.87    565.00     23.77
104.97    545.00     23.35
105.07    541.00     23.26
105.17    532.00     23.07
105.27    519.00     22.78
105.37    523.74     22.89
105.47    587.00     24.23
105.57    521.00     22.83
105.67    591.00     24.31
105.77    559.00     23.64
105.87    554.00     23.54
105.97    600.00     24.49
106.07    591.00     24.31
106.17    591.00     24.31
106.27    546.34     23.37
106.37    614.41     24.79
106.47    616.11     24.82
106.57    650.80     25.51
106.67    585.00     24.19
106.77    616.00     24.82
106.87    636.00     25.22
106.97    659.00     25.67
107.07    649.00     25.48
107.17    660.03     25.69
107.27    705.39     26.56
107.37    713.83     26.72
107.47    742.97     27.26
107.57    685.00     26.17
107.67    684.00     26.15
107.77    702.00     26.50
107.87    692.84     26.32
107.97    672.00     25.92
108.07    678.00     26.04
108.17    640.00     25.30
108.27    681.00     26.10
108.37    681.00     26.10
108.47    658.15     25.65
108.57    654.00     25.57
108.67    687.39     26.22
108.77    719.00     26.81
108.87    697.00     26.40
108.97    736.50     27.14
109.07    701.00     26.48
109.17    653.00     25.55
109.27    694.28     26.35
109.37    618.00     24.86
109.47    638.99     25.28
109.57    653.00     25.55
109.67    599.26     24.48
109.77    594.63     24.39
109.87    629.33     25.09
109.97    612.00     24.74
110.07    604.00     24.58
110.17    546.00     23.37
110.27    593.00     24.35
110.37    546.00     23.37
110.47    578.12     24.04
110.57    534.00     23.11
110.67    565.00     23.77
110.77    576.00     24.00
110.87    533.12     23.09
110.97    548.00     23.41
111.07    533.00     23.09
111.17    525.00     22.91
111.27    546.59     23.38
111.37    521.56     22.84
111.47    504.00     22.45
111.57    534.08     23.11
111.67    519.55     22.79
111.77    586.88     24.23
111.87    543.00     23.30
111.97    527.00     22.96
112.07    573.00     23.94
112.17    552.96     23.52
112.27    572.98     23.94
112.37    543.31     23.31
112.47    549.00     23.43
112.57    591.64     24.32
112.67    645.34     25.40
112.77    594.00     24.37
112.87    643.06     25.36
112.97    652.00     25.53
113.07    649.00     25.48
113.17    699.78     26.45
113.27    691.78     26.30
113.37    781.75     27.96
113.47    715.00     26.74
113.57    759.00     27.55
113.67    800.08     28.29
113.77    826.00     28.74
113.87    893.45     29.89
113.97    974.99     31.22
114.07   1020.22     31.94
114.17   1064.00     32.62
114.27   1140.00     33.76
114.37   1184.00     34.41
114.47   1283.00     35.82
114.57   1341.91     36.63
114.67   1622.00     40.27
114.77   1658.00     40.72
114.87   1837.13     42.86
114.97   2102.85     45.86
115.07   2364.00     48.62
115.17   2510.79     50.11
115.27   2854.26     53.43
115.37   3037.00     55.11
115.47   3399.00     58.30
115.57   3743.32     61.18
115.67   4113.00     64.13
115.77   4438.84     66.62
115.87   5029.47     70.92
115.97   5267.00     72.57
116.07   5724.00     75.66
116.17   5991.00     77.40
116.27   6360.70     79.75
116.37   6573.00     81.07
116.47   6768.92     82.27
116.57   6876.00     82.92
116.67   6785.00     82.37
116.77   6865.00     82.86
116.87   6934.00     83.27
116.97   6716.83     81.96
117.07   6456.00     80.35
117.17   6024.00     77.61
117.27   5660.67     75.24
117.37   5407.69     73.54
117.47   4893.00     69.95
117.57   4609.00     67.89
117.67   4212.00     64.90
117.77   3761.42     61.33
117.87   3381.94     58.15
117.97   3170.34     56.31
118.07   2936.00     54.18
118.17   2480.00     49.80
118.27   2206.00     46.97
118.37   2002.00     44.74
118.47   1811.00     42.56
118.57   1559.00     39.48
118.67   1413.00     37.59
118.77   1299.05     36.04
118.87   1095.57     33.10
118.97    986.00     31.40
119.07    982.00     31.34
119.17    917.66     30.29
119.27    889.74     29.83
119.37    806.00     28.39
119.47    742.00     27.24
119.57    721.00     26.85
119.67    651.50     25.52
119.77    615.00     24.80
119.87    673.00     25.94
119.97    609.81     24.69
120.07    638.00     25.26
120.17    596.00     24.41
120.27    634.90     25.20
120.37    550.14     23.46
120.47    573.00     23.94
120.57    617.95     24.86
120.67    568.00     23.83
120.77    569.00     23.85
120.87    572.00     23.92
120.97    605.45     24.61
121.07    547.29     23.39
121.17    554.00     23.54
121.27    558.00     23.62
121.37    574.00     23.96
121.47    589.00     24.27
121.57    628.14     25.06
121.67    597.00     24.43
121.77    604.00     24.58
121.87    637.00     25.24
121.97    560.50     23.67
122.07    656.00     25.61
122.17    619.00     24.88
122.27    642.00     25.34
122.37    679.00     26.06
122.47    684.00     26.15
122.57    651.00     25.51
122.67    609.00     24.68
122.77    633.21     25.16
122.87    612.00     24.74
122.97    651.00     25.51
123.07    645.00     25.40
123.17    655.00     25.59
123.27    664.87     25.78
123.37    606.00     24.62
123.47    630.00     25.10
123.57    681.00     26.10
123.67    653.00     25.55
123.77    627.00     25.04
123.87    623.14     24.96
123.97    663.00     25.75
124.07    602.00     24.54
124.17    567.25     23.82
124.27    668.00     25.85
124.37    624.00     24.98
124.47    561.00     23.69
124.57    614.00     24.78
124.67    614.11     24.78
124.77    588.25     24.25
124.87    598.00     24.45
124.97    551.76     23.49
