XYDATA



INTER 1.0 1.0 0 0
TEMP 1074.0
  9.97    615.72     24.81
 10.07    634.00     25.18
 10.17    600.34     24.50
 10.27    530.75     23.04
 10.37    610.00     24.70
 10.47    606.00     24.62
 10.57    597.00     24.43
 10.67    546.36     23.37
 10.77    584.00     24.17
 10.87    549.00     23.43
 10.97    572.00     23.92
 11.07    603.37     24.56
 11.17    594.00     24.37
 11.27    548.00     23.41
 11.37    594.00     24.37
 11.47    605.37     24.60
 11.57    593.00     24.35
 11.67    646.00     25.42
 11.77    625.00     25.00
 11.87    637.00     25.24
 11.97    694.62     26.36
 12.07    676.00     26.00
 12.17    699.00     26.44
 12.27    662.00     25.73
 12.37    655.00     25.59
 12.47    669.24     25.87
 12.57    614.00     24.78
 12.67    622.00     24.94
 12.77    585.00     24.19
 12.87    532.34     23.07
 12.97    562.00     23.71
 13.07    628.99     25.08
 13.17    551.00     23.47
 13.27    581.00     24.10
 13.37    592.00     24.33
 13.47    567.00     23.81
 13.57    545.53     23.36
 13.67    542.00     23.28
 13.77    602.59     24.55
 13.87    575.00     23.98
 13.97    586.00     24.21
 14.07    549.49     23.44
 14.17    576.00     24.00
 14.27    553.00     23.52
 14.37    545.98     23.37
 14.47    545.58     23.36
 14.57    613.43     24.77
 14.67    569.00     23.85
 14.77    596.00     24.41
 14.87    580.00     24.08
 14.97    576.00     24.00
 15.07    561.00     23.69
 15.17    554.00     23.54
 15.27    574.37     23.97
 15.37    524.34     22.90
 15.47    547.00     23.39
 15.57    565.00     23.77
 15.67    559.00     23.64
 15.77    549.00     23.43
 15.87    523.20     22.87
 15.97    574.91     23.98
 16.07    561.00     23.69
 16.17    522.00     22.85
 16.27    593.00     24.35
 16.37    565.00     23.77
 16.47    583.00     24.15
 16.57    532.00     23.07
 16.67    586.29     24.21
 16.77    550.13     23.45
 16.87    561.46     23.70
 16.97    593.62     24.36
 17.07    539.00     23.22
 17.17    610.59     24.71
 17.27    578.00     24.04
 17.37    588.00     24.25
 17.47    568.00     23.83
 17.57    552.00     23.49
 17.67    604.97     24.60
 17.77    550.00     23.45
 17.87    544.32     23.33
 17.97    557.00     23.60
 18.07    597.76     24.45
 18.17    582.40     24.13
 18.27    548.00     23.41
 18.37    539.00     23.22
 18.47    559.00     23.64
 18.57    578.00     24.04
 18.67    578.00     24.04
 18.77    568.77     23.85
 18.87    603.82     24.57
 18.97    565.52     23.78
 19.07    540.00     23.24
 19.17    546.97     23.39
 19.27    574.00     23.96
 19.37    565.00     23.77
 19.47    557.00     23.60
 19.57    551.00     23.47
 19.67    520.10     22.81
 19.77    550.00     23.45
 19.87    553.00     23.52
 19.97    555.00     23.56
 20.07    550.25     23.46
 20.17    556.94     23.60
 20.27    573.00     23.94
 20.37    527.00     22.96
 20.47    564.00     23.75
 20.57    541.00     23.26
 20.67    530.00     23.02
 20.77    603.00     24.56
 20.87    583.00     24.15
 20.97    553.88     23.53
 21.07    534.00     23.11
 21.17    531.42     23.05
 21.27    543.00     23.30
 21.37    600.16     24.50
 21.47    563.00     23.73
 21.57    576.00     24.00
 21.67    518.19     22.76
 21.77    573.10     23.94
 21.87    542.05     23.28
 21.97    588.00     24.25
 22.07    577.08     24.02
 22.17    551.00     23.47
 22.27    533.65     23.10
 22.37    574.00     23.96
 22.47    542.73     23.30
 22.57    581.00     24.10
 22.67    512.05     22.63
 22.77    573.00     23.94
 22.87    556.00     23.58
 22.97    543.14     23.31
 23.07    564.00     23.75
 23.17    605.00     24.60
 23.27    543.00     23.30
 23.37    537.00     23.17
 23.47    512.68     22.64
 23.57    539.83     23.23
 23.67    539.00     23.22
 23.77    521.00     22.83
 23.87    554.00     23.54
 23.97    594.00     24.37
 24.07    582.80     24.14
 24.17    570.00     23.87
 24.27    555.61     23.57
 24.37    562.00     23.71
 24.47    545.00     23.35
 24.57    577.00     24.02
 24.67    615.00     24.80
 24.77    661.01     25.71
 24.87    670.00     25.88
 24.97    582.00     24.12
 25.07    597.00     24.43
 25.17    611.00     24.72
 25.27    559.00     23.64
 25.37    596.31     24.42
 25.47    579.69     24.08
 25.57    570.20     23.88
 25.67    522.00     22.85
 25.77    569.00     23.85
 25.87    553.00     23.52
 25.97    513.85     22.67
 26.07    562.38     23.71
 26.17    510.88     22.60
 26.27    517.73     22.75
 26.37    550.49     23.46
 26.47    534.00     23.11
 26.57    545.00     23.35
 26.67    535.00     23.13
 26.77    598.00     24.45
 26.87    584.78     24.18
 26.97    570.00     23.87
 27.07    574.23     23.96
 27.17    530.00     23.02
 27.27    535.00     23.13
 27.37    579.69     24.08
 27.47    564.00     23.75
 27.57    578.94     24.06
 27.67    516.49     22.73
 27.77    543.00     23.30
 27.87    556.00     23.58
 27.97    682.00     26.12
 28.07    790.00     28.11
 28.17    843.00     29.03
 28.27    972.84     31.19
 28.37    952.24     30.86
 28.47    805.31     28.38
 28.57    699.00     26.44
 28.67    724.83     26.92
 28.77    778.00     27.89
 28.87    837.00     28.93
 28.97    861.00     29.34
 29.07    769.00     27.73
 29.17    745.00     27.29
 29.27    618.00     24.86
 29.37    591.34     24.32
 29.47    588.00     24.25
 29.57    605.14     24.60
 29.67    640.00     25.30
 29.77    596.00     24.41
 29.87    571.00     23.90
 29.97    575.00     23.98
 30.07    528.35     22.99
 30.17    528.61     22.99
 30.27    539.05     23.22
 30.37    584.00     24.17
 30.47    568.00     23.83
 30.57    544.66     23.34
 30.67    614.00     24.78
 30.77    624.02     24.98
 30.87    628.00     25.06
 30.97    639.00     25.28
 31.07    639.00     25.28
 31.17    575.00     23.98
 31.27    572.00     23.92
 31.37    574.00     23.96
 31.47    558.00     23.62
 31.57    524.00     22.89
 31.67    534.00     23.11
 31.77    570.49     23.89
 31.87    555.40     23.57
 31.97    517.33     22.74
 32.07    543.00     23.30
 32.17    563.30     23.73
 32.27    529.41     23.01
 32.37    516.49     22.73
 32.47    555.00     23.56
 32.57    564.00     23.75
 32.67    557.27     23.61
 32.77    561.30     23.69
 32.87    522.00     22.85
 32.97    527.00     22.96
 33.07    556.90     23.60
 33.17    544.61     23.34
 33.27    511.35     22.61
 33.37    558.61     23.63
 33.47    523.59     22.88
 33.57    544.00     23.32
 33.67    633.00     25.16
 33.77    793.00     28.16
 33.87    876.82     29.61
 33.97   1033.00     32.14
 34.07   1051.47     32.43
 34.17   1020.00     31.94
 34.27    888.65     29.81
 34.37    764.00     27.64
 34.47    637.00     25.24
 34.57    571.52     23.91
 34.67    569.00     23.85
 34.77    498.00     22.32
 34.87    527.00     22.96
 34.97    515.00     22.69
 35.07    543.00     23.30
 35.17    551.00     23.47
 35.27    524.44     22.90
 35.37    546.00     23.37
 35.47    579.00     24.06
 35.57    527.42     22.97
 35.67    476.00     21.82
 35.77    491.72     22.17
 35.87    500.00     22.36
 35.97    500.00     22.36
 36.07    508.68     22.55
 36.17    500.23     22.37
 36.27    492.00     22.18
 36.37    515.00     22.69
 36.47    499.30     22.35
 36.57    468.00     21.63
 36.67    496.60     22.28
 36.77    481.00     21.93
 36.87    518.00     22.76
 36.97    488.60     22.10
 37.07    521.00     22.83
 37.17    515.00     22.69
 37.27    521.37     22.83
 37.37    519.22     22.79
 37.47    527.00     22.96
 37.57    532.00     23.07
 37.67    504.98     22.47
 37.77    505.00     22.47
 37.87    491.00     22.16
 37.97    533.00     23.09
 38.07    489.00     22.11
 38.17    508.43     22.55
 38.27    542.70     23.30
 38.37    462.00     21.49
 38.47    512.00     22.63
 38.57    539.00     23.22
 38.67    511.00     22.61
 38.77    518.61     22.77
 38.87    517.00     22.74
 38.97    540.00     23.24
 39.07    473.00     21.75
 39.17    458.00     21.40
 39.27    457.00     21.38
 39.37    461.17     21.47
 39.47    501.00     22.38
 39.57    529.00     23.00
 39.67    475.00     21.79
 39.77    524.00     22.89
 39.87    516.00     22.72
 39.97    509.00     22.56
 40.07    462.54     21.51
 40.17    522.95     22.87
 40.27    510.00     22.58
 40.37    546.00     23.37
 40.47    459.07     21.43
 40.57    506.26     22.50
 40.67    537.00     23.17
 40.77    526.46     22.94
 40.87    513.16     22.65
 40.97    537.38     23.18
 41.07    498.65     22.33
 41.17    508.74     22.56
 41.27    528.00     22.98
 41.37    514.00     22.67
 41.47    481.00     21.93
 41.57    445.00     21.10
 41.67    509.00     22.56
 41.77    501.47     22.39
 41.87    496.00     22.27
 41.97    505.65     22.49
 42.07    509.00     22.56
 42.17    490.00     22.14
 42.27    526.00     22.93
 42.37    522.97     22.87
 42.47    604.54     24.59
 42.57    568.30     23.84
 42.67    647.00     25.44
 42.77    592.86     24.35
 42.87    603.00     24.56
 42.97    578.96     24.06
 43.07    549.00     23.43
 43.17    560.00     23.66
 43.27    541.02     23.26
 43.37    486.22     22.05
 43.47    487.00     22.07
 43.57    547.21     23.39
 43.67    504.28     22.46
 43.77    511.00     22.61
 43.87    549.00     23.43
 43.97    486.00     22.05
 44.07    487.00     22.07
 44.17    527.67     22.97
 44.27    534.00     23.11
 44.37    543.00     23.30
 44.47    516.24     22.72
 44.57    490.00     22.14
 44.67    490.78     22.15
 44.77    471.10     21.70
 44.87    475.66     21.81
 44.97    499.00     22.34
 45.07    550.00     23.45
 45.17    501.00     22.38
 45.27    527.00     22.96
 45.37    502.76     22.42
 45.47    544.00     23.32
 45.57    524.12     22.89
 45.67    474.00     21.77
 45.77    533.02     23.09
 45.87    497.00     22.29
 45.97    505.00     22.47
 46.07    535.00     23.13
 46.17    474.00     21.77
 46.27    541.71     23.27
 46.37    501.31     22.39
 46.47    526.00     22.93
 46.57    495.00     22.25
 46.67    515.00     22.69
 46.77    477.75     21.86
 46.87    482.00     21.95
 46.97    483.00     21.98
 47.07    508.00     22.54
 47.17    478.58     21.88
 47.27    514.22     22.68
 47.37    532.00     23.07
 47.47    566.65     23.80
 47.57    596.00     24.41
 47.67    614.59     24.79
 47.77    590.00     24.29
 47.87    606.00     24.62
 47.97    565.43     23.78
 48.07    570.00     23.87
 48.17    566.14     23.79
 48.27    593.63     24.36
 48.37    546.00     23.37
 48.47    513.00     22.65
 48.57    525.00     22.91
 48.67    531.83     23.06
 48.77    537.00     23.17
 48.87    576.60     24.01
 48.97    543.00     23.30
 49.07    557.88     23.62
 49.17    613.00     24.76
 49.27    599.44     24.48
 49.37    597.17     24.44
 49.47    728.00     26.98
 49.57    788.00     28.07
 49.67    923.20     30.38
 49.77   1103.00     33.21
 49.87   1507.92     38.83
 49.97   1841.00     42.91
 50.07   2236.00     47.29
 50.17   2435.00     49.35
 50.27   2423.00     49.22
 50.37   2329.02     48.26
 50.47   1867.00     43.21
 50.57   1415.00     37.62
 50.67   1067.23     32.67
 50.77    818.00     28.60
 50.87    731.00     27.04
 50.97    701.00     26.48
 51.07    642.80     25.35
 51.17    653.00     25.55
 51.27    597.00     24.43
 51.37    561.00     23.69
 51.47    535.89     23.15
 51.57    559.14     23.65
 51.67    563.98     23.75
 51.77    591.30     24.32
 51.87    530.00     23.02
 51.97    534.00     23.11
 52.07    541.00     23.26
 52.17    531.00     23.04
 52.27    506.00     22.49
 52.37    538.00     23.19
 52.47    531.19     23.05
 52.57    572.00     23.92
 52.67    584.76     24.18
 52.77    591.00     24.31
 52.87    627.00     25.04
 52.97    682.32     26.12
 53.07    747.02     27.33
 53.17    965.00     31.06
 53.27   1054.00     32.47
 53.37   1101.88     33.19
 53.47   1244.00     35.27
 53.57   1233.00     35.11
 53.67   1170.67     34.22
 53.77    944.00     30.72
 53.87    874.00     29.56
 53.97    747.00     27.33
 54.07    649.00     25.48
 54.17    630.00     25.10
 54.27    589.16     24.27
 54.37    601.00     24.52
 54.47    574.00     23.96
 54.57    558.00     23.62
 54.67    527.16     22.96
 54.77    549.00     23.43
 54.87    562.18     23.71
 54.97    566.00     23.79
 55.07    550.51     23.46
 55.17    586.00     24.21
 55.27    571.00     23.90
 55.37    538.26     23.20
 55.47    516.76     22.73
 55.57    562.00     23.71
 55.67    578.00     24.04
 55.77    638.00     25.26
 55.87    627.16     25.04
 55.97    635.00     25.20
 56.07    663.00     25.75
 56.17    731.00     27.04
 56.27    884.00     29.73
 56.37   1137.47     33.73
 56.47   1414.00     37.60
 56.57   1840.00     42.90
 56.67   2067.00     45.46
 56.77   2468.00     49.68
 56.87   2629.26     51.28
 56.97   2549.00     50.49
 57.07   2308.00     48.04
 57.17   2038.00     45.14
 57.27   1610.00     40.12
 57.37   1305.00     36.12
 57.47   1018.00     31.91
 57.57    853.98     29.22
 57.67    709.00     26.63
 57.77    683.00     26.13
 57.87    728.00     26.98
 57.97    641.00     25.32
 58.07    737.00     27.15
 58.17    677.00     26.02
 58.27    820.00     28.64
 58.37    803.00     28.34
 58.47    911.00     30.18
 58.57   1085.73     32.95
 58.67   1160.00     34.06
 58.77   1328.00     36.44
 58.87   1468.35     38.32
 58.97   1453.30     38.12
 59.07   1393.62     37.33
 59.17   1476.00     38.42
 59.27   1410.00     37.55
 59.37   1354.86     36.81
 59.47   1235.00     35.14
 59.57   1190.16     34.50
 59.67   1193.53     34.55
 59.77   1127.00     33.57
 59.87   1231.00     35.09
 59.97   1294.00     35.97
 60.07   1512.00     38.88
 60.17   1578.00     39.72
 60.27   1575.00     39.69
 60.37   1475.72     38.42
 60.47   1382.00     37.18
 60.57   1175.03     34.28
 60.67   1107.66     33.28
 60.77    893.00     29.88
 60.87    819.00     28.62
 60.97    678.23     26.04
 61.07    617.00     24.84
 61.17    583.00     24.15
 61.27    588.00     24.25
 61.37    689.24     26.25
 61.47    666.00     25.81
 61.57    773.00     27.80
 61.67    860.78     29.34
 61.77    987.00     31.42
 61.87   1085.00     32.94
 61.97   1284.27     35.84
 62.07   1311.00     36.21
 62.17   1373.00     37.05
 62.27   1384.00     37.20
 62.37   1265.00     35.57
 62.47   1143.00     33.81
 62.57   1100.34     33.17
 62.67    838.00     28.95
 62.77    821.38     28.66
 62.87    655.00     25.59
 62.97    659.34     25.68
 63.07    617.00     24.84
 63.17    589.00     24.27
 63.27    541.38     23.27
 63.37    591.89     24.33
 63.47    525.00     22.91
 63.57    608.00     24.66
 63.67    521.49     22.84
 63.77    594.23     24.38
 63.87    601.00     24.52
 63.97    640.00     25.30
 64.07    706.00     26.57
 64.17    795.00     28.20
 64.27    800.37     28.29
 64.37    871.00     29.51
 64.47    985.38     31.39
 64.57   1043.86     32.31
 64.67   1053.32     32.45
 64.77   1011.84     31.81
 64.87    993.00     31.51
 64.97    860.00     29.33
 65.07    844.00     29.05
 65.17    816.33     28.57
 65.27    716.00     26.76
 65.37    742.94     27.26
 65.47    631.00     25.12
 65.57    597.00     24.43
 65.67    631.00     25.12
 65.77    599.00     24.47
 65.87    583.00     24.15
 65.97    561.00     23.69
 66.07    575.00     23.98
 66.17    582.00     24.12
 66.27    499.00     22.34
 66.37    560.00     23.66
 66.47    528.02     22.98
 66.57    528.95     23.00
 66.67    539.02     23.22
 66.77    551.09     23.48
 66.87    614.00     24.78
 66.97    574.00     23.96
 67.07    617.17     24.84
 67.17    732.79     27.07
 67.27    768.22     27.72
 67.37    918.47     30.31
 67.47   1114.00     33.38
 67.57   1309.00     36.18
 67.67   1584.00     39.80
 67.77   1800.00     42.43
 67.87   2046.63     45.24
 67.97   2299.00     47.95
 68.07   2470.00     49.70
 68.17   2318.00     48.15
 68.27   2336.62     48.34
 68.37   2111.00     45.95
 68.47   1837.00     42.86
 68.57   1572.00     39.65
 68.67   1194.79     34.57
 68.77   1050.36     32.41
 68.87    941.00     30.68
 68.97    792.94     28.16
 69.07    669.00     25.87
 69.17    662.00     25.73
 69.27    665.00     25.79
 69.37    591.33     24.32
 69.47    534.20     23.11
 69.57    619.49     24.89
 69.67    522.24     22.85
 69.77    546.38     23.37
 69.87    574.00     23.96
 69.97    523.00     22.87
 70.07    567.00     23.81
 70.17    536.00     23.15
 70.27    558.44     23.63
 70.37    580.00     24.08
 70.47    531.33     23.05
 70.57    585.00     24.19
 70.67    585.03     24.19
 70.77    539.00     23.22
 70.87    626.00     25.02
 70.97    620.00     24.90
 71.07    627.00     25.04
 71.17    706.00     26.57
 71.27    792.00     28.14
 71.37    964.00     31.05
 71.47   1072.00     32.74
 71.57   1210.00     34.79
 71.67   1432.00     37.84
 71.77   1629.00     40.36
 71.87   1778.00     42.17
 71.97   1917.00     43.78
 72.07   1999.00     44.71
 72.17   1793.51     42.35
 72.27   1794.92     42.37
 72.37   1694.00     41.16
 72.47   1543.00     39.28
 72.57   1290.47     35.92
 72.67   1140.00     33.76
 72.77    984.00     31.37
 72.87    944.00     30.72
 72.97    784.00     28.00
 73.07    756.00     27.50
 73.17    656.00     25.61
 73.27    711.00     26.66
 73.37    640.00     25.30
 73.47    609.00     24.68
 73.57    685.60     26.18
 73.67    594.00     24.37
 73.77    562.86     23.72
 73.87    605.00     24.60
 73.97    597.00     24.43
 74.07    548.40     23.42
 74.17    606.00     24.62
 74.27    612.00     24.74
 74.37    602.00     24.54
 74.47    649.00     25.48
 74.57    586.62     24.22
 74.67    622.00     24.94
 74.77    633.00     25.16
 74.87    666.00     25.81
 74.97    624.00     24.98
 75.07    594.05     24.37
 75.17    622.00     24.94
 75.27    529.00     23.00
 75.37    523.00     22.87
 75.47    556.51     23.59
 75.57    560.51     23.68
 75.67    605.00     24.60
 75.77    583.00     24.15
 75.87    558.00     23.62
 75.97    583.49     24.16
 76.07    609.00     24.68
 76.17    639.51     25.29
 76.27    628.00     25.06
 76.37    685.00     26.17
 76.47    657.00     25.63
 76.57    704.08     26.53
 76.67    692.00     26.31
 76.77    692.00     26.31
 76.87    612.00     24.74
 76.97    628.00     25.06
 77.07    624.00     24.98
 77.17    588.60     24.26
 77.27    562.00     23.71
 77.37    573.00     23.94
 77.47    547.00     23.39
 77.57    545.00     23.35
 77.67    512.00     22.63
 77.77    555.11     23.56
 77.87    514.00     22.67
 77.97    518.00     22.76
 78.07    534.29     23.11
 78.17    551.53     23.48
 78.27    551.66     23.49
 78.37    481.74     21.95
 78.47    507.00     22.52
 78.57    537.00     23.17
 78.67    554.29     23.54
 78.77    546.00     23.37
 78.87    493.00     22.20
 78.97    549.93     23.45
 79.07    611.00     24.72
 79.17    498.00     22.32
 79.27    548.00     23.41
 79.37    486.03     22.05
 79.47    536.94     23.17
 79.57    519.78     22.80
 79.67    550.00     23.45
 79.77    516.48     22.73
 79.87    561.00     23.69
 79.97    538.16     23.20
 80.07    569.00     23.85
 80.17    566.50     23.80
 80.27    526.90     22.95
 80.37    560.00     23.66
 80.47    620.34     24.91
 80.57    632.77     25.15
 80.67    591.88     24.33
 80.77    613.00     24.76
 80.87    661.99     25.73
 80.97    660.00     25.69
 81.07    662.00     25.73
 81.17    725.89     26.94
 81.27    768.00     27.71
 81.37    765.22     27.66
 81.47    762.00     27.60
 81.57    735.00     27.11
 81.67    743.31     27.26
 81.77    714.69     26.73
 81.87    704.68     26.55
 81.97    721.00     26.85
 82.07    658.51     25.66
 82.17    705.90     26.57
 82.27    621.00     24.92
 82.37    625.64     25.01
 82.47    590.00     24.29
 82.57    615.85     24.82
 82.67    595.79     24.41
 82.77    534.77     23.13
 82.87    546.00     23.37
 82.97    517.00     22.74
 83.07    572.00     23.92
 83.17    530.00     23.02
 83.27    523.54     22.88
 83.37    513.61     22.66
 83.47    518.86     22.78
 83.57    552.00     23.49
 83.67    546.00     23.37
 83.77    551.00     23.47
 83.87    521.00     22.83
 83.97    615.00     24.80
 84.07    597.31     24.44
 84.17    596.00     24.41
 84.27    564.13     23.75
 84.37    541.00     23.26
 84.47    517.70     22.75
 84.57    604.98     24.60
 84.67    575.00     23.98
 84.77    575.59     23.99
 84.87    517.95     22.76
 84.97    508.00     22.54
 85.07    533.00     23.09
 85.17    542.26     23.29
 85.27    564.00     23.75
 85.37    504.00     22.45
 85.47    562.70     23.72
 85.57    531.40     23.05
 85.67    526.00     22.93
 85.77    532.00     23.07
 85.87    538.00     23.19
 85.97    515.00     22.69
 86.07    521.00     22.83
 86.17    527.00     22.96
 86.27    544.00     23.32
 86.37    568.00     23.83
 86.47    499.00     22.34
 86.57    598.00     24.45
 86.67    528.62     22.99
 86.77    614.75     24.79
 86.87    606.00     24.62
 86.97    562.54     23.72
 87.07    640.00     25.30
 87.17    646.00     25.42
 87.27    610.33     24.70
 87.37    617.67     24.85
 87.47    678.00     26.04
 87.57    653.00     25.55
 87.67    611.15     24.72
 87.77    611.00     24.72
 87.87    602.70     24.55
 87.97    621.83     24.94
 88.07    621.00     24.92
 88.17    581.00     24.10
 88.27    612.00     24.74
 88.37    531.58     23.06
 88.47    578.00     24.04
 88.57    596.00     24.41
 88.67    544.49     23.33
 88.77    637.00     25.24
 88.87    548.62     23.42
 88.97    610.00     24.70
 89.07    589.44     24.28
 89.17    639.02     25.28
 89.27    580.92     24.10
 89.37    593.70     24.37
 89.47    580.00     24.08
 89.57    592.00     24.33
 89.67    564.06     23.75
 89.77    600.00     24.49
 89.87    568.00     23.83
 89.97    607.57     24.65
 90.07    512.00     22.63
 90.17    522.95     22.87
 90.27    552.76     23.51
 90.37    567.96     23.83
 90.47    568.00     23.83
 90.57    570.00     23.87
 90.67    525.00     22.91
 90.77    553.00     23.52
 90.87    530.73     23.04
 90.97    538.00     23.19
 91.07    517.00     22.74
 91.17    484.00     22.00
 91.27    499.00     22.34
 91.37    520.96     22.82
 91.47    490.00     22.14
 91.57    574.21     23.96
 91.67    523.93     22.89
 91.77    529.38     23.01
 91.87    524.00     22.89
 91.97    516.45     22.73
 92.07    561.00     23.69
 92.17    587.67     24.24
 92.27    576.75     24.02
 92.37    583.00     24.15
 92.47    583.21     24.15
 92.57    645.00     25.40
 92.67    679.85     26.07
 92.77    668.00     25.85
 92.87    681.00     26.10
 92.97    776.46     27.87
 93.07    793.00     28.16
 93.17    812.35     28.50
 93.27    783.00     27.98
 93.37    756.00     27.50
 93.47    853.67     29.22
 93.57    783.73     28.00
 93.67    811.00     28.48
 93.77    815.00     28.55
 93.87    777.00     27.87
 93.97    827.00     28.76
 94.07    860.85     29.34
 94.17    871.00     29.51
 94.27    865.04     29.41
 94.37    871.00     29.51
 94.47    869.24     29.48
 94.57    918.42     30.31
 94.67    825.06     28.72
 94.77    948.00     30.79
 94.87    838.86     28.96
 94.97    882.00     29.70
 95.07    893.00     29.88
 95.17    861.00     29.34
 95.27    850.00     29.15
 95.37    793.00     28.16
 95.47    781.00     27.95
 95.57    751.00     27.40
 95.67    788.00     28.07
 95.77    689.00     26.25
 95.87    692.97     26.32
 95.97    665.04     25.79
 96.07    711.00     26.66
 96.17    713.13     26.70
 96.27    769.00     27.73
 96.37    789.00     28.09
 96.47    775.00     27.84
 96.57    850.00     29.15
 96.67    962.00     31.02
 96.77    996.00     31.56
 96.87   1033.00     32.14
 96.97   1075.51     32.79
 97.07   1179.58     34.35
 97.17   1287.16     35.88
 97.27   1306.00     36.14
 97.37   1318.00     36.30
 97.47   1364.00     36.93
 97.57   1434.00     37.87
 97.67   1388.99     37.27
 97.77   1377.00     37.11
 97.87   1321.00     36.35
 97.97   1247.00     35.31
 98.07   1197.00     34.60
 98.17   1139.00     33.75
 98.27   1087.00     32.97
 98.37   1020.00     31.94
 98.47    914.32     30.24
 98.57    901.76     30.03
 98.67    872.32     29.53
 98.77    794.00     28.18
 98.87    767.00     27.69
 98.97    800.00     28.28
 99.07    817.00     28.58
 99.17    881.00     29.68
 99.27    928.54     30.47
 99.37    905.80     30.10
 99.47    952.82     30.87
 99.57   1128.00     33.59
 99.67   1165.66     34.14
 99.77   1227.00     35.03
 99.87   1413.00     37.59
 99.97   1430.95     37.83
100.07   1664.00     40.79
100.17   1742.00     41.74
100.27   1841.00     42.91
100.37   1954.00     44.20
100.47   2043.00     45.20
100.57   2043.00     45.20
100.67   2095.12     45.77
100.77   2051.00     45.29
100.87   2059.00     45.38
100.97   1984.00     44.54
101.07   1944.00     44.09
101.17   1842.00     42.92
101.27   1830.00     42.78
101.37   1696.00     41.18
101.47   1589.00     39.86
101.57   1519.00     38.97
101.67   1426.00     37.76
101.77   1418.03     37.66
101.87   1339.07     36.59
101.97   1220.00     34.93
102.07   1273.75     35.69
102.17   1122.92     33.51
102.27   1165.58     34.14
102.37   1079.42     32.85
102.47   1165.52     34.14
102.57   1073.00     32.76
102.67   1044.92     32.33
102.77   1040.35     32.25
102.87    981.00     31.32
102.97    939.00     30.64
103.07    872.42     29.54
103.17    907.00     30.12
103.27    908.00     30.13
103.37    815.00     28.55
103.47    821.21     28.66
103.57    746.00     27.31
103.67    716.15     26.76
103.77    748.00     27.35
103.87    668.23     25.85
103.97    660.56     25.70
104.07    611.00     24.72
104.17    593.58     24.36
104.27    617.00     24.84
104.37    562.00     23.71
104.47    562.00     23.71
104.57    571.00     23.90
104.67    500.73     22.38
104.77    531.00     23.04
104.87    531.00     23.04
104.97    541.68     23.27
105.07    541.04     23.26
105.17    523.00     22.87
105.27    579.76     24.08
105.37    543.00     23.30
105.47    518.00     22.76
105.57    523.00     22.87
105.67    529.00     23.00
105.77    555.00     23.56
105.87    559.14     23.65
105.97    573.00     23.94
106.07    579.00     24.06
106.17    603.00     24.56
106.27    576.00     24.00
106.37    627.75     25.05
106.47    574.39     23.97
106.57    585.00     24.19
106.67    639.00     25.28
106.77    708.46     26.62
106.87    696.80     26.40
106.97    649.00     25.48
107.07    666.00     25.81
107.17    671.00     25.90
107.27    722.07     26.87
107.37    676.07     26.00
107.47    701.57     26.49
107.57    714.93     26.74
107.67    748.79     27.36
107.77    661.00     25.71
107.87    699.00     26.44
107.97    701.00     26.48
108.07    675.00     25.98
108.17    755.27     27.48
108.27    737.00     27.15
108.37    712.00     26.68
108.47    739.00     27.18
108.57    691.00     26.29
108.67    656.22     25.62
108.77    742.00     27.24
108.87    724.00     26.91
108.97    734.41     27.10
109.07    711.00     26.66
109.17    622.00     24.94
109.27    683.00     26.13
109.37    592.00     24.33
109.47    604.58     24.59
109.57    652.00     25.53
109.67    635.00     25.20
109.77    659.00     25.67
109.87    619.00     24.88
109.97    559.83     23.66
110.07    590.00     24.29
110.17    526.77     22.95
110.27    586.00     24.21
110.37    580.00     24.08
110.47    541.00     23.26
110.57    560.00     23.66
110.67    563.00     23.73
110.77    554.58     23.55
110.87    546.00     23.37
110.97    515.00     22.69
111.07    504.10     22.45
111.17    573.00     23.94
111.27    588.00     24.25
111.37    551.00     23.47
111.47    463.00     21.52
111.57    517.19     22.74
111.67    576.00     24.00
111.77    579.00     24.06
111.87    550.00     23.45
111.97    567.17     23.82
112.07    599.24     24.48
112.17    593.00     24.35
112.27    567.93     23.83
112.37    616.00     24.82
112.47    601.00     24.52
112.57    572.00     23.92
112.67    605.00     24.60
112.77    616.00     24.82
112.87    594.00     24.37
112.97    665.00     25.79
113.07    659.00     25.67
113.17    691.00     26.29
113.27    659.32     25.68
113.37    759.45     27.56
113.47    747.00     27.33
113.57    744.64     27.29
113.67    851.82     29.19
113.77    859.00     29.31
113.87    847.00     29.10
113.97    928.00     30.46
114.07    960.00     30.98
114.17   1054.00     32.47
114.27   1137.64     33.73
114.37   1209.00     34.77
114.47   1307.00     36.15
114.57   1436.32     37.90
114.67   1472.77     38.38
114.77   1709.10     41.34
114.87   1752.16     41.86
114.97   2027.00     45.02
115.07   2356.00     48.54
115.17   2623.00     51.22
115.27   2761.00     52.55
115.37   3073.00     55.43
115.47   3364.00     58.00
115.57   3744.00     61.19
115.67   4229.13     65.03
115.77   4398.00     66.32
115.87   4843.00     69.59
115.97   5288.00     72.72
116.07   5461.00     73.90
116.17   5943.04     77.09
116.27   6128.18     78.28
116.37   6625.00     81.39
116.47   6835.36     82.68
116.57   6926.00     83.22
116.67   7011.72     83.74
116.77   6837.00     82.69
116.87   6971.00     83.49
116.97   6441.23     80.26
117.07   6213.00     78.82
117.17   5979.32     77.33
117.27   5700.83     75.50
117.37   5260.89     72.53
117.47   4842.00     69.58
117.57   4579.00     67.67
117.67   4280.00     65.42
117.77   3938.00     62.75
117.87   3652.00     60.43
117.97   3198.00     56.55
118.07   2709.40     52.05
118.17   2566.86     50.66
118.27   2349.00     48.47
118.37   1946.00     44.11
118.47   1705.73     41.30
118.57   1578.00     39.72
118.67   1467.18     38.30
118.77   1235.00     35.14
118.87   1146.00     33.85
118.97   1019.00     31.92
119.07    949.00     30.81
119.17    950.60     30.83
119.27    874.00     29.56
119.37    761.00     27.59
119.47    741.00     27.22
119.57    753.00     27.44
119.67    658.00     25.65
119.77    692.00     26.31
119.87    660.00     25.69
119.97    657.00     25.63
120.07    594.00     24.37
120.17    654.88     25.59
120.27    614.00     24.78
120.37    606.47     24.63
120.47    610.27     24.70
120.57    632.90     25.16
120.67    564.00     23.75
120.77    570.00     23.87
120.87    558.00     23.62
120.97    550.00     23.45
121.07    546.00     23.37
121.17    590.00     24.29
121.27    615.61     24.81
121.37    560.00     23.66
121.47    602.00     24.54
121.57    616.00     24.82
121.67    621.84     24.94
121.77    596.00     24.41
121.87    636.00     25.22
121.97    604.00     24.58
122.07    631.00     25.12
122.17    599.44     24.48
122.27    644.00     25.38
122.37    595.00     24.39
122.47    594.30     24.38
122.57    631.00     25.12
122.67    657.36     25.64
122.77    633.03     25.16
122.87    693.00     26.32
122.97    668.29     25.85
123.07    690.00     26.27
123.17    677.00     26.02
123.27    644.00     25.38
123.37    665.00     25.79
123.47    666.98     25.83
123.57    630.22     25.10
123.67    611.00     24.72
123.77    607.00     24.64
123.87    628.23     25.06
123.97    648.14     25.46
124.07    627.00     25.04
124.17    628.55     25.07
124.27    609.00     24.68
124.37    625.00     25.00
124.47    564.79     23.77
124.57    590.00     24.29
124.67    639.00     25.28
124.77    588.13     24.25
124.87    541.00     23.26
124.97    575.00     23.98
