XYDATA



INTER 1.0 1.0 0 0
TEMP 692.54
  9.97    699.00     26.44
 10.07    688.00     26.23
 10.17    666.00     25.81
 10.27    653.84     25.57
 10.37    702.17     26.50
 10.47    677.71     26.03
 10.57    643.00     25.36
 10.67    669.00     25.87
 10.77    625.85     25.02
 10.87    656.00     25.61
 10.97    706.00     26.57
 11.07    592.63     24.34
 11.17    635.00     25.20
 11.27    677.00     26.02
 11.37    643.00     25.36
 11.47    634.65     25.19
 11.57    667.00     25.83
 11.67    665.27     25.79
 11.77    663.00     25.75
 11.87    736.00     27.13
 11.97    685.33     26.18
 12.07    770.00     27.75
 12.17    787.99     28.07
 12.27    816.94     28.58
 12.37    708.08     26.61
 12.47    751.00     27.40
 12.57    722.00     26.87
 12.67    678.00     26.04
 12.77    692.29     26.31
 12.87    669.00     25.87
 12.97    635.00     25.20
 13.07    593.15     24.35
 13.17    581.00     24.10
 13.27    654.30     25.58
 13.37    641.00     25.32
 13.47    586.00     24.21
 13.57    634.00     25.18
 13.67    591.46     24.32
 13.77    609.00     24.68
 13.87    654.00     25.57
 13.97    626.00     25.02
 14.07    663.00     25.75
 14.17    634.19     25.18
 14.27    670.44     25.89
 14.37    676.89     26.02
 14.47    602.00     24.54
 14.57    618.00     24.86
 14.67    580.00     24.08
 14.77    684.12     26.16
 14.87    629.00     25.08
 14.97    589.00     24.27
 15.07    619.92     24.90
 15.17    613.00     24.76
 15.27    618.00     24.86
 15.37    559.00     23.64
 15.47    657.00     25.63
 15.57    626.00     25.02
 15.67    612.98     24.76
 15.77    619.00     24.88
 15.87    607.45     24.65
 15.97    631.00     25.12
 16.07    603.00     24.56
 16.17    587.56     24.24
 16.27    610.61     24.71
 16.37    571.00     23.90
 16.47    639.31     25.28
 16.57    645.05     25.40
 16.67    639.00     25.28
 16.77    670.89     25.90
 16.87    614.34     24.79
 16.97    580.00     24.08
 17.07    604.00     24.58
 17.17    568.18     23.84
 17.27    635.00     25.20
 17.37    595.00     24.39
 17.47    619.38     24.89
 17.57    597.00     24.43
 17.67    597.00     24.43
 17.77    581.00     24.10
 17.87    615.00     24.80
 17.97    622.00     24.94
 18.07    632.73     25.15
 18.17    647.37     25.44
 18.27    658.63     25.66
 18.37    576.00     24.00
 18.47    565.87     23.79
 18.57    655.03     25.59
 18.67    592.99     24.35
 18.77    607.00     24.64
 18.87    603.62     24.57
 18.97    630.46     25.11
 19.07    569.00     23.85
 19.17    611.00     24.72
 19.27    619.00     24.88
 19.37    584.00     24.17
 19.47    666.23     25.81
 19.57    630.80     25.12
 19.67    613.00     24.76
 19.77    591.40     24.32
 19.87    631.37     25.13
 19.97    575.00     23.98
 20.07    566.00     23.79
 20.17    568.00     23.83
 20.27    658.86     25.67
 20.37    598.00     24.45
 20.47    611.00     24.72
 20.57    595.17     24.40
 20.67    605.00     24.60
 20.77    617.63     24.85
 20.87    603.33     24.56
 20.97    587.00     24.23
 21.07    610.24     24.70
 21.17    613.00     24.76
 21.27    562.00     23.71
 21.37    603.00     24.56
 21.47    614.00     24.78
 21.57    592.00     24.33
 21.67    567.00     23.81
 21.77    651.71     25.53
 21.87    589.41     24.28
 21.97    616.00     24.82
 22.07    621.00     24.92
 22.17    612.00     24.74
 22.27    587.00     24.23
 22.37    587.00     24.23
 22.47    602.00     24.54
 22.57    592.39     24.34
 22.67    612.93     24.76
 22.77    604.00     24.58
 22.87    594.00     24.37
 22.97    563.00     23.73
 23.07    609.00     24.68
 23.17    548.15     23.41
 23.27    583.00     24.15
 23.37    646.21     25.42
 23.47    653.00     25.55
 23.57    598.00     24.45
 23.67    585.00     24.19
 23.77    648.00     25.46
 23.87    621.00     24.92
 23.97    611.00     24.72
 24.07    604.00     24.58
 24.17    618.00     24.86
 24.27    620.00     24.90
 24.37    587.00     24.23
 24.47    641.00     25.32
 24.57    679.00     26.06
 24.67    686.00     26.19
 24.77    629.48     25.09
 24.87    678.00     26.04
 24.97    719.00     26.81
 25.07    716.57     26.77
 25.17    657.00     25.63
 25.27    684.63     26.17
 25.37    605.00     24.60
 25.47    587.66     24.24
 25.57    653.00     25.55
 25.67    613.00     24.76
 25.77    581.60     24.12
 25.87    633.00     25.16
 25.97    678.00     26.04
 26.07    633.88     25.18
 26.17    650.00     25.50
 26.27    664.00     25.77
 26.37    623.00     24.96
 26.47    619.00     24.88
 26.57    654.29     25.58
 26.67    571.39     23.90
 26.77    631.00     25.12
 26.87    654.00     25.57
 26.97    648.00     25.46
 27.07    651.65     25.53
 27.17    657.00     25.63
 27.27    624.66     24.99
 27.37    625.57     25.01
 27.47    693.22     26.33
 27.57    715.00     26.74
 27.67    752.00     27.42
 27.77    752.00     27.42
 27.87    855.00     29.24
 27.97   1194.60     34.56
 28.07   1481.62     38.49
 28.17   2111.00     45.95
 28.27   2757.82     52.51
 28.37   3380.52     58.14
 28.47   3129.08     55.94
 28.57   2669.00     51.66
 28.67   2042.00     45.19
 28.77   1858.81     43.11
 28.87   1882.80     43.39
 28.97   1929.99     43.93
 29.07   2165.66     46.54
 29.17   2109.70     45.93
 29.27   1633.00     40.41
 29.37   1360.25     36.88
 29.47   1060.00     32.56
 29.57    935.00     30.58
 29.67    776.00     27.86
 29.77    681.73     26.11
 29.87    748.00     27.35
 29.97    632.21     25.14
 30.07    630.90     25.12
 30.17    579.16     24.07
 30.27    614.31     24.79
 30.37    678.00     26.04
 30.47    638.00     25.26
 30.57    657.13     25.63
 30.67    682.00     26.12
 30.77    680.00     26.08
 30.87    666.00     25.81
 30.97    755.00     27.48
 31.07    736.00     27.13
 31.17    726.00     26.94
 31.27    663.96     25.77
 31.37    655.00     25.59
 31.47    654.00     25.57
 31.57    595.00     24.39
 31.67    616.09     24.82
 31.77    623.00     24.96
 31.87    581.00     24.10
 31.97    612.00     24.74
 32.07    574.07     23.96
 32.17    587.00     24.23
 32.27    609.00     24.68
 32.37    614.00     24.78
 32.47    623.41     24.97
 32.57    610.00     24.70
 32.67    603.00     24.56
 32.77    609.00     24.68
 32.87    605.00     24.60
 32.97    601.00     24.52
 33.07    587.00     24.23
 33.17    601.55     24.53
 33.27    610.00     24.70
 33.37    542.33     23.29
 33.47    623.00     24.96
 33.57    596.00     24.41
 33.67    615.00     24.80
 33.77    650.00     25.50
 33.87    693.04     26.33
 33.97    874.00     29.56
 34.07    940.00     30.66
 34.17   1094.95     33.09
 34.27   1044.89     32.32
 34.37   1096.26     33.11
 34.47    886.00     29.77
 34.57    848.43     29.13
 34.67    665.89     25.80
 34.77    657.00     25.63
 34.87    648.00     25.46
 34.97    587.00     24.23
 35.07    597.16     24.44
 35.17    596.26     24.42
 35.27    572.00     23.92
 35.37    546.00     23.37
 35.47    557.98     23.62
 35.57    581.00     24.10
 35.67    586.00     24.21
 35.77    584.00     24.17
 35.87    593.00     24.35
 35.97    537.84     23.19
 36.07    540.00     23.24
 36.17    555.00     23.56
 36.27    587.00     24.23
 36.37    591.00     24.31
 36.47    606.15     24.62
 36.57    563.00     23.73
 36.67    558.00     23.62
 36.77    579.00     24.06
 36.87    570.00     23.87
 36.97    533.00     23.09
 37.07    537.00     23.17
 37.17    595.05     24.39
 37.27    588.84     24.27
 37.37    544.90     23.34
 37.47    596.59     24.43
 37.57    557.41     23.61
 37.67    549.00     23.43
 37.77    531.02     23.04
 37.87    581.00     24.10
 37.97    586.00     24.21
 38.07    603.00     24.56
 38.17    597.69     24.45
 38.27    624.00     24.98
 38.37    607.00     24.64
 38.47    580.00     24.08
 38.57    530.00     23.02
 38.67    589.00     24.27
 38.77    562.00     23.71
 38.87    551.00     23.47
 38.97    611.00     24.72
 39.07    519.53     22.79
 39.17    530.06     23.02
 39.27    553.00     23.52
 39.37    501.06     22.38
 39.47    521.00     22.83
 39.57    532.00     23.07
 39.67    498.53     22.33
 39.77    586.48     24.22
 39.87    514.10     22.67
 39.97    508.00     22.54
 40.07    567.22     23.82
 40.17    490.00     22.14
 40.27    544.00     23.32
 40.37    520.66     22.82
 40.47    554.00     23.54
 40.57    501.00     22.38
 40.67    538.00     23.19
 40.77    483.00     21.98
 40.87    546.00     23.37
 40.97    523.00     22.87
 41.07    542.00     23.28
 41.17    555.60     23.57
 41.27    594.50     24.38
 41.37    547.00     23.39
 41.47    499.44     22.35
 41.57    521.00     22.83
 41.67    533.00     23.09
 41.77    527.00     22.96
 41.87    542.00     23.28
 41.97    601.64     24.53
 42.07    551.00     23.47
 42.17    518.00     22.76
 42.27    591.11     24.31
 42.37    509.00     22.56
 42.47    545.00     23.35
 42.57    573.00     23.94
 42.67    603.00     24.56
 42.77    603.00     24.56
 42.87    643.53     25.37
 42.97    690.03     26.27
 43.07    685.04     26.17
 43.17    594.00     24.37
 43.27    563.00     23.73
 43.37    496.00     22.27
 43.47    592.22     24.34
 43.57    596.00     24.41
 43.67    509.87     22.58
 43.77    468.00     21.63
 43.87    523.00     22.87
 43.97    533.00     23.09
 44.07    573.00     23.94
 44.17    544.22     23.33
 44.27    543.94     23.32
 44.37    561.00     23.69
 44.47    546.00     23.37
 44.57    566.35     23.80
 44.67    492.73     22.20
 44.77    534.63     23.12
 44.87    542.52     23.29
 44.97    521.51     22.84
 45.07    572.00     23.92
 45.17    542.00     23.28
 45.27    542.00     23.28
 45.37    555.75     23.57
 45.47    509.63     22.58
 45.57    521.60     22.84
 45.67    551.72     23.49
 45.77    543.00     23.30
 45.87    545.00     23.35
 45.97    568.27     23.84
 46.07    551.00     23.47
 46.17    514.00     22.67
 46.27    514.91     22.69
 46.37    543.04     23.30
 46.47    535.00     23.13
 46.57    561.94     23.71
 46.67    552.00     23.49
 46.77    575.83     24.00
 46.87    566.00     23.79
 46.97    573.00     23.94
 47.07    574.35     23.97
 47.17    540.94     23.26
 47.27    558.12     23.62
 47.37    534.07     23.11
 47.47    584.00     24.17
 47.57    551.00     23.47
 47.67    589.00     24.27
 47.77    575.53     23.99
 47.87    563.00     23.73
 47.97    639.00     25.28
 48.07    638.00     25.26
 48.17    615.21     24.80
 48.27    673.00     25.94
 48.37    598.59     24.47
 48.47    636.00     25.22
 48.57    586.00     24.21
 48.67    545.00     23.35
 48.77    605.00     24.60
 48.87    587.00     24.23
 48.97    575.71     23.99
 49.07    590.00     24.29
 49.17    582.00     24.12
 49.27    596.00     24.41
 49.37    622.00     24.94
 49.47    657.00     25.63
 49.57    668.00     25.85
 49.67    686.94     26.21
 49.77    772.00     27.78
 49.87    868.00     29.46
 49.97   1094.71     33.09
 50.07   1398.30     37.39
 50.17   1738.00     41.69
 50.27   2326.00     48.23
 50.37   2436.13     49.36
 50.47   2679.52     51.76
 50.57   2500.00     50.00
 50.67   2201.00     46.91
 50.77   1838.10     42.87
 50.87   1366.00     36.96
 50.97   1110.00     33.32
 51.07    900.00     30.00
 51.17    792.36     28.15
 51.27    768.86     27.73
 51.37    668.00     25.85
 51.47    700.00     26.46
 51.57    676.00     26.00
 51.67    674.00     25.96
 51.77    631.00     25.12
 51.87    649.00     25.48
 51.97    612.27     24.74
 52.07    641.00     25.32
 52.17    657.43     25.64
 52.27    622.00     24.94
 52.37    609.00     24.68
 52.47    611.00     24.72
 52.57    556.96     23.60
 52.67    628.00     25.06
 52.77    594.77     24.39
 52.87    666.00     25.81
 52.97    626.55     25.03
 53.07    652.94     25.55
 53.17    673.98     25.96
 53.27    742.31     27.25
 53.37    895.00     29.92
 53.47    929.00     30.48
 53.57   1041.34     32.27
 53.67   1138.00     33.73
 53.77   1272.31     35.67
 53.87   1164.51     34.12
 53.97   1191.00     34.51
 54.07   1160.67     34.07
 54.17    956.00     30.92
 54.27    875.00     29.58
 54.37    813.00     28.51
 54.47    745.00     27.29
 54.57    668.00     25.85
 54.67    613.00     24.76
 54.77    655.69     25.61
 54.87    612.74     24.75
 54.97    603.00     24.56
 55.07    658.00     25.65
 55.17    638.00     25.26
 55.27    590.00     24.29
 55.37    582.01     24.12
 55.47    648.70     25.47
 55.57    582.23     24.13
 55.67    605.00     24.60
 55.77    658.98     25.67
 55.87    658.00     25.65
 55.97    654.00     25.57
 56.07    695.00     26.36
 56.17    698.00     26.42
 56.27    723.00     26.89
 56.37    781.10     27.95
 56.47    871.00     29.51
 56.57   1054.00     32.47
 56.67   1288.00     35.89
 56.77   1520.19     38.99
 56.87   1896.00     43.54
 56.97   2205.00     46.96
 57.07   2423.00     49.22
 57.17   2660.00     51.58
 57.27   2462.00     49.62
 57.37   2253.13     47.47
 57.47   2149.71     46.37
 57.57   1663.00     40.78
 57.67   1520.38     38.99
 57.77   1167.00     34.16
 57.87    966.00     31.08
 57.97    833.52     28.87
 58.07    776.00     27.86
 58.17    759.00     27.55
 58.27    751.00     27.40
 58.37    764.00     27.64
 58.47    750.00     27.39
 58.57    875.00     29.58
 58.67    830.00     28.81
 58.77    924.00     30.40
 58.87   1061.51     32.58
 58.97   1131.00     33.63
 59.07   1216.00     34.87
 59.17   1274.00     35.69
 59.27   1301.00     36.07
 59.37   1253.20     35.40
 59.47   1232.00     35.10
 59.57   1313.00     36.24
 59.67   1207.37     34.75
 59.77   1121.50     33.49
 59.87   1105.00     33.24
 59.97   1159.88     34.06
 60.07   1180.00     34.35
 60.17   1315.00     36.26
 60.27   1429.00     37.80
 60.37   1365.74     36.96
 60.47   1591.00     39.89
 60.57   1655.00     40.68
 60.67   1414.95     37.62
 60.77   1519.00     38.97
 60.87   1225.54     35.01
 60.97   1174.00     34.26
 61.07   1031.00     32.11
 61.17    950.00     30.82
 61.27    821.08     28.65
 61.37    751.79     27.42
 61.47    796.01     28.21
 61.57    742.00     27.24
 61.67    770.00     27.75
 61.77    853.00     29.21
 61.87    978.00     31.27
 61.97    985.00     31.38
 62.07   1076.00     32.80
 62.17   1191.00     34.51
 62.27   1270.00     35.64
 62.37   1389.00     37.27
 62.47   1492.00     38.63
 62.57   1404.00     37.47
 62.67   1341.58     36.63
 62.77   1245.00     35.28
 62.87   1172.83     34.25
 62.97   1031.00     32.11
 63.07    946.58     30.77
 63.17    795.00     28.20
 63.27    699.00     26.44
 63.37    736.00     27.13
 63.47    625.00     25.00
 63.57    677.00     26.02
 63.67    589.00     24.27
 63.77    679.53     26.07
 63.87    606.04     24.62
 63.97    632.00     25.14
 64.07    677.00     26.02
 64.17    741.29     27.23
 64.27    772.00     27.78
 64.37    806.00     28.39
 64.47    841.00     29.00
 64.57    923.00     30.38
 64.67    920.62     30.34
 64.77   1136.00     33.70
 64.87   1056.60     32.51
 64.97   1255.00     35.43
 65.07   1208.00     34.76
 65.17   1213.42     34.83
 65.27   1153.28     33.96
 65.37   1069.00     32.70
 65.47    970.00     31.14
 65.57    938.00     30.63
 65.67    850.00     29.15
 65.77    854.82     29.24
 65.87    750.00     27.39
 65.97    676.56     26.01
 66.07    741.64     27.23
 66.17    664.09     25.77
 66.27    642.03     25.34
 66.37    619.61     24.89
 66.47    644.00     25.38
 66.57    614.00     24.78
 66.67    688.61     26.24
 66.77    691.71     26.30
 66.87    618.00     24.86
 66.97    628.00     25.06
 67.07    638.00     25.26
 67.17    639.00     25.28
 67.27    659.84     25.69
 67.37    675.34     25.99
 67.47    799.00     28.27
 67.57    882.26     29.70
 67.67    904.00     30.07
 67.77   1106.00     33.26
 67.87   1227.00     35.03
 67.97   1511.23     38.87
 68.07   1751.05     41.85
 68.17   1931.40     43.95
 68.27   2172.94     46.61
 68.37   2406.00     49.05
 68.47   2442.00     49.42
 68.57   2469.59     49.69
 68.67   2312.00     48.08
 68.77   2169.00     46.57
 68.87   1895.83     43.54
 68.97   1560.11     39.50
 69.07   1291.41     35.94
 69.17   1192.92     34.54
 69.27    963.00     31.03
 69.37    860.99     29.34
 69.47    845.00     29.07
 69.57    767.25     27.70
 69.67    724.00     26.91
 69.77    734.74     27.11
 69.87    621.13     24.92
 69.97    620.00     24.90
 70.07    603.00     24.56
 70.17    613.00     24.76
 70.27    645.30     25.40
 70.37    623.00     24.96
 70.47    573.49     23.95
 70.57    610.00     24.70
 70.67    630.00     25.10
 70.77    609.00     24.68
 70.87    654.00     25.57
 70.97    603.00     24.56
 71.07    614.00     24.78
 71.17    672.76     25.94
 71.27    719.00     26.81
 71.37    690.64     26.28
 71.47    731.47     27.05
 71.57    842.00     29.02
 71.67    947.00     30.77
 71.77   1061.00     32.57
 71.87   1193.00     34.54
 71.97   1399.00     37.40
 72.07   1583.00     39.79
 72.17   1634.00     40.42
 72.27   1748.00     41.81
 72.37   1859.95     43.13
 72.47   1899.00     43.58
 72.57   1887.00     43.44
 72.67   1803.00     42.46
 72.77   1678.64     40.97
 72.87   1448.00     38.05
 72.97   1284.00     35.83
 73.07   1111.00     33.33
 73.17   1089.57     33.01
 73.27    913.00     30.22
 73.37    812.00     28.50
 73.47    735.00     27.11
 73.57    725.13     26.93
 73.67    700.00     26.46
 73.77    662.46     25.74
 73.87    589.05     24.27
 73.97    673.00     25.94
 74.07    673.44     25.95
 74.17    562.88     23.73
 74.27    552.77     23.51
 74.37    578.00     24.04
 74.47    603.18     24.56
 74.57    561.73     23.70
 74.67    634.00     25.18
 74.77    647.00     25.44
 74.87    573.77     23.95
 74.97    672.00     25.92
 75.07    655.11     25.60
 75.17    721.00     26.85
 75.27    677.00     26.02
 75.37    652.94     25.55
 75.47    628.30     25.07
 75.57    595.89     24.41
 75.67    642.00     25.34
 75.77    646.52     25.43
 75.87    671.00     25.90
 75.97    577.00     24.02
 76.07    610.00     24.70
 76.17    647.00     25.44
 76.27    651.00     25.51
 76.37    724.00     26.91
 76.47    731.00     27.04
 76.57    682.00     26.12
 76.67    720.23     26.84
 76.77    769.48     27.74
 76.87    817.00     28.58
 76.97    807.85     28.42
 77.07    777.33     27.88
 77.17    806.00     28.39
 77.27    764.00     27.64
 77.37    736.00     27.13
 77.47    753.00     27.44
 77.57    639.68     25.29
 77.67    668.00     25.85
 77.77    603.00     24.56
 77.87    680.89     26.09
 77.97    653.21     25.56
 78.07    573.62     23.95
 78.17    621.23     24.92
 78.27    611.00     24.72
 78.37    570.00     23.87
 78.47    523.03     22.87
 78.57    571.00     23.90
 78.67    545.75     23.36
 78.77    562.00     23.71
 78.87    583.00     24.15
 78.97    613.58     24.77
 79.07    540.00     23.24
 79.17    530.46     23.03
 79.27    572.00     23.92
 79.37    515.00     22.69
 79.47    573.00     23.94
 79.57    615.68     24.81
 79.67    549.40     23.44
 79.77    576.39     24.01
 79.87    584.00     24.17
 79.97    523.51     22.88
 80.07    556.00     23.58
 80.17    556.00     23.58
 80.27    600.00     24.49
 80.37    616.00     24.82
 80.47    609.00     24.68
 80.57    636.14     25.22
 80.67    691.00     26.29
 80.77    679.55     26.07
 80.87    734.03     27.09
 80.97    815.02     28.55
 81.07    810.00     28.46
 81.17    867.00     29.44
 81.27    828.00     28.77
 81.37    865.21     29.41
 81.47    978.00     31.27
 81.57    937.98     30.63
 81.67    900.02     30.00
 81.77    924.71     30.41
 81.87    946.00     30.76
 81.97    891.60     29.86
 82.07    900.00     30.00
 82.17    843.00     29.03
 82.27    830.63     28.82
 82.37    835.00     28.90
 82.47    809.00     28.44
 82.57    723.00     26.89
 82.67    729.00     27.00
 82.77    652.00     25.53
 82.87    639.00     25.28
 82.97    647.31     25.44
 83.07    568.00     23.83
 83.17    601.00     24.52
 83.27    619.00     24.88
 83.37    538.00     23.19
 83.47    595.00     24.39
 83.57    635.84     25.22
 83.67    603.00     24.56
 83.77    575.00     23.98
 83.87    584.00     24.17
 83.97    575.00     23.98
 84.07    611.00     24.72
 84.17    554.00     23.54
 84.27    597.72     24.45
 84.37    591.00     24.31
 84.47    560.00     23.66
 84.57    575.00     23.98
 84.67    593.00     24.35
 84.77    590.00     24.29
 84.87    567.00     23.81
 84.97    579.00     24.06
 85.07    610.12     24.70
 85.17    607.00     24.64
 85.27    606.00     24.62
 85.37    548.00     23.41
 85.47    613.63     24.77
 85.57    615.85     24.82
 85.67    572.00     23.92
 85.77    578.00     24.04
 85.87    591.00     24.31
 85.97    605.00     24.60
 86.07    545.00     23.35
 86.17    547.00     23.39
 86.27    547.19     23.39
 86.37    574.14     23.96
 86.47    539.86     23.23
 86.57    620.00     24.90
 86.67    604.00     24.58
 86.77    580.81     24.10
 86.87    615.00     24.80
 86.97    607.00     24.64
 87.07    631.00     25.12
 87.17    628.00     25.06
 87.27    597.00     24.43
 87.37    629.00     25.08
 87.47    662.00     25.73
 87.57    631.77     25.14
 87.67    700.00     26.46
 87.77    677.00     26.02
 87.87    672.00     25.92
 87.97    671.00     25.90
 88.07    716.75     26.77
 88.17    690.00     26.27
 88.27    699.00     26.44
 88.37    604.40     24.58
 88.47    627.52     25.05
 88.57    608.00     24.66
 88.67    679.02     26.06
 88.77    623.00     24.96
 88.87    598.00     24.45
 88.97    602.00     24.54
 89.07    557.04     23.60
 89.17    597.00     24.43
 89.27    627.04     25.04
 89.37    647.62     25.45
 89.47    614.00     24.78
 89.57    651.00     25.51
 89.67    625.00     25.00
 89.77    572.17     23.92
 89.87    629.00     25.08
 89.97    626.27     25.03
 90.07    567.00     23.81
 90.17    596.00     24.41
 90.27    602.00     24.54
 90.37    623.27     24.97
 90.47    580.46     24.09
 90.57    565.00     23.77
 90.67    538.37     23.20
 90.77    589.00     24.27
 90.87    556.00     23.58
 90.97    584.02     24.17
 91.07    594.00     24.37
 91.17    611.02     24.72
 91.27    543.00     23.30
 91.37    547.38     23.40
 91.47    516.00     22.72
 91.57    577.72     24.04
 91.67    530.00     23.02
 91.77    526.00     22.93
 91.87    604.00     24.58
 91.97    514.00     22.67
 92.07    583.00     24.15
 92.17    528.95     23.00
 92.27    568.00     23.83
 92.37    562.00     23.71
 92.47    569.00     23.85
 92.57    626.00     25.02
 92.67    646.53     25.43
 92.77    596.00     24.41
 92.87    599.00     24.47
 92.97    604.23     24.58
 93.07    662.00     25.73
 93.17    707.42     26.60
 93.27    611.00     24.72
 93.37    741.00     27.22
 93.47    691.87     26.30
 93.57    712.00     26.68
 93.67    795.00     28.20
 93.77    758.00     27.53
 93.87    749.34     27.37
 93.97    798.00     28.25
 94.07    811.77     28.49
 94.17    848.00     29.12
 94.27    808.00     28.43
 94.37    910.55     30.18
 94.47    896.00     29.93
 94.57    884.00     29.73
 94.67    850.58     29.16
 94.77    912.00     30.20
 94.87    976.75     31.25
 94.97    906.00     30.10
 95.07    920.00     30.33
 95.17   1042.00     32.28
 95.27    993.00     31.51
 95.37    968.00     31.11
 95.47    926.27     30.43
 95.57    867.66     29.46
 95.67    929.00     30.48
 95.77    863.51     29.39
 95.87    852.00     29.19
 95.97    781.72     27.96
 96.07    837.00     28.93
 96.17    767.00     27.69
 96.27    740.00     27.20
 96.37    695.92     26.38
 96.47    750.00     27.39
 96.57    783.00     27.98
 96.67    739.00     27.18
 96.77    810.00     28.46
 96.87    790.00     28.11
 96.97    860.08     29.33
 97.07    917.00     30.28
 97.17    941.00     30.68
 97.27   1060.00     32.56
 97.37   1056.67     32.51
 97.47   1168.73     34.19
 97.57   1248.00     35.33
 97.67   1227.23     35.03
 97.77   1370.08     37.01
 97.87   1385.00     37.22
 97.97   1454.00     38.13
 98.07   1573.16     39.66
 98.17   1521.07     39.00
 98.27   1478.00     38.44
 98.37   1481.60     38.49
 98.47   1451.23     38.10
 98.57   1472.00     38.37
 98.67   1329.18     36.46
 98.77   1285.00     35.85
 98.87   1250.00     35.36
 98.97   1109.00     33.30
 99.07   1097.00     33.12
 99.17   1002.00     31.65
 99.27   1054.89     32.48
 99.37    947.00     30.77
 99.47    910.00     30.17
 99.57    927.64     30.46
 99.67    981.90     31.34
 99.77    963.00     31.03
 99.87    985.00     31.38
 99.97   1083.38     32.91
100.07   1133.00     33.66
100.17   1144.70     33.83
100.27   1300.15     36.06
100.37   1313.00     36.24
100.47   1456.00     38.16
100.57   1572.00     39.65
100.67   1588.07     39.85
100.77   1713.00     41.39
100.87   1757.67     41.92
100.97   1921.00     43.83
101.07   1926.00     43.89
101.17   1929.00     43.92
101.27   2022.00     44.97
101.37   1939.00     44.03
101.47   2079.28     45.60
101.57   1959.00     44.26
101.67   1910.29     43.71
101.77   1908.00     43.68
101.87   1946.00     44.11
101.97   1725.00     41.53
102.07   1741.00     41.73
102.17   1681.00     41.00
102.27   1566.53     39.58
102.37   1555.00     39.43
102.47   1441.00     37.96
102.57   1382.00     37.18
102.67   1373.85     37.07
102.77   1330.00     36.47
102.87   1373.32     37.06
102.97   1151.00     33.93
103.07   1221.00     34.94
103.17   1216.00     34.87
103.27   1143.79     33.82
103.37   1120.00     33.47
103.47   1085.00     32.94
103.57   1136.70     33.72
103.67   1038.00     32.22
103.77    966.00     31.08
103.87    993.00     31.51
103.97    938.43     30.63
104.07    960.00     30.98
104.17    903.00     30.05
104.27    813.92     28.53
104.37    732.00     27.06
104.47    722.00     26.87
104.57    733.84     27.09
104.67    708.85     26.62
104.77    645.60     25.41
104.87    666.00     25.81
104.97    628.33     25.07
105.07    596.42     24.42
105.17    667.00     25.83
105.27    639.00     25.28
105.37    564.17     23.75
105.47    571.66     23.91
105.57    513.05     22.65
105.67    549.00     23.43
105.77    556.00     23.58
105.87    541.00     23.26
105.97    542.08     23.28
106.07    541.00     23.26
106.17    541.70     23.27
106.27    552.00     23.49
106.37    585.00     24.19
106.47    594.84     24.39
106.57    578.00     24.04
106.67    565.37     23.78
106.77    604.47     24.59
106.87    602.23     24.54
106.97    623.00     24.96
107.07    643.00     25.36
107.17    640.00     25.30
107.27    667.00     25.83
107.37    660.00     25.69
107.47    716.00     26.76
107.57    713.17     26.71
107.67    718.43     26.80
107.77    704.30     26.54
107.87    713.74     26.72
107.97    776.00     27.86
108.07    688.00     26.23
108.17    730.09     27.02
108.27    773.41     27.81
108.37    725.00     26.93
108.47    721.00     26.85
108.57    684.00     26.15
108.67    729.49     27.01
108.77    721.00     26.85
108.87    732.32     27.06
108.97    693.80     26.34
109.07    780.23     27.93
109.17    704.08     26.53
109.27    715.00     26.74
109.37    763.00     27.62
109.47    707.00     26.59
109.57    682.51     26.12
109.67    728.00     26.98
109.77    754.61     27.47
109.87    668.49     25.86
109.97    748.00     27.35
110.07    712.00     26.68
110.17    676.00     26.00
110.27    647.03     25.44
110.37    693.00     26.32
110.47    655.00     25.59
110.57    652.00     25.53
110.67    704.46     26.54
110.77    652.00     25.53
110.87    630.36     25.11
110.97    631.00     25.12
111.07    638.58     25.27
111.17    593.42     24.36
111.27    605.00     24.60
111.37    607.00     24.64
111.47    629.89     25.10
111.57    524.99     22.91
111.67    564.87     23.77
111.77    529.99     23.02
111.87    558.00     23.62
111.97    603.00     24.56
112.07    568.00     23.83
112.17    584.00     24.17
112.27    572.00     23.92
112.37    563.00     23.73
112.47    577.00     24.02
112.57    544.71     23.34
112.67    600.00     24.49
112.77    543.00     23.30
112.87    575.00     23.98
112.97    572.00     23.92
113.07    566.00     23.79
113.17    613.00     24.76
113.27    583.00     24.15
113.37    567.00     23.81
113.47    632.00     25.14
113.57    602.00     24.54
113.67    594.00     24.37
113.77    578.00     24.04
113.87    617.00     24.84
113.97    642.00     25.34
114.07    622.09     24.94
114.17    652.00     25.53
114.27    694.18     26.35
114.37    722.32     26.88
114.47    733.00     27.07
114.57    779.00     27.91
114.67    806.00     28.39
114.77    828.00     28.77
114.87    834.00     28.88
114.97    995.46     31.55
115.07    994.00     31.53
115.17   1160.00     34.06
115.27   1226.00     35.01
115.37   1380.84     37.16
115.47   1543.00     39.28
115.57   1621.83     40.27
115.67   1992.00     44.63
115.77   2179.59     46.69
115.87   2364.00     48.62
115.97   2745.00     52.39
116.07   3095.00     55.63
116.17   3455.00     58.78
116.27   3781.00     61.49
116.37   4041.00     63.57
116.47   4438.01     66.62
116.57   4729.00     68.77
116.67   5144.17     71.72
116.77   5457.00     73.87
116.87   5800.45     76.16
116.97   6378.00     79.86
117.07   6580.00     81.12
117.17   6817.34     82.57
117.27   6939.00     83.30
117.37   7057.78     84.01
117.47   7174.00     84.70
117.57   7198.77     84.85
117.67   7184.67     84.76
117.77   7119.95     84.38
117.87   6729.00     82.03
117.97   6469.86     80.44
118.07   6151.70     78.43
118.17   5965.09     77.23
118.27   5357.00     73.19
118.37   5288.48     72.72
118.47   4715.00     68.67
118.57   4435.96     66.60
118.67   4056.00     63.69
118.77   3810.00     61.73
118.87   3450.00     58.74
118.97   3103.00     55.70
119.07   2798.00     52.90
119.17   2470.00     49.70
119.27   2329.96     48.27
119.37   2046.00     45.23
119.47   1861.11     43.14
119.57   1657.00     40.71
119.67   1527.60     39.08
119.77   1427.00     37.78
119.87   1325.00     36.40
119.97   1205.03     34.71
120.07   1177.00     34.31
120.17   1032.00     32.12
120.27   1073.00     32.76
120.37    860.11     29.33
120.47    859.37     29.32
120.57    802.00     28.32
120.67    797.89     28.25
120.77    787.00     28.05
120.87    744.00     27.28
120.97    700.00     26.46
121.07    681.00     26.10
121.17    677.00     26.02
121.27    683.00     26.13
121.37    673.00     25.94
121.47    609.00     24.68
121.57    618.00     24.86
121.67    645.00     25.40
121.77    617.16     24.84
121.87    643.00     25.36
121.97    659.21     25.68
122.07    595.00     24.39
122.17    689.43     26.26
122.27    705.81     26.57
122.37    651.30     25.52
122.47    680.00     26.08
122.57    624.93     25.00
122.67    663.47     25.76
122.77    651.00     25.51
122.87    651.00     25.51
122.97    662.00     25.73
123.07    637.99     25.26
123.17    663.00     25.75
123.27    728.44     26.99
123.37    709.91     26.64
123.47    730.00     27.02
123.57    686.00     26.19
123.67    724.18     26.91
123.77    706.06     26.57
123.87    725.00     26.93
123.97    673.39     25.95
124.07    745.00     27.29
124.17    697.00     26.40
124.27    714.00     26.72
124.37    698.00     26.42
124.47    648.26     25.46
124.57    688.00     26.23
124.67    696.00     26.38
124.77    656.00     25.61
124.87    641.86     25.33
124.97    670.00     25.88
