XYDATA



INTER 1.0 1.0 0 0
TEMP 1074.0
  9.97    659.00     25.67
 10.07    601.00     24.52
 10.17    564.00     23.75
 10.27    527.44     22.97
 10.37    607.00     24.64
 10.47    572.48     23.93
 10.57    540.45     23.25
 10.67    548.25     23.41
 10.77    622.00     24.94
 10.87    600.00     24.49
 10.97    615.52     24.81
 11.07    559.06     23.64
 11.17    576.00     24.00
 11.27    537.29     23.18
 11.37    594.00     24.37
 11.47    608.02     24.66
 11.57    587.00     24.23
 11.67    573.00     23.94
 11.77    636.93     25.24
 11.87    589.46     24.28
 11.97    712.00     26.68
 12.07    670.00     25.88
 12.17    688.00     26.23
 12.27    697.54     26.41
 12.37    639.00     25.28
 12.47    652.00     25.53
 12.57    582.36     24.13
 12.67    578.00     24.04
 12.77    554.00     23.54
 12.87    584.00     24.17
 12.97    576.00     24.00
 13.07    621.14     24.92
 13.17    539.00     23.22
 13.27    581.00     24.10
 13.37    575.66     23.99
 13.47    562.00     23.71
 13.57    556.00     23.58
 13.67    554.00     23.54
 13.77    552.00     23.49
 13.87    553.00     23.52
 13.97    619.00     24.88
 14.07    559.00     23.64
 14.17    614.57     24.79
 14.27    565.16     23.77
 14.37    582.00     24.12
 14.47    518.00     22.76
 14.57    544.00     23.32
 14.67    553.05     23.52
 14.77    602.92     24.55
 14.87    601.52     24.53
 14.97    541.80     23.28
 15.07    517.00     22.74
 15.17    543.00     23.30
 15.27    584.00     24.17
 15.37    545.00     23.35
 15.47    545.00     23.35
 15.57    568.12     23.84
 15.67    529.00     23.00
 15.77    596.00     24.41
 15.87    533.78     23.10
 15.97    573.00     23.94
 16.07    544.50     23.33
 16.17    548.00     23.41
 16.27    572.00     23.92
 16.37    577.00     24.02
 16.47    539.92     23.24
 16.57    586.00     24.21
 16.67    601.00     24.52
 16.77    551.00     23.47
 16.87    536.25     23.16
 16.97    573.00     23.94
 17.07    539.36     23.22
 17.17    606.94     24.64
 17.27    578.89     24.06
 17.37    583.72     24.16
 17.47    507.00     22.52
 17.57    576.00     24.00
 17.67    514.00     22.67
 17.77    576.97     24.02
 17.87    503.00     22.43
 17.97    539.79     23.23
 18.07    569.00     23.85
 18.17    552.00     23.49
 18.27    571.00     23.90
 18.37    534.00     23.11
 18.47    515.00     22.69
 18.57    536.00     23.15
 18.67    540.00     23.24
 18.77    536.00     23.15
 18.87    585.00     24.19
 18.97    572.00     23.92
 19.07    526.74     22.95
 19.17    563.00     23.73
 19.27    545.00     23.35
 19.37    548.00     23.41
 19.47    562.34     23.71
 19.57    548.00     23.41
 19.67    561.00     23.69
 19.77    590.56     24.30
 19.87    588.47     24.26
 19.97    532.00     23.07
 20.07    587.37     24.24
 20.17    599.00     24.47
 20.27    526.00     22.93
 20.37    549.00     23.43
 20.47    544.00     23.32
 20.57    550.00     23.45
 20.67    554.00     23.54
 20.77    540.00     23.24
 20.87    600.00     24.49
 20.97    547.32     23.39
 21.07    578.00     24.04
 21.17    593.69     24.37
 21.27    557.00     23.60
 21.37    540.00     23.24
 21.47    506.70     22.51
 21.57    580.00     24.08
 21.67    533.00     23.09
 21.77    538.51     23.21
 21.87    600.00     24.49
 21.97    545.00     23.35
 22.07    564.00     23.75
 22.17    540.00     23.24
 22.27    576.00     24.00
 22.37    508.00     22.54
 22.47    583.85     24.16
 22.57    555.00     23.56
 22.67    555.00     23.56
 22.77    569.42     23.86
 22.87    535.00     23.13
 22.97    568.57     23.84
 23.07    545.00     23.35
 23.17    557.00     23.60
 23.27    560.72     23.68
 23.37    538.00     23.19
 23.47    545.00     23.35
 23.57    535.00     23.13
 23.67    549.00     23.43
 23.77    577.65     24.03
 23.87    545.00     23.35
 23.97    568.00     23.83
 24.07    585.00     24.19
 24.17    554.30     23.54
 24.27    514.97     22.69
 24.37    596.22     24.42
 24.47    591.00     24.31
 24.57    612.00     24.74
 24.67    605.00     24.60
 24.77    599.24     24.48
 24.87    659.42     25.68
 24.97    634.11     25.18
 25.07    590.00     24.29
 25.17    577.00     24.02
 25.27    544.00     23.32
 25.37    585.00     24.19
 25.47    522.00     22.85
 25.57    525.00     22.91
 25.67    584.00     24.17
 25.77    584.00     24.17
 25.87    498.00     22.32
 25.97    527.82     22.97
 26.07    570.04     23.88
 26.17    556.00     23.58
 26.27    540.00     23.24
 26.37    542.00     23.28
 26.47    586.00     24.21
 26.57    581.80     24.12
 26.67    549.00     23.43
 26.77    521.64     22.84
 26.87    537.00     23.17
 26.97    561.37     23.69
 27.07    555.61     23.57
 27.17    554.18     23.54
 27.27    562.00     23.71
 27.37    570.00     23.87
 27.47    517.99     22.76
 27.57    590.97     24.31
 27.67    554.07     23.54
 27.77    554.00     23.54
 27.87    598.00     24.45
 27.97    669.00     25.87
 28.07    739.00     27.18
 28.17    926.04     30.43
 28.27    993.69     31.52
 28.37    852.04     29.19
 28.47    798.00     28.25
 28.57    749.06     27.37
 28.67    694.00     26.34
 28.77    752.00     27.42
 28.87    801.34     28.31
 28.97    757.00     27.51
 29.07    765.00     27.66
 29.17    696.00     26.38
 29.27    695.00     26.36
 29.37    591.00     24.31
 29.47    626.00     25.02
 29.57    541.00     23.26
 29.67    627.00     25.04
 29.77    560.00     23.66
 29.87    598.41     24.46
 29.97    538.00     23.19
 30.07    543.00     23.30
 30.17    541.00     23.26
 30.27    543.00     23.30
 30.37    525.32     22.92
 30.47    559.23     23.65
 30.57    503.85     22.45
 30.67    536.72     23.17
 30.77    625.00     25.00
 30.87    601.00     24.52
 30.97    622.00     24.94
 31.07    616.20     24.82
 31.17    626.26     25.03
 31.27    538.00     23.19
 31.37    566.00     23.79
 31.47    535.00     23.13
 31.57    529.12     23.00
 31.67    578.00     24.04
 31.77    505.00     22.47
 31.87    506.00     22.49
 31.97    487.91     22.09
 32.07    564.00     23.75
 32.17    489.67     22.13
 32.27    544.00     23.32
 32.37    567.00     23.81
 32.47    532.00     23.07
 32.57    577.00     24.02
 32.67    537.00     23.17
 32.77    539.00     23.22
 32.87    552.00     23.49
 32.97    490.04     22.14
 33.07    559.38     23.65
 33.17    586.00     24.21
 33.27    587.00     24.23
 33.37    564.00     23.75
 33.47    551.82     23.49
 33.57    583.00     24.15
 33.67    649.00     25.48
 33.77    761.22     27.59
 33.87    921.00     30.35
 33.97   1035.26     32.18
 34.07   1064.21     32.62
 34.17   1032.99     32.14
 34.27    946.32     30.76
 34.37    764.00     27.64
 34.47    649.00     25.48
 34.57    580.01     24.08
 34.67    561.00     23.69
 34.77    576.18     24.00
 34.87    489.00     22.11
 34.97    495.97     22.27
 35.07    512.00     22.63
 35.17    497.00     22.29
 35.27    528.21     22.98
 35.37    486.00     22.05
 35.47    491.00     22.16
 35.57    473.44     21.76
 35.67    543.00     23.30
 35.77    488.00     22.09
 35.87    507.73     22.53
 35.97    558.00     23.62
 36.07    524.00     22.89
 36.17    518.00     22.76
 36.27    497.68     22.31
 36.37    513.00     22.65
 36.47    514.00     22.67
 36.57    510.00     22.58
 36.67    552.02     23.50
 36.77    487.00     22.07
 36.87    539.21     23.22
 36.97    516.54     22.73
 37.07    533.00     23.09
 37.17    537.89     23.19
 37.27    500.00     22.36
 37.37    543.00     23.30
 37.47    553.00     23.52
 37.57    567.00     23.81
 37.67    567.00     23.81
 37.77    539.00     23.22
 37.87    516.00     22.72
 37.97    520.00     22.80
 38.07    521.73     22.84
 38.17    493.00     22.20
 38.27    572.00     23.92
 38.37    528.65     22.99
 38.47    517.00     22.74
 38.57    505.00     22.47
 38.67    544.08     23.33
 38.77    516.47     22.73
 38.87    477.00     21.84
 38.97    477.00     21.84
 39.07    504.00     22.45
 39.17    494.00     22.23
 39.27    499.00     22.34
 39.37    473.24     21.75
 39.47    473.00     21.75
 39.57    499.00     22.34
 39.67    482.18     21.96
 39.77    484.00     22.00
 39.87    520.00     22.80
 39.97    481.00     21.93
 40.07    499.55     22.35
 40.17    547.34     23.40
 40.27    466.70     21.60
 40.37    478.00     21.86
 40.47    511.00     22.61
 40.57    518.00     22.76
 40.67    530.00     23.02
 40.77    489.00     22.11
 40.87    483.00     21.98
 40.97    523.00     22.87
 41.07    520.00     22.80
 41.17    487.00     22.07
 41.27    517.18     22.74
 41.37    547.38     23.40
 41.47    497.00     22.29
 41.57    474.00     21.77
 41.67    466.40     21.60
 41.77    482.02     21.95
 41.87    492.00     22.18
 41.97    484.00     22.00
 42.07    533.00     23.09
 42.17    528.00     22.98
 42.27    511.00     22.61
 42.37    501.00     22.38
 42.47    552.00     23.49
 42.57    655.47     25.60
 42.67    615.11     24.80
 42.77    594.00     24.37
 42.87    606.59     24.63
 42.97    557.00     23.60
 43.07    603.00     24.56
 43.17    526.01     22.93
 43.27    546.00     23.37
 43.37    529.00     23.00
 43.47    518.65     22.77
 43.57    485.00     22.02
 43.67    524.00     22.89
 43.77    482.00     21.95
 43.87    493.00     22.20
 43.97    486.66     22.06
 44.07    510.00     22.58
 44.17    505.07     22.47
 44.27    493.00     22.20
 44.37    499.32     22.35
 44.47    478.00     21.86
 44.57    503.00     22.43
 44.67    535.00     23.13
 44.77    545.99     23.37
 44.87    530.40     23.03
 44.97    490.00     22.14
 45.07    543.27     23.31
 45.17    491.00     22.16
 45.27    464.00     21.54
 45.37    523.00     22.87
 45.47    470.46     21.69
 45.57    508.00     22.54
 45.67    482.00     21.95
 45.77    515.00     22.69
 45.87    501.00     22.38
 45.97    517.00     22.74
 46.07    490.00     22.14
 46.17    502.00     22.41
 46.27    488.00     22.09
 46.37    516.06     22.72
 46.47    529.00     23.00
 46.57    512.00     22.63
 46.67    465.49     21.58
 46.77    562.00     23.71
 46.87    500.00     22.36
 46.97    519.00     22.78
 47.07    533.21     23.09
 47.17    484.00     22.00
 47.27    494.91     22.25
 47.37    533.00     23.09
 47.47    542.00     23.28
 47.57    541.00     23.26
 47.67    542.00     23.28
 47.77    632.00     25.14
 47.87    581.00     24.10
 47.97    593.22     24.36
 48.07    594.00     24.37
 48.17    586.00     24.21
 48.27    591.64     24.32
 48.37    500.45     22.37
 48.47    548.28     23.42
 48.57    486.00     22.05
 48.67    535.00     23.13
 48.77    530.85     23.04
 48.87    530.00     23.02
 48.97    573.00     23.94
 49.07    599.09     24.48
 49.17    546.00     23.37
 49.27    600.03     24.50
 49.37    673.00     25.94
 49.47    679.00     26.06
 49.57    786.00     28.04
 49.67    888.00     29.80
 49.77   1087.95     32.98
 49.87   1417.00     37.64
 49.97   1848.22     42.99
 50.07   2180.18     46.69
 50.17   2567.25     50.67
 50.27   2514.93     50.15
 50.37   2265.00     47.59
 50.47   1929.86     43.93
 50.57   1452.00     38.11
 50.67   1099.19     33.15
 50.77    842.51     29.03
 50.87    730.00     27.02
 50.97    709.91     26.64
 51.07    629.00     25.08
 51.17    601.40     24.52
 51.27    634.29     25.19
 51.37    584.00     24.17
 51.47    551.54     23.48
 51.57    520.92     22.82
 51.67    580.00     24.08
 51.77    497.44     22.30
 51.87    569.00     23.85
 51.97    580.00     24.08
 52.07    567.00     23.81
 52.17    567.40     23.82
 52.27    527.99     22.98
 52.37    524.63     22.90
 52.47    527.00     22.96
 52.57    556.00     23.58
 52.67    576.66     24.01
 52.77    626.71     25.03
 52.87    645.00     25.40
 52.97    753.00     27.44
 53.07    768.00     27.71
 53.17    942.00     30.69
 53.27   1067.00     32.66
 53.37   1136.66     33.71
 53.47   1198.00     34.61
 53.57   1152.55     33.95
 53.67   1124.18     33.53
 53.77    931.00     30.51
 53.87    845.00     29.07
 53.97    821.29     28.66
 54.07    725.03     26.93
 54.17    659.81     25.69
 54.27    576.00     24.00
 54.37    575.50     23.99
 54.47    595.00     24.39
 54.57    565.00     23.77
 54.67    563.00     23.73
 54.77    575.00     23.98
 54.87    526.00     22.93
 54.97    540.00     23.24
 55.07    510.97     22.60
 55.17    571.79     23.91
 55.27    591.71     24.33
 55.37    553.00     23.52
 55.47    554.00     23.54
 55.57    588.00     24.25
 55.67    582.00     24.12
 55.77    570.00     23.87
 55.87    650.87     25.51
 55.97    624.00     24.98
 56.07    721.00     26.85
 56.17    749.00     27.37
 56.27    923.00     30.38
 56.37   1097.00     33.12
 56.47   1514.40     38.92
 56.57   1764.19     42.00
 56.67   2118.00     46.02
 56.77   2566.54     50.66
 56.87   2597.00     50.96
 56.97   2655.00     51.53
 57.07   2328.99     48.26
 57.17   2054.00     45.32
 57.27   1689.00     41.10
 57.37   1238.23     35.19
 57.47   1087.39     32.98
 57.57    906.67     30.11
 57.67    717.26     26.78
 57.77    753.00     27.44
 57.87    735.00     27.11
 57.97    701.00     26.48
 58.07    697.00     26.40
 58.17    748.00     27.35
 58.27    795.00     28.20
 58.37    808.00     28.43
 58.47    921.40     30.35
 58.57   1080.00     32.86
 58.67   1239.00     35.20
 58.77   1273.00     35.68
 58.87   1432.00     37.84
 58.97   1439.23     37.94
 59.07   1503.00     38.77
 59.17   1516.00     38.94
 59.27   1355.25     36.81
 59.37   1390.00     37.28
 59.47   1177.77     34.32
 59.57   1185.00     34.42
 59.67   1204.00     34.70
 59.77   1211.09     34.80
 59.87   1194.00     34.55
 59.97   1361.00     36.89
 60.07   1447.68     38.05
 60.17   1546.00     39.32
 60.27   1664.00     40.79
 60.37   1602.00     40.02
 60.47   1461.00     38.22
 60.57   1229.09     35.06
 60.67   1119.00     33.45
 60.77    857.66     29.29
 60.87    752.00     27.42
 60.97    684.00     26.15
 61.07    635.00     25.20
 61.17    676.91     26.02
 61.27    666.00     25.81
 61.37    622.65     24.95
 61.47    654.00     25.57
 61.57    763.00     27.62
 61.67    891.00     29.85
 61.77   1012.00     31.81
 61.87   1083.00     32.91
 61.97   1209.00     34.77
 62.07   1309.00     36.18
 62.17   1369.00     37.00
 62.27   1329.00     36.46
 62.37   1280.20     35.78
 62.47   1169.00     34.19
 62.57   1027.00     32.05
 62.67    890.00     29.83
 62.77    757.95     27.53
 62.87    685.00     26.17
 62.97    646.00     25.42
 63.07    586.00     24.21
 63.17    537.59     23.19
 63.27    553.10     23.52
 63.37    605.60     24.61
 63.47    575.48     23.99
 63.57    543.00     23.30
 63.67    607.53     24.65
 63.77    556.41     23.59
 63.87    629.31     25.09
 63.97    619.09     24.88
 64.07    719.95     26.83
 64.17    785.00     28.02
 64.27    796.08     28.21
 64.37    913.00     30.22
 64.47    913.33     30.22
 64.57    969.28     31.13
 64.67   1054.00     32.47
 64.77   1031.00     32.11
 64.87    989.00     31.45
 64.97    933.89     30.56
 65.07    846.00     29.09
 65.17    821.53     28.66
 65.27    749.00     27.37
 65.37    722.00     26.87
 65.47    671.00     25.90
 65.57    633.00     25.16
 65.67    636.00     25.22
 65.77    587.00     24.23
 65.87    594.00     24.37
 65.97    542.00     23.28
 66.07    556.78     23.60
 66.17    530.00     23.02
 66.27    518.31     22.77
 66.37    562.00     23.71
 66.47    550.54     23.46
 66.57    611.04     24.72
 66.67    598.00     24.45
 66.77    594.14     24.37
 66.87    581.00     24.10
 66.97    632.28     25.15
 67.07    670.00     25.88
 67.17    689.58     26.26
 67.27    744.00     27.28
 67.37    847.67     29.11
 67.47   1034.00     32.16
 67.57   1306.00     36.14
 67.67   1558.00     39.47
 67.77   1870.13     43.25
 67.87   2016.65     44.91
 67.97   2260.00     47.54
 68.07   2494.00     49.94
 68.17   2378.58     48.77
 68.27   2333.36     48.30
 68.37   2022.00     44.97
 68.47   1829.59     42.77
 68.57   1536.00     39.19
 68.67   1309.92     36.19
 68.77   1060.00     32.56
 68.87    941.65     30.69
 68.97    742.00     27.24
 69.07    690.59     26.28
 69.17    687.00     26.21
 69.27    602.00     24.54
 69.37    613.00     24.76
 69.47    600.00     24.49
 69.57    540.72     23.25
 69.67    577.00     24.02
 69.77    598.00     24.45
 69.87    580.00     24.08
 69.97    532.00     23.07
 70.07    556.16     23.58
 70.17    583.86     24.16
 70.27    590.63     24.30
 70.37    570.00     23.87
 70.47    579.00     24.06
 70.57    603.00     24.56
 70.67    572.00     23.92
 70.77    575.00     23.98
 70.87    600.62     24.51
 70.97    644.00     25.38
 71.07    710.47     26.65
 71.17    708.00     26.61
 71.27    850.22     29.16
 71.37   1012.69     31.82
 71.47   1046.00     32.34
 71.57   1249.39     35.35
 71.67   1428.00     37.79
 71.77   1724.02     41.52
 71.87   1829.00     42.77
 71.97   1917.31     43.79
 72.07   1961.00     44.28
 72.17   1867.00     43.21
 72.27   1747.56     41.80
 72.37   1674.04     40.91
 72.47   1497.00     38.69
 72.57   1334.72     36.53
 72.67   1134.03     33.68
 72.77   1058.38     32.53
 72.87    988.95     31.45
 72.97    853.48     29.21
 73.07    781.00     27.95
 73.17    762.00     27.60
 73.27    688.00     26.23
 73.37    670.41     25.89
 73.47    566.00     23.79
 73.57    589.00     24.27
 73.67    597.00     24.43
 73.77    586.00     24.21
 73.87    602.00     24.54
 73.97    594.00     24.37
 74.07    608.49     24.67
 74.17    597.00     24.43
 74.27    604.00     24.58
 74.37    665.00     25.79
 74.47    550.33     23.46
 74.57    591.00     24.31
 74.67    614.00     24.78
 74.77    644.00     25.38
 74.87    517.79     22.76
 74.97    565.29     23.78
 75.07    530.14     23.02
 75.17    564.00     23.75
 75.27    510.19     22.59
 75.37    576.00     24.00
 75.47    569.00     23.85
 75.57    547.51     23.40
 75.67    550.00     23.45
 75.77    560.03     23.66
 75.87    603.00     24.56
 75.97    621.00     24.92
 76.07    607.00     24.64
 76.17    617.00     24.84
 76.27    686.00     26.19
 76.37    701.00     26.48
 76.47    757.59     27.52
 76.57    692.00     26.31
 76.67    691.00     26.29
 76.77    693.00     26.32
 76.87    658.00     25.65
 76.97    644.00     25.38
 77.07    672.00     25.92
 77.17    568.00     23.83
 77.27    569.00     23.85
 77.37    595.00     24.39
 77.47    545.76     23.36
 77.57    584.43     24.18
 77.67    545.86     23.36
 77.77    481.00     21.93
 77.87    513.00     22.65
 77.97    498.97     22.34
 78.07    523.00     22.87
 78.17    474.00     21.77
 78.27    484.00     22.00
 78.37    549.00     23.43
 78.47    533.00     23.09
 78.57    495.16     22.25
 78.67    491.46     22.17
 78.77    528.00     22.98
 78.87    536.00     23.15
 78.97    548.49     23.42
 79.07    549.00     23.43
 79.17    496.40     22.28
 79.27    515.08     22.70
 79.37    513.00     22.65
 79.47    490.00     22.14
 79.57    531.00     23.04
 79.67    541.00     23.26
 79.77    580.00     24.08
 79.87    545.27     23.35
 79.97    536.10     23.15
 80.07    595.00     24.39
 80.17    559.37     23.65
 80.27    569.00     23.85
 80.37    599.00     24.47
 80.47    590.00     24.29
 80.57    582.80     24.14
 80.67    588.19     24.25
 80.77    650.00     25.50
 80.87    602.00     24.54
 80.97    689.00     26.25
 81.07    702.00     26.50
 81.17    712.00     26.68
 81.27    767.00     27.69
 81.37    789.00     28.09
 81.47    803.01     28.34
 81.57    756.00     27.50
 81.67    755.75     27.49
 81.77    752.54     27.43
 81.87    719.00     26.81
 81.97    700.00     26.46
 82.07    714.68     26.73
 82.17    629.97     25.10
 82.27    619.86     24.90
 82.37    633.00     25.16
 82.47    617.00     24.84
 82.57    567.00     23.81
 82.67    573.00     23.94
 82.77    574.95     23.98
 82.87    540.00     23.24
 82.97    571.73     23.91
 83.07    538.00     23.19
 83.17    535.00     23.13
 83.27    528.00     22.98
 83.37    526.00     22.93
 83.47    498.00     22.32
 83.57    542.00     23.28
 83.67    533.32     23.09
 83.77    550.00     23.45
 83.87    577.00     24.02
 83.97    613.59     24.77
 84.07    583.00     24.15
 84.17    608.90     24.68
 84.27    559.15     23.65
 84.37    530.66     23.04
 84.47    543.00     23.30
 84.57    546.00     23.37
 84.67    540.10     23.24
 84.77    501.00     22.38
 84.87    535.00     23.13
 84.97    508.96     22.56
 85.07    580.00     24.08
 85.17    531.00     23.04
 85.27    581.00     24.10
 85.37    544.00     23.32
 85.47    502.98     22.43
 85.57    493.00     22.20
 85.67    490.00     22.14
 85.77    494.57     22.24
 85.87    508.66     22.55
 85.97    518.02     22.76
 86.07    543.00     23.30
 86.17    507.00     22.52
 86.27    559.00     23.64
 86.37    568.55     23.84
 86.47    558.00     23.62
 86.57    552.00     23.49
 86.67    595.89     24.41
 86.77    620.10     24.90
 86.87    546.13     23.37
 86.97    628.00     25.06
 87.07    654.00     25.57
 87.17    591.36     24.32
 87.27    620.06     24.90
 87.37    669.00     25.87
 87.47    624.68     24.99
 87.57    653.00     25.55
 87.67    588.26     24.25
 87.77    608.07     24.66
 87.87    659.76     25.69
 87.97    645.75     25.41
 88.07    588.00     24.25
 88.17    595.00     24.39
 88.27    608.00     24.66
 88.37    593.00     24.35
 88.47    568.00     23.83
 88.57    612.87     24.76
 88.67    569.72     23.87
 88.77    584.00     24.17
 88.87    646.00     25.42
 88.97    613.00     24.76
 89.07    553.90     23.54
 89.17    627.00     25.04
 89.27    629.78     25.10
 89.37    596.00     24.41
 89.47    609.00     24.68
 89.57    592.91     24.35
 89.67    557.00     23.60
 89.77    560.00     23.66
 89.87    564.00     23.75
 89.97    569.14     23.86
 90.07    564.00     23.75
 90.17    531.57     23.06
 90.27    509.00     22.56
 90.37    544.00     23.32
 90.47    525.00     22.91
 90.57    509.00     22.56
 90.67    486.00     22.05
 90.77    491.00     22.16
 90.87    545.00     23.35
 90.97    513.51     22.66
 91.07    512.00     22.63
 91.17    534.39     23.12
 91.27    531.00     23.04
 91.37    525.00     22.91
 91.47    546.00     23.37
 91.57    546.43     23.38
 91.67    544.29     23.33
 91.77    589.76     24.28
 91.87    542.00     23.28
 91.97    537.00     23.17
 92.07    523.35     22.88
 92.17    559.00     23.64
 92.27    569.36     23.86
 92.37    593.00     24.35
 92.47    649.30     25.48
 92.57    652.00     25.53
 92.67    665.00     25.79
 92.77    697.00     26.40
 92.87    674.00     25.96
 92.97    710.16     26.65
 93.07    705.00     26.55
 93.17    793.00     28.16
 93.27    762.00     27.60
 93.37    794.31     28.18
 93.47    780.00     27.93
 93.57    861.00     29.34
 93.67    831.88     28.84
 93.77    847.00     29.10
 93.87    875.00     29.58
 93.97    791.43     28.13
 94.07    808.00     28.43
 94.17    841.20     29.00
 94.27    885.00     29.75
 94.37    888.00     29.80
 94.47    930.00     30.50
 94.57    907.00     30.12
 94.67    821.32     28.66
 94.77    879.69     29.66
 94.87    972.00     31.18
 94.97    927.00     30.45
 95.07    869.36     29.48
 95.17    868.00     29.46
 95.27    818.00     28.60
 95.37    825.00     28.72
 95.47    798.44     28.26
 95.57    727.57     26.97
 95.67    744.00     27.28
 95.77    740.67     27.22
 95.87    705.05     26.55
 95.97    707.00     26.59
 96.07    668.00     25.85
 96.17    714.00     26.72
 96.27    741.00     27.22
 96.37    762.00     27.60
 96.47    800.00     28.28
 96.57    869.28     29.48
 96.67    882.32     29.70
 96.77    948.95     30.81
 96.87   1058.00     32.53
 96.97   1130.00     33.62
 97.07   1242.00     35.24
 97.17   1225.33     35.00
 97.27   1345.27     36.68
 97.37   1447.98     38.05
 97.47   1375.00     37.08
 97.57   1408.00     37.52
 97.67   1403.00     37.46
 97.77   1312.35     36.23
 97.87   1294.76     35.98
 97.97   1261.00     35.51
 98.07   1253.92     35.41
 98.17   1179.00     34.34
 98.27   1076.00     32.80
 98.37    994.00     31.53
 98.47    961.48     31.01
 98.57    925.00     30.41
 98.67    893.00     29.88
 98.77    814.00     28.53
 98.87    856.38     29.26
 98.97    811.00     28.48
 99.07    786.40     28.04
 99.17    800.00     28.28
 99.27    889.00     29.82
 99.37    954.40     30.89
 99.47    953.00     30.87
 99.57   1075.00     32.79
 99.67   1222.00     34.96
 99.77   1254.68     35.42
 99.87   1435.00     37.88
 99.97   1576.94     39.71
100.07   1707.00     41.32
100.17   1730.62     41.60
100.27   1762.44     41.98
100.37   1951.00     44.17
100.47   2070.00     45.50
100.57   2038.00     45.14
100.67   2046.07     45.23
100.77   2202.00     46.93
100.87   2012.46     44.86
100.97   2025.00     45.00
101.07   2028.00     45.03
101.17   1867.00     43.21
101.27   1766.00     42.02
101.37   1645.95     40.57
101.47   1645.20     40.56
101.57   1484.00     38.52
101.67   1439.00     37.93
101.77   1327.64     36.44
101.87   1282.00     35.81
101.97   1166.00     34.15
102.07   1188.00     34.47
102.17   1223.88     34.98
102.27   1090.87     33.03
102.37   1148.00     33.88
102.47   1088.00     32.98
102.57   1132.68     33.66
102.67    994.00     31.53
102.77    976.00     31.24
102.87   1007.85     31.75
102.97   1017.50     31.90
103.07    905.09     30.08
103.17    867.00     29.44
103.27    822.50     28.68
103.37    800.00     28.28
103.47    818.00     28.60
103.57    748.00     27.35
103.67    674.00     25.96
103.77    647.90     25.45
103.87    637.00     25.24
103.97    614.00     24.78
104.07    622.00     24.94
104.17    559.54     23.65
104.27    582.86     24.14
104.37    556.25     23.59
104.47    570.71     23.89
104.57    551.23     23.48
104.67    533.00     23.09
104.77    570.00     23.87
104.87    534.17     23.11
104.97    549.00     23.43
105.07    554.00     23.54
105.17    577.00     24.02
105.27    514.22     22.68
105.37    531.00     23.04
105.47    560.00     23.66
105.57    503.00     22.43
105.67    575.00     23.98
105.77    550.00     23.45
105.87    557.00     23.60
105.97    601.60     24.53
106.07    587.00     24.23
106.17    559.89     23.66
106.27    575.00     23.98
106.37    612.00     24.74
106.47    598.00     24.45
106.57    603.53     24.57
106.67    644.00     25.38
106.77    675.82     26.00
106.87    660.00     25.69
106.97    665.00     25.79
107.07    651.00     25.51
107.17    672.00     25.92
107.27    650.00     25.50
107.37    681.00     26.10
107.47    698.83     26.44
107.57    739.52     27.19
107.67    665.77     25.80
107.77    722.25     26.87
107.87    672.00     25.92
107.97    710.00     26.65
108.07    703.72     26.53
108.17    662.00     25.73
108.27    722.22     26.87
108.37    675.00     25.98
108.47    710.34     26.65
108.57    662.00     25.73
108.67    649.73     25.49
108.77    640.60     25.31
108.87    661.00     25.71
108.97    695.00     26.36
109.07    675.64     25.99
109.17    698.12     26.42
109.27    686.00     26.19
109.37    644.42     25.39
109.47    624.00     24.98
109.57    655.00     25.59
109.67    600.00     24.49
109.77    623.69     24.97
109.87    575.00     23.98
109.97    577.34     24.03
110.07    609.00     24.68
110.17    559.49     23.65
110.27    613.00     24.76
110.37    521.00     22.83
110.47    534.18     23.11
110.57    577.00     24.02
110.67    546.00     23.37
110.77    536.00     23.15
110.87    540.07     23.24
110.97    493.73     22.22
111.07    544.00     23.32
111.17    539.00     23.22
111.27    505.08     22.47
111.37    495.18     22.25
111.47    523.00     22.87
111.57    519.00     22.78
111.67    554.47     23.55
111.77    555.00     23.56
111.87    598.00     24.45
111.97    547.52     23.40
112.07    582.00     24.12
112.17    574.00     23.96
112.27    579.25     24.07
112.37    633.00     25.16
112.47    608.30     24.66
112.57    566.00     23.79
112.67    582.00     24.12
112.77    635.66     25.21
112.87    672.00     25.92
112.97    692.00     26.31
113.07    684.00     26.15
113.17    660.00     25.69
113.27    740.00     27.20
113.37    781.21     27.95
113.47    736.00     27.13
113.57    783.00     27.98
113.67    813.49     28.52
113.77    869.00     29.48
113.87    878.00     29.63
113.97    979.00     31.29
114.07   1052.39     32.44
114.17   1066.88     32.66
114.27   1186.13     34.44
114.37   1189.00     34.48
114.47   1242.61     35.25
114.57   1441.00     37.96
114.67   1563.36     39.54
114.77   1665.19     40.81
114.87   1941.22     44.06
114.97   2214.00     47.05
115.07   2360.00     48.58
115.17   2599.00     50.98
115.27   2785.00     52.77
115.37   3001.88     54.79
115.47   3452.00     58.75
115.57   3727.14     61.05
115.67   4154.03     64.45
115.77   4520.00     67.23
115.87   4885.98     69.90
115.97   5264.64     72.56
116.07   5617.00     74.95
116.17   6157.96     78.47
116.27   6225.00     78.90
116.37   6539.52     80.87
116.47   6816.00     82.56
116.57   6981.00     83.55
116.67   7031.00     83.85
116.77   6931.55     83.26
116.87   6785.00     82.37
116.97   6548.00     80.92
117.07   6342.00     79.64
117.17   6149.00     78.42
117.27   5899.93     76.81
117.37   5262.00     72.54
117.47   4989.64     70.64
117.57   4583.00     67.70
117.67   4297.00     65.55
117.77   3925.20     62.65
117.87   3529.00     59.41
117.97   3061.48     55.33
118.07   2897.79     53.83
118.17   2491.00     49.91
118.27   2227.00     47.19
118.37   1998.00     44.70
118.47   1735.11     41.65
118.57   1503.14     38.77
118.67   1403.00     37.46
118.77   1264.37     35.56
118.87   1148.00     33.88
118.97    980.00     31.30
119.07    960.00     30.98
119.17    901.00     30.02
119.27    865.10     29.41
119.37    807.00     28.41
119.47    733.05     27.07
119.57    706.00     26.57
119.67    730.45     27.03
119.77    673.34     25.95
119.87    626.00     25.02
119.97    635.19     25.20
120.07    600.00     24.49
120.17    670.00     25.88
120.27    633.25     25.16
120.37    572.00     23.92
120.47    575.00     23.98
120.57    613.37     24.77
120.67    561.00     23.69
120.77    590.00     24.29
120.87    549.00     23.43
120.97    532.00     23.07
121.07    572.00     23.92
121.17    573.00     23.94
121.27    558.00     23.62
121.37    552.00     23.49
121.47    574.00     23.96
121.57    561.00     23.69
121.67    562.89     23.73
121.77    619.00     24.88
121.87    635.54     25.21
121.97    608.00     24.66
122.07    636.00     25.22
122.17    618.00     24.86
122.27    614.00     24.78
122.37    648.34     25.46
122.47    620.00     24.90
122.57    650.00     25.50
122.67    629.00     25.08
122.77    636.00     25.22
122.87    589.48     24.28
122.97    683.33     26.14
123.07    619.42     24.89
123.17    629.17     25.08
123.27    666.00     25.81
123.37    671.00     25.90
123.47    651.00     25.51
123.57    659.00     25.67
123.67    683.00     26.13
123.77    623.99     24.98
123.87    589.48     24.28
123.97    624.00     24.98
124.07    601.00     24.52
124.17    596.00     24.41
124.27    599.00     24.47
124.37    597.76     24.45
124.47    657.00     25.63
124.57    568.05     23.83
124.67    565.00     23.77
124.77    598.67     24.47
124.87    583.00     24.15
124.97    545.52     23.36
