XYDATA



INTER 1.0 1.0 0 0
TEMP 449.745
  9.97    742.29     27.25
 10.07    701.86     26.49
 10.17    698.34     26.43
 10.27    730.49     27.03
 10.37    763.62     27.63
 10.47    741.00     27.22
 10.57    730.00     27.02
 10.67    742.53     27.25
 10.77    731.00     27.04
 10.87    749.00     27.37
 10.97    698.72     26.43
 11.07    740.00     27.20
 11.17    702.20     26.50
 11.27    760.00     27.57
 11.37    788.00     28.07
 11.47    783.00     27.98
 11.57    726.00     26.94
 11.67    753.00     27.44
 11.77    738.00     27.17
 11.87    717.28     26.78
 11.97    721.02     26.85
 12.07    827.00     28.76
 12.17    884.00     29.73
 12.27    787.69     28.07
 12.37    869.94     29.49
 12.47    865.00     29.41
 12.57    818.00     28.60
 12.67    741.00     27.22
 12.77    797.73     28.24
 12.87    708.55     26.62
 12.97    726.00     26.94
 13.07    727.00     26.96
 13.17    716.61     26.77
 13.27    681.60     26.11
 13.37    719.00     26.81
 13.47    757.62     27.52
 13.57    712.00     26.68
 13.67    686.00     26.19
 13.77    699.00     26.44
 13.87    736.06     27.13
 13.97    715.00     26.74
 14.07    714.00     26.72
 14.17    719.00     26.81
 14.27    692.00     26.31
 14.37    708.01     26.61
 14.47    685.97     26.19
 14.57    722.00     26.87
 14.67    698.78     26.43
 14.77    666.00     25.81
 14.87    656.00     25.61
 14.97    645.00     25.40
 15.07    714.00     26.72
 15.17    649.00     25.48
 15.27    678.68     26.05
 15.37    725.00     26.93
 15.47    725.00     26.93
 15.57    700.92     26.47
 15.67    696.00     26.38
 15.77    668.00     25.85
 15.87    688.00     26.23
 15.97    641.32     25.32
 16.07    620.00     24.90
 16.17    705.00     26.55
 16.27    683.00     26.13
 16.37    670.69     25.90
 16.47    709.02     26.63
 16.57    733.00     27.07
 16.67    628.00     25.06
 16.77    677.00     26.02
 16.87    690.00     26.27
 16.97    644.00     25.38
 17.07    642.18     25.34
 17.17    670.00     25.88
 17.27    639.40     25.29
 17.37    652.00     25.53
 17.47    676.91     26.02
 17.57    693.00     26.32
 17.67    674.58     25.97
 17.77    675.03     25.98
 17.87    685.00     26.17
 17.97    622.84     24.96
 18.07    657.00     25.63
 18.17    669.00     25.87
 18.27    698.00     26.42
 18.37    667.00     25.83
 18.47    693.00     26.32
 18.57    678.64     26.05
 18.67    711.35     26.67
 18.77    658.00     25.65
 18.87    667.00     25.83
 18.97    688.41     26.24
 19.07    651.00     25.51
 19.17    638.00     25.26
 19.27    634.00     25.18
 19.37    651.37     25.52
 19.47    693.00     26.32
 19.57    698.00     26.42
 19.67    592.00     24.33
 19.77    625.86     25.02
 19.87    619.84     24.90
 19.97    654.00     25.57
 20.07    654.00     25.57
 20.17    625.00     25.00
 20.27    636.00     25.22
 20.37    654.02     25.57
 20.47    666.26     25.81
 20.57    639.00     25.28
 20.67    618.80     24.88
 20.77    635.35     25.21
 20.87    641.00     25.32
 20.97    695.59     26.37
 21.07    612.95     24.76
 21.17    633.00     25.16
 21.27    604.27     24.58
 21.37    630.89     25.12
 21.47    660.00     25.69
 21.57    683.90     26.15
 21.67    650.00     25.50
 21.77    634.00     25.18
 21.87    674.06     25.96
 21.97    602.00     24.54
 22.07    616.00     24.82
 22.17    612.11     24.74
 22.27    679.00     26.06
 22.37    623.00     24.96
 22.47    619.00     24.88
 22.57    590.00     24.29
 22.67    659.42     25.68
 22.77    634.00     25.18
 22.87    645.00     25.40
 22.97    650.00     25.50
 23.07    614.92     24.80
 23.17    637.00     25.24
 23.27    633.44     25.17
 23.37    645.00     25.40
 23.47    672.06     25.92
 23.57    640.87     25.32
 23.67    646.00     25.42
 23.77    663.00     25.75
 23.87    605.71     24.61
 23.97    658.00     25.65
 24.07    599.00     24.47
 24.17    642.00     25.34
 24.27    676.00     26.00
 24.37    635.00     25.20
 24.47    711.00     26.66
 24.57    684.00     26.15
 24.67    681.00     26.10
 24.77    695.29     26.37
 24.87    691.31     26.29
 24.97    742.00     27.24
 25.07    759.00     27.55
 25.17    745.00     27.29
 25.27    713.00     26.70
 25.37    665.18     25.79
 25.47    623.63     24.97
 25.57    632.00     25.14
 25.67    674.00     25.96
 25.77    709.77     26.64
 25.87    639.00     25.28
 25.97    688.25     26.23
 26.07    670.00     25.88
 26.17    670.00     25.88
 26.27    692.83     26.32
 26.37    633.14     25.16
 26.47    615.00     24.80
 26.57    693.00     26.32
 26.67    661.00     25.71
 26.77    735.00     27.11
 26.87    672.11     25.92
 26.97    733.00     27.07
 27.07    723.00     26.89
 27.17    738.00     27.17
 27.27    823.00     28.69
 27.37    765.00     27.66
 27.47    732.00     27.06
 27.57    763.53     27.63
 27.67    854.00     29.22
 27.77    952.00     30.85
 27.87   1038.00     32.22
 27.97   1413.82     37.60
 28.07   1941.00     44.06
 28.17   3420.93     58.49
 28.27   5433.00     73.71
 28.37   7713.00     87.82
 28.47   9257.75     96.22
 28.57   8702.00     93.28
 28.67   6847.00     82.75
 28.77   4823.36     69.45
 28.87   3919.00     62.60
 28.97   4095.00     63.99
 29.07   4689.00     68.48
 29.17   5142.78     71.71
 29.27   4908.00     70.06
 29.37   3841.00     61.98
 29.47   2740.49     52.35
 29.57   1780.00     42.19
 29.67   1307.16     36.15
 29.77   1129.00     33.60
 29.87    916.13     30.27
 29.97    858.00     29.29
 30.07    859.00     29.31
 30.17    808.18     28.43
 30.27    759.00     27.55
 30.37    780.00     27.93
 30.47    731.00     27.04
 30.57    743.00     27.26
 30.67    720.00     26.83
 30.77    664.22     25.77
 30.87    781.00     27.95
 30.97    782.00     27.96
 31.07    794.00     28.18
 31.17    803.00     28.34
 31.27    814.75     28.54
 31.37    770.00     27.75
 31.47    790.00     28.11
 31.57    735.00     27.11
 31.67    698.00     26.42
 31.77    720.00     26.83
 31.87    658.00     25.65
 31.97    668.00     25.85
 32.07    681.00     26.10
 32.17    652.08     25.54
 32.27    695.00     26.36
 32.37    665.00     25.79
 32.47    686.48     26.20
 32.57    686.18     26.19
 32.67    588.72     24.26
 32.77    588.91     24.27
 32.87    641.00     25.32
 32.97    652.00     25.53
 33.07    658.00     25.65
 33.17    594.92     24.39
 33.27    622.12     24.94
 33.37    699.00     26.44
 33.47    663.00     25.75
 33.57    705.50     26.56
 33.67    643.00     25.36
 33.77    759.00     27.55
 33.87    712.00     26.68
 33.97    861.00     29.34
 34.07    943.00     30.71
 34.17   1105.00     33.24
 34.27   1257.00     35.45
 34.37   1363.12     36.92
 34.47   1279.00     35.76
 34.57   1083.00     32.91
 34.67    928.00     30.46
 34.77    848.00     29.12
 34.87    773.00     27.80
 34.97    677.00     26.02
 35.07    686.00     26.19
 35.17    696.00     26.38
 35.27    659.00     25.67
 35.37    663.63     25.76
 35.47    646.00     25.42
 35.57    612.24     24.74
 35.67    566.00     23.79
 35.77    580.94     24.10
 35.87    602.99     24.56
 35.97    665.56     25.80
 36.07    656.00     25.61
 36.17    616.00     24.82
 36.27    601.00     24.52
 36.37    649.42     25.48
 36.47    645.24     25.40
 36.57    657.69     25.65
 36.67    605.00     24.60
 36.77    622.00     24.94
 36.87    591.00     24.31
 36.97    629.40     25.09
 37.07    638.00     25.26
 37.17    589.00     24.27
 37.27    587.00     24.23
 37.37    605.52     24.61
 37.47    581.83     24.12
 37.57    613.11     24.76
 37.67    640.00     25.30
 37.77    643.00     25.36
 37.87    680.00     26.08
 37.97    719.00     26.81
 38.07    672.00     25.92
 38.17    715.00     26.74
 38.27    787.99     28.07
 38.37    780.67     27.94
 38.47    834.00     28.88
 38.57    824.00     28.71
 38.67    691.06     26.29
 38.77    647.17     25.44
 38.87    634.00     25.18
 38.97    578.00     24.04
 39.07    597.00     24.43
 39.17    589.57     24.28
 39.27    600.40     24.50
 39.37    620.00     24.90
 39.47    647.00     25.44
 39.57    636.00     25.22
 39.67    618.00     24.86
 39.77    627.00     25.04
 39.87    599.85     24.49
 39.97    620.00     24.90
 40.07    585.00     24.19
 40.17    634.00     25.18
 40.27    650.00     25.50
 40.37    647.81     25.45
 40.47    604.00     24.58
 40.57    628.00     25.06
 40.67    597.00     24.43
 40.77    656.00     25.61
 40.87    622.46     24.95
 40.97    598.00     24.45
 41.07    666.18     25.81
 41.17    602.05     24.54
 41.27    608.00     24.66
 41.37    585.00     24.19
 41.47    586.00     24.21
 41.57    639.91     25.30
 41.67    620.00     24.90
 41.77    596.51     24.42
 41.87    610.00     24.70
 41.97    594.00     24.37
 42.07    599.00     24.47
 42.17    655.00     25.59
 42.27    669.96     25.88
 42.37    579.00     24.06
 42.47    578.00     24.04
 42.57    693.24     26.33
 42.67    690.05     26.27
 42.77    655.51     25.60
 42.87    654.00     25.57
 42.97    713.00     26.70
 43.07    753.37     27.45
 43.17    775.69     27.85
 43.27    715.00     26.74
 43.37    689.00     26.25
 43.47    667.86     25.84
 43.57    624.00     24.98
 43.67    613.84     24.78
 43.77    643.00     25.36
 43.87    586.85     24.23
 43.97    601.45     24.52
 44.07    610.35     24.71
 44.17    616.00     24.82
 44.27    597.00     24.43
 44.37    655.00     25.59
 44.47    603.00     24.56
 44.57    658.18     25.66
 44.67    659.00     25.67
 44.77    635.04     25.20
 44.87    631.00     25.12
 44.97    639.00     25.28
 45.07    631.33     25.13
 45.17    657.00     25.63
 45.27    652.00     25.53
 45.37    643.51     25.37
 45.47    672.00     25.92
 45.57    622.00     24.94
 45.67    618.00     24.86
 45.77    626.00     25.02
 45.87    629.00     25.08
 45.97    649.30     25.48
 46.07    628.00     25.06
 46.17    574.23     23.96
 46.27    627.00     25.04
 46.37    676.39     26.01
 46.47    657.86     25.65
 46.57    652.00     25.53
 46.67    641.35     25.32
 46.77    645.00     25.40
 46.87    658.00     25.65
 46.97    669.71     25.88
 47.07    632.00     25.14
 47.17    648.00     25.46
 47.27    640.19     25.30
 47.37    608.00     24.66
 47.47    656.14     25.62
 47.57    670.07     25.89
 47.67    607.00     24.64
 47.77    624.25     24.98
 47.87    609.74     24.69
 47.97    682.00     26.12
 48.07    750.00     27.39
 48.17    668.00     25.85
 48.27    673.00     25.94
 48.37    720.54     26.84
 48.47    718.00     26.80
 48.57    732.00     27.06
 48.67    702.00     26.50
 48.77    660.00     25.69
 48.87    713.21     26.71
 48.97    660.00     25.69
 49.07    629.00     25.08
 49.17    699.00     26.44
 49.27    649.00     25.48
 49.37    722.66     26.88
 49.47    735.73     27.12
 49.57    679.07     26.06
 49.67    716.00     26.76
 49.77    761.00     27.59
 49.87    846.00     29.09
 49.97    929.00     30.48
 50.07   1159.00     34.04
 50.17   1469.00     38.33
 50.27   1977.00     44.46
 50.37   2565.40     50.65
 50.47   2966.00     54.46
 50.57   3269.00     57.18
 50.67   3159.61     56.21
 50.77   3008.00     54.85
 50.87   2546.00     50.46
 50.97   1953.00     44.19
 51.07   1668.26     40.84
 51.17   1210.00     34.79
 51.27   1080.00     32.86
 51.37    913.00     30.22
 51.47    871.52     29.52
 51.57    842.00     29.02
 51.67    786.60     28.05
 51.77    747.00     27.33
 51.87    798.77     28.26
 51.97    682.06     26.12
 52.07    717.00     26.78
 52.17    678.34     26.05
 52.27    723.00     26.89
 52.37    694.79     26.36
 52.47    682.74     26.13
 52.57    728.70     26.99
 52.67    707.00     26.59
 52.77    692.00     26.31
 52.87    721.00     26.85
 52.97    705.00     26.55
 53.07    689.53     26.26
 53.17    705.95     26.57
 53.27    731.84     27.05
 53.37    783.00     27.98
 53.47    851.75     29.18
 53.57    908.00     30.13
 53.67   1101.00     33.18
 53.77   1122.64     33.51
 53.87   1273.00     35.68
 53.97   1329.00     36.46
 54.07   1336.00     36.55
 54.17   1255.80     35.44
 54.27   1196.30     34.59
 54.37   1143.23     33.81
 54.47    961.00     31.00
 54.57    902.00     30.03
 54.67    799.55     28.28
 54.77    718.00     26.80
 54.87    755.00     27.48
 54.97    713.00     26.70
 55.07    697.00     26.40
 55.17    736.87     27.15
 55.27    739.96     27.20
 55.37    688.00     26.23
 55.47    739.10     27.19
 55.57    691.41     26.29
 55.67    710.00     26.65
 55.77    665.00     25.79
 55.87    696.97     26.40
 55.97    693.00     26.32
 56.07    671.00     25.90
 56.17    745.31     27.30
 56.27    724.00     26.91
 56.37    800.13     28.29
 56.47    856.00     29.26
 56.57    918.00     30.30
 56.67   1017.51     31.90
 56.77   1186.00     34.44
 56.87   1450.00     38.08
 56.97   1733.14     41.63
 57.07   1991.00     44.62
 57.17   2410.00     49.09
 57.27   2663.00     51.60
 57.37   2807.00     52.98
 57.47   2764.00     52.57
 57.57   2615.00     51.14
 57.67   2220.00     47.12
 57.77   1921.36     43.83
 57.87   1509.00     38.85
 57.97   1276.18     35.72
 58.07   1098.98     33.15
 58.17    998.00     31.59
 58.27    895.82     29.93
 58.37    849.00     29.14
 58.47    839.35     28.97
 58.57    802.85     28.33
 58.67    895.00     29.92
 58.77    888.00     29.80
 58.87    965.00     31.06
 58.97   1106.98     33.27
 59.07   1130.06     33.62
 59.17   1193.13     34.54
 59.27   1209.00     34.77
 59.37   1247.00     35.31
 59.47   1367.00     36.97
 59.57   1385.29     37.22
 59.67   1370.00     37.01
 59.77   1353.00     36.78
 59.87   1298.00     36.03
 59.97   1305.00     36.12
 60.07   1174.34     34.27
 60.17   1314.00     36.25
 60.27   1315.00     36.26
 60.37   1397.00     37.38
 60.47   1470.00     38.34
 60.57   1484.00     38.52
 60.67   1644.00     40.55
 60.77   1600.00     40.00
 60.87   1636.61     40.46
 60.97   1586.00     39.82
 61.07   1404.09     37.47
 61.17   1220.43     34.93
 61.27   1084.00     32.92
 61.37    986.76     31.41
 61.47    894.20     29.90
 61.57    882.00     29.70
 61.67    833.00     28.86
 61.77    809.79     28.46
 61.87    834.00     28.88
 61.97    971.00     31.16
 62.07   1021.00     31.95
 62.17   1181.90     34.38
 62.27   1306.00     36.14
 62.37   1476.00     38.42
 62.47   1700.00     41.23
 62.57   1806.00     42.50
 62.67   1824.68     42.72
 62.77   1891.00     43.49
 62.87   1769.00     42.06
 62.97   1704.00     41.28
 63.07   1462.03     38.24
 63.17   1321.00     36.35
 63.27   1176.00     34.29
 63.37    971.00     31.16
 63.47    850.00     29.15
 63.57    805.29     28.38
 63.67    761.18     27.59
 63.77    790.75     28.12
 63.87    763.00     27.62
 63.97    773.00     27.80
 64.07    775.13     27.84
 64.17    730.29     27.02
 64.27    735.77     27.13
 64.37    823.00     28.69
 64.47    829.00     28.79
 64.57    881.00     29.68
 64.67    984.20     31.37
 64.77   1091.30     33.03
 64.87   1207.57     34.75
 64.97   1347.14     36.70
 65.07   1565.00     39.56
 65.17   1598.00     39.97
 65.27   1662.00     40.77
 65.37   1605.33     40.07
 65.47   1611.00     40.14
 65.57   1485.00     38.54
 65.67   1486.00     38.55
 65.77   1337.61     36.57
 65.87   1128.00     33.59
 65.97   1022.00     31.97
 66.07    894.00     29.90
 66.17    894.00     29.90
 66.27    821.00     28.65
 66.37    778.00     27.89
 66.47    809.00     28.44
 66.57    698.00     26.42
 66.67    677.00     26.02
 66.77    711.00     26.66
 66.87    722.00     26.87
 66.97    676.10     26.00
 67.07    691.00     26.29
 67.17    713.00     26.70
 67.27    774.51     27.83
 67.37    744.00     27.28
 67.47    815.18     28.55
 67.57    786.01     28.04
 67.67    799.29     28.27
 67.77    911.10     30.18
 67.87   1040.84     32.26
 67.97   1130.03     33.62
 68.07   1248.00     35.33
 68.17   1574.17     39.68
 68.27   1683.00     41.02
 68.37   1923.00     43.85
 68.47   2149.53     46.36
 68.57   2387.56     48.86
 68.67   2582.00     50.81
 68.77   2611.27     51.10
 68.87   2496.83     49.97
 68.97   2355.00     48.53
 69.07   2203.00     46.94
 69.17   1824.05     42.71
 69.27   1647.00     40.58
 69.37   1442.92     37.99
 69.47   1193.78     34.55
 69.57   1064.00     32.62
 69.67    964.00     31.05
 69.77    931.00     30.51
 69.87    874.00     29.56
 69.97    812.00     28.50
 70.07    800.05     28.29
 70.17    758.00     27.53
 70.27    757.00     27.51
 70.37    721.43     26.86
 70.47    747.00     27.33
 70.57    683.57     26.15
 70.67    725.00     26.93
 70.77    662.50     25.74
 70.87    756.00     27.50
 70.97    698.05     26.42
 71.07    707.00     26.59
 71.17    748.00     27.35
 71.27    756.12     27.50
 71.37    752.00     27.42
 71.47    751.94     27.42
 71.57    789.29     28.09
 71.67    879.51     29.66
 71.77    889.00     29.82
 71.87    956.00     30.92
 71.97   1106.00     33.26
 72.07   1197.00     34.60
 72.17   1278.11     35.75
 72.27   1466.00     38.29
 72.37   1660.00     40.74
 72.47   1753.00     41.87
 72.57   1937.00     44.01
 72.67   2066.00     45.45
 72.77   2052.00     45.30
 72.87   1962.00     44.29
 72.97   1844.26     42.94
 73.07   1696.00     41.18
 73.17   1536.00     39.19
 73.27   1292.69     35.95
 73.37   1243.67     35.27
 73.47   1135.00     33.69
 73.57    947.00     30.77
 73.67    898.00     29.97
 73.77    830.00     28.81
 73.87    792.00     28.14
 73.97    744.67     27.29
 74.07    685.09     26.17
 74.17    691.88     26.30
 74.27    754.00     27.46
 74.37    705.24     26.56
 74.47    643.83     25.37
 74.57    725.00     26.93
 74.67    705.00     26.55
 74.77    681.79     26.11
 74.87    692.23     26.31
 74.97    699.00     26.44
 75.07    700.00     26.46
 75.17    735.00     27.11
 75.27    739.93     27.20
 75.37    773.00     27.80
 75.47    741.92     27.24
 75.57    720.00     26.83
 75.67    755.85     27.49
 75.77    734.00     27.09
 75.87    740.00     27.20
 75.97    763.00     27.62
 76.07    693.00     26.32
 76.17    749.00     27.37
 76.27    767.00     27.69
 76.37    709.00     26.63
 76.47    763.00     27.62
 76.57    770.00     27.75
 76.67    803.00     28.34
 76.77    847.00     29.10
 76.87    922.00     30.36
 76.97    978.00     31.27
 77.07    978.00     31.27
 77.17   1067.96     32.68
 77.27   1128.40     33.59
 77.37   1024.00     32.00
 77.47   1069.12     32.70
 77.57   1075.25     32.79
 77.67    995.00     31.54
 77.77    872.00     29.53
 77.87    842.00     29.02
 77.97    823.98     28.71
 78.07    793.00     28.16
 78.17    796.09     28.22
 78.27    725.00     26.93
 78.37    664.54     25.78
 78.47    678.23     26.04
 78.57    647.99     25.46
 78.67    674.00     25.96
 78.77    700.00     26.46
 78.87    616.00     24.82
 78.97    635.75     25.21
 79.07    665.00     25.79
 79.17    630.00     25.10
 79.27    651.00     25.51
 79.37    668.93     25.86
 79.47    675.13     25.98
 79.57    632.63     25.15
 79.67    600.00     24.49
 79.77    654.34     25.58
 79.87    644.91     25.40
 79.97    590.00     24.29
 80.07    648.52     25.47
 80.17    639.40     25.29
 80.27    727.00     26.96
 80.37    654.00     25.57
 80.47    739.00     27.18
 80.57    733.02     27.07
 80.67    743.00     27.26
 80.77    827.54     28.77
 80.87    831.00     28.83
 80.97    873.91     29.56
 81.07    976.00     31.24
 81.17   1031.20     32.11
 81.27   1152.00     33.94
 81.37   1249.00     35.34
 81.47   1382.00     37.18
 81.57   1451.00     38.09
 81.67   1572.00     39.65
 81.77   1580.00     39.75
 81.87   1618.00     40.22
 81.97   1524.86     39.05
 82.07   1577.00     39.71
 82.17   1339.05     36.59
 82.27   1312.14     36.22
 82.37   1231.26     35.09
 82.47   1230.80     35.08
 82.57   1195.00     34.57
 82.67   1116.49     33.41
 82.77   1033.80     32.15
 82.87    974.86     31.22
 82.97    843.33     29.04
 83.07    798.00     28.25
 83.17    739.00     27.18
 83.27    788.00     28.07
 83.37    756.62     27.51
 83.47    784.89     28.02
 83.57    666.99     25.83
 83.67    658.51     25.66
 83.77    651.00     25.51
 83.87    651.70     25.53
 83.97    687.73     26.22
 84.07    623.00     24.96
 84.17    670.00     25.88
 84.27    656.00     25.61
 84.37    739.02     27.18
 84.47    705.00     26.55
 84.57    722.00     26.87
 84.67    770.12     27.75
 84.77    702.00     26.50
 84.87    675.00     25.98
 84.97    666.59     25.82
 85.07    694.00     26.34
 85.17    648.00     25.46
 85.27    676.00     26.00
 85.37    649.00     25.48
 85.47    712.62     26.69
 85.57    690.00     26.27
 85.67    692.69     26.32
 85.77    619.00     24.88
 85.87    589.00     24.27
 85.97    680.49     26.09
 86.07    672.00     25.92
 86.17    623.00     24.96
 86.27    625.84     25.02
 86.37    647.00     25.44
 86.47    668.00     25.85
 86.57    640.00     25.30
 86.67    615.00     24.80
 86.77    667.00     25.83
 86.87    691.00     26.29
 86.97    695.00     26.36
 87.07    668.27     25.85
 87.17    674.00     25.96
 87.27    712.00     26.68
 87.37    737.30     27.15
 87.47    729.00     27.00
 87.57    720.00     26.83
 87.67    679.73     26.07
 87.77    738.00     27.17
 87.87    723.57     26.90
 87.97    718.00     26.80
 88.07    694.09     26.35
 88.17    756.00     27.50
 88.27    791.00     28.12
 88.37    703.36     26.52
 88.47    744.00     27.28
 88.57    776.00     27.86
 88.67    711.00     26.66
 88.77    719.00     26.81
 88.87    709.88     26.64
 88.97    692.95     26.32
 89.07    666.27     25.81
 89.17    688.00     26.23
 89.27    639.00     25.28
 89.37    690.00     26.27
 89.47    701.00     26.48
 89.57    674.00     25.96
 89.67    639.00     25.28
 89.77    652.00     25.53
 89.87    642.27     25.34
 89.97    707.00     26.59
 90.07    709.75     26.64
 90.17    692.00     26.31
 90.27    683.00     26.13
 90.37    700.00     26.46
 90.47    674.00     25.96
 90.57    717.00     26.78
 90.67    687.00     26.21
 90.77    684.45     26.16
 90.87    618.18     24.86
 90.97    649.00     25.48
 91.07    653.00     25.55
 91.17    594.00     24.37
 91.27    661.12     25.71
 91.37    611.00     24.72
 91.47    658.93     25.67
 91.57    662.15     25.73
 91.67    631.00     25.12
 91.77    573.08     23.94
 91.87    600.00     24.49
 91.97    578.38     24.05
 92.07    657.55     25.64
 92.17    569.02     23.85
 92.27    588.45     24.26
 92.37    636.23     25.22
 92.47    636.00     25.22
 92.57    581.95     24.12
 92.67    601.00     24.52
 92.77    678.47     26.05
 92.87    639.00     25.28
 92.97    686.00     26.19
 93.07    653.75     25.57
 93.17    678.62     26.05
 93.27    731.41     27.04
 93.37    631.00     25.12
 93.47    710.00     26.65
 93.57    728.00     26.98
 93.67    761.00     27.59
 93.77    774.58     27.83
 93.87    780.00     27.93
 93.97    753.00     27.44
 94.07    786.00     28.04
 94.17    842.44     29.02
 94.27    867.00     29.44
 94.37    887.62     29.79
 94.47    940.22     30.66
 94.57    914.00     30.23
 94.67    923.00     30.38
 94.77    983.52     31.36
 94.87   1002.00     31.65
 94.97   1003.00     31.67
 95.07   1028.00     32.06
 95.17   1039.00     32.23
 95.27   1027.00     32.05
 95.37   1023.09     31.99
 95.47   1045.00     32.33
 95.57   1068.00     32.68
 95.67   1061.50     32.58
 95.77   1052.12     32.44
 95.87   1073.00     32.76
 95.97   1075.00     32.79
 96.07   1066.53     32.66
 96.17   1002.59     31.66
 96.27   1034.31     32.16
 96.37    936.00     30.59
 96.47    897.62     29.96
 96.57    916.51     30.27
 96.67    957.00     30.94
 96.77    882.52     29.71
 96.87    848.00     29.12
 96.97    880.82     29.68
 97.07    865.00     29.41
 97.17    931.00     30.51
 97.27    873.94     29.56
 97.37    953.00     30.87
 97.47   1030.00     32.09
 97.57   1095.00     33.09
 97.67   1130.00     33.62
 97.77   1109.00     33.30
 97.87   1255.09     35.43
 97.97   1359.88     36.88
 98.07   1381.07     37.16
 98.17   1443.00     37.99
 98.27   1526.00     39.06
 98.37   1597.07     39.96
 98.47   1611.00     40.14
 98.57   1607.03     40.09
 98.67   1617.00     40.21
 98.77   1599.00     39.99
 98.87   1625.80     40.32
 98.97   1536.00     39.19
 99.07   1448.92     38.06
 99.17   1448.00     38.05
 99.27   1277.00     35.74
 99.37   1205.94     34.73
 99.47   1239.99     35.21
 99.57   1200.05     34.64
 99.67   1083.00     32.91
 99.77   1069.09     32.70
 99.87    988.00     31.43
 99.97   1051.00     32.42
100.07   1042.00     32.28
100.17   1075.46     32.79
100.27   1081.95     32.89
100.37   1161.77     34.08
100.47   1169.00     34.19
100.57   1233.00     35.11
100.67   1338.00     36.58
100.77   1408.00     37.52
100.87   1450.00     38.08
100.97   1594.00     39.92
101.07   1741.42     41.73
101.17   1800.00     42.43
101.27   1868.01     43.22
101.37   1931.00     43.94
101.47   1956.00     44.23
101.57   2049.00     45.27
101.67   2142.78     46.29
101.77   2141.56     46.28
101.87   2142.00     46.28
101.97   2093.00     45.75
102.07   2051.00     45.29
102.17   2109.74     45.93
102.27   2025.00     45.00
102.37   2003.00     44.75
102.47   1920.00     43.82
102.57   1941.00     44.06
102.67   1826.91     42.74
102.77   1672.00     40.89
102.87   1610.00     40.12
102.97   1543.93     39.29
103.07   1489.00     38.59
103.17   1434.00     37.87
103.27   1377.00     37.11
103.37   1397.00     37.38
103.47   1373.00     37.05
103.57   1406.23     37.50
103.67   1307.00     36.15
103.77   1236.00     35.16
103.87   1210.00     34.79
103.97   1148.00     33.88
104.07   1167.00     34.16
104.17   1110.00     33.32
104.27   1138.32     33.74
104.37   1013.56     31.84
104.47    940.00     30.66
104.57    930.00     30.50
104.67    984.00     31.37
104.77    932.00     30.53
104.87    889.00     29.82
104.97    829.00     28.79
105.07    752.59     27.43
105.17    777.74     27.89
105.27    732.00     27.06
105.37    698.00     26.42
105.47    703.77     26.53
105.57    694.18     26.35
105.67    660.00     25.69
105.77    625.65     25.01
105.87    676.00     26.00
105.97    620.00     24.90
106.07    620.52     24.91
106.17    668.00     25.85
106.27    642.01     25.34
106.37    624.00     24.98
106.47    645.36     25.40
106.57    677.00     26.02
106.67    593.29     24.36
106.77    665.74     25.80
106.87    688.00     26.23
106.97    660.28     25.70
107.07    640.67     25.31
107.17    660.00     25.69
107.27    663.00     25.75
107.37    703.00     26.51
107.47    718.00     26.80
107.57    686.57     26.20
107.67    676.12     26.00
107.77    753.00     27.44
107.87    762.78     27.62
107.97    729.00     27.00
108.07    776.00     27.86
108.17    750.00     27.39
108.27    707.00     26.59
108.37    813.00     28.51
108.47    792.38     28.15
108.57    800.00     28.28
108.67    796.40     28.22
108.77    768.00     27.71
108.87    792.00     28.14
108.97    815.27     28.55
109.07    815.00     28.55
109.17    751.00     27.40
109.27    783.18     27.99
109.37    763.00     27.62
109.47    749.00     27.37
109.57    758.00     27.53
109.67    826.30     28.75
109.77    777.00     27.87
109.87    758.53     27.54
109.97    822.00     28.67
110.07    761.97     27.60
110.17    831.00     28.83
110.27    826.00     28.74
110.37    763.00     27.62
110.47    810.00     28.46
110.57    821.59     28.66
110.67    754.54     27.47
110.77    775.00     27.84
110.87    810.09     28.46
110.97    763.00     27.62
111.07    723.00     26.89
111.17    721.00     26.85
111.27    758.00     27.53
111.37    681.00     26.10
111.47    708.00     26.61
111.57    745.00     27.29
111.67    726.00     26.94
111.77    673.00     25.94
111.87    634.20     25.18
111.97    701.00     26.48
112.07    670.00     25.88
112.17    682.06     26.12
112.27    678.00     26.04
112.37    621.00     24.92
112.47    708.00     26.61
112.57    681.87     26.11
112.67    658.00     25.65
112.77    641.00     25.32
112.87    631.00     25.12
112.97    668.00     25.85
113.07    627.00     25.04
113.17    604.00     24.58
113.27    654.00     25.57
113.37    617.00     24.84
113.47    628.00     25.06
113.57    668.00     25.85
113.67    659.49     25.68
113.77    659.55     25.68
113.87    677.00     26.02
113.97    682.00     26.12
114.07    689.17     26.25
114.17    725.19     26.93
114.27    641.00     25.32
114.37    674.00     25.96
114.47    669.04     25.87
114.57    687.00     26.21
114.67    687.00     26.21
114.77    741.00     27.22
114.87    824.50     28.71
114.97    789.86     28.10
115.07    800.00     28.28
115.17    815.00     28.55
115.27    889.00     29.82
115.37    933.00     30.55
115.47    982.00     31.34
115.57   1071.00     32.73
115.67   1319.00     36.32
115.77   1359.17     36.87
115.87   1499.00     38.72
115.97   1615.00     40.19
116.07   1793.00     42.34
116.17   2015.00     44.89
116.27   2328.17     48.25
116.37   2393.28     48.92
116.47   2686.92     51.84
116.57   3177.00     56.36
116.67   3311.00     57.54
116.77   3782.00     61.50
116.87   4203.00     64.83
116.97   4553.00     67.48
117.07   4934.00     70.24
117.17   5304.00     72.83
117.27   5674.00     75.33
117.37   6040.27     77.72
117.47   6499.00     80.62
117.57   6786.89     82.38
117.67   7062.00     84.04
117.77   7375.00     85.88
117.87   7423.00     86.16
117.97   7606.00     87.21
118.07   7498.00     86.59
118.17   7410.00     86.08
118.27   7464.00     86.39
118.37   7364.62     85.82
118.47   7081.00     84.15
118.57   6765.00     82.25
118.67   6684.20     81.76
118.77   6272.69     79.20
118.87   5790.00     76.09
118.97   5374.12     73.31
119.07   5195.23     72.08
119.17   4763.42     69.02
119.27   4368.00     66.09
119.37   4050.00     63.64
119.47   3638.00     60.32
119.57   3425.44     58.53
119.67   3124.00     55.89
119.77   2764.00     52.57
119.87   2448.00     49.48
119.97   2221.68     47.13
120.07   2086.00     45.67
120.17   1877.43     43.33
120.27   1693.00     41.15
120.37   1561.00     39.51
120.47   1440.00     37.95
120.57   1353.70     36.79
120.67   1273.79     35.69
120.77   1217.00     34.89
120.87   1027.17     32.05
120.97   1020.80     31.95
121.07   1035.00     32.17
121.17    959.00     30.97
121.27    910.00     30.17
121.37    929.00     30.48
121.47    803.89     28.35
121.57    795.52     28.21
121.67    711.00     26.66
121.77    745.17     27.30
121.87    744.70     27.29
121.97    739.00     27.18
122.07    715.00     26.74
122.17    756.25     27.50
122.27    701.00     26.48
122.37    706.00     26.57
122.47    738.72     27.18
122.57    748.56     27.36
122.67    716.29     26.76
122.77    753.76     27.45
122.87    707.15     26.59
122.97    715.00     26.74
123.07    689.42     26.26
123.17    695.49     26.37
123.27    746.00     27.31
123.37    743.00     27.26
123.47    766.00     27.68
123.57    736.00     27.13
123.67    714.46     26.73
123.77    830.00     28.81
123.87    787.00     28.05
123.97    824.00     28.71
124.07    780.00     27.93
124.17    779.00     27.91
124.27    782.00     27.96
124.37    792.81     28.16
124.47    781.32     27.95
124.57    772.85     27.80
124.67    818.00     28.60
124.77    842.00     29.02
124.87    777.00     27.87
124.97    861.00     29.34
