XYDATA



INTER 1.0 1.0 0 0
TEMP 984.749
  9.97    605.00     24.60
 10.07    585.00     24.19
 10.17    623.00     24.96
 10.27    603.00     24.56
 10.37    623.00     24.96
 10.47    582.00     24.12
 10.57    555.59     23.57
 10.67    619.00     24.88
 10.77    543.21     23.31
 10.87    595.97     24.41
 10.97    515.00     22.69
 11.07    547.77     23.40
 11.17    544.00     23.32
 11.27    584.00     24.17
 11.37    592.00     24.33
 11.47    553.53     23.53
 11.57    539.00     23.22
 11.67    617.00     24.84
 11.77    563.35     23.74
 11.87    606.33     24.62
 11.97    646.00     25.42
 12.07    637.00     25.24
 12.17    655.00     25.59
 12.27    669.00     25.87
 12.37    661.00     25.71
 12.47    668.00     25.85
 12.57    591.00     24.31
 12.67    573.00     23.94
 12.77    623.59     24.97
 12.87    569.00     23.85
 12.97    559.00     23.64
 13.07    571.00     23.90
 13.17    576.00     24.00
 13.27    529.68     23.01
 13.37    578.00     24.04
 13.47    545.00     23.35
 13.57    570.08     23.88
 13.67    543.00     23.30
 13.77    543.83     23.32
 13.87    554.00     23.54
 13.97    535.00     23.13
 14.07    530.00     23.02
 14.17    583.34     24.15
 14.27    521.00     22.83
 14.37    544.00     23.32
 14.47    563.00     23.73
 14.57    570.00     23.87
 14.67    549.81     23.45
 14.77    561.00     23.69
 14.87    513.00     22.65
 14.97    584.06     24.17
 15.07    545.00     23.35
 15.17    519.06     22.78
 15.27    609.00     24.68
 15.37    566.00     23.79
 15.47    535.00     23.13
 15.57    545.96     23.37
 15.67    576.08     24.00
 15.77    563.00     23.73
 15.87    552.00     23.49
 15.97    595.72     24.41
 16.07    562.00     23.71
 16.17    575.94     24.00
 16.27    559.39     23.65
 16.37    509.00     22.56
 16.47    544.00     23.32
 16.57    559.00     23.64
 16.67    538.77     23.21
 16.77    512.18     22.63
 16.87    554.00     23.54
 16.97    574.43     23.97
 17.07    516.21     22.72
 17.17    553.37     23.52
 17.27    535.62     23.14
 17.37    519.00     22.78
 17.47    553.00     23.52
 17.57    522.26     22.85
 17.67    575.57     23.99
 17.77    588.00     24.25
 17.87    544.00     23.32
 17.97    540.00     23.24
 18.07    585.03     24.19
 18.17    566.00     23.79
 18.27    560.00     23.66
 18.37    554.00     23.54
 18.47    548.86     23.43
 18.57    539.00     23.22
 18.67    546.83     23.38
 18.77    584.49     24.18
 18.87    584.00     24.17
 18.97    581.61     24.12
 19.07    595.69     24.41
 19.17    544.00     23.32
 19.27    553.00     23.52
 19.37    590.00     24.29
 19.47    561.00     23.69
 19.57    561.00     23.69
 19.67    588.92     24.27
 19.77    536.00     23.15
 19.87    552.29     23.50
 19.97    593.33     24.36
 20.07    589.00     24.27
 20.17    551.00     23.47
 20.27    583.00     24.15
 20.37    589.12     24.27
 20.47    535.00     23.13
 20.57    556.00     23.58
 20.67    529.01     23.00
 20.77    572.00     23.92
 20.87    592.07     24.33
 20.97    535.00     23.13
 21.07    504.00     22.45
 21.17    581.00     24.10
 21.27    560.00     23.66
 21.37    574.00     23.96
 21.47    574.00     23.96
 21.57    568.89     23.85
 21.67    538.00     23.19
 21.77    521.93     22.85
 21.87    518.00     22.76
 21.97    538.00     23.19
 22.07    563.79     23.74
 22.17    553.32     23.52
 22.27    569.00     23.85
 22.37    519.00     22.78
 22.47    556.00     23.58
 22.57    560.00     23.66
 22.67    542.00     23.28
 22.77    574.07     23.96
 22.87    534.00     23.11
 22.97    540.00     23.24
 23.07    510.77     22.60
 23.17    595.00     24.39
 23.27    517.00     22.74
 23.37    537.00     23.17
 23.47    539.00     23.22
 23.57    547.00     23.39
 23.67    566.00     23.79
 23.77    562.00     23.71
 23.87    527.00     22.96
 23.97    533.00     23.09
 24.07    528.00     22.98
 24.17    548.00     23.41
 24.27    582.00     24.12
 24.37    560.00     23.66
 24.47    590.00     24.29
 24.57    558.00     23.62
 24.67    612.00     24.74
 24.77    630.00     25.10
 24.87    633.00     25.16
 24.97    615.76     24.81
 25.07    562.00     23.71
 25.17    555.98     23.58
 25.27    569.05     23.85
 25.37    572.00     23.92
 25.47    560.00     23.66
 25.57    517.00     22.74
 25.67    559.00     23.64
 25.77    604.00     24.58
 25.87    535.38     23.14
 25.97    542.00     23.28
 26.07    561.00     23.69
 26.17    594.00     24.37
 26.27    563.00     23.73
 26.37    550.00     23.45
 26.47    566.00     23.79
 26.57    548.00     23.41
 26.67    572.00     23.92
 26.77    541.00     23.26
 26.87    546.00     23.37
 26.97    544.00     23.32
 27.07    563.00     23.73
 27.17    571.48     23.91
 27.27    543.27     23.31
 27.37    522.92     22.87
 27.47    503.19     22.43
 27.57    550.00     23.45
 27.67    546.82     23.38
 27.77    598.00     24.45
 27.87    602.00     24.54
 27.97    670.00     25.88
 28.07    763.00     27.62
 28.17    896.00     29.93
 28.27    950.00     30.82
 28.37    901.00     30.02
 28.47    856.00     29.26
 28.57    721.00     26.85
 28.67    721.94     26.87
 28.77    747.00     27.33
 28.87    812.00     28.50
 28.97    834.64     28.89
 29.07    842.00     29.02
 29.17    723.00     26.89
 29.27    647.52     25.45
 29.37    655.89     25.61
 29.47    563.00     23.73
 29.57    585.00     24.19
 29.67    605.00     24.60
 29.77    588.95     24.27
 29.87    615.15     24.80
 29.97    632.00     25.14
 30.07    596.53     24.42
 30.17    575.00     23.98
 30.27    606.00     24.62
 30.37    554.00     23.54
 30.47    596.00     24.41
 30.57    541.87     23.28
 30.67    575.00     23.98
 30.77    581.85     24.12
 30.87    596.00     24.41
 30.97    629.00     25.08
 31.07    606.32     24.62
 31.17    623.00     24.96
 31.27    559.75     23.66
 31.37    519.00     22.78
 31.47    538.55     23.21
 31.57    530.00     23.02
 31.67    557.00     23.60
 31.77    549.00     23.43
 31.87    544.00     23.32
 31.97    569.00     23.85
 32.07    535.00     23.13
 32.17    573.00     23.94
 32.27    533.00     23.09
 32.37    535.00     23.13
 32.47    539.00     23.22
 32.57    506.00     22.49
 32.67    583.00     24.15
 32.77    560.86     23.68
 32.87    558.00     23.62
 32.97    578.00     24.04
 33.07    535.00     23.13
 33.17    534.00     23.11
 33.27    499.51     22.35
 33.37    495.14     22.25
 33.47    541.00     23.26
 33.57    563.00     23.73
 33.67    614.00     24.78
 33.77    702.12     26.50
 33.87    791.67     28.14
 33.97    993.00     31.51
 34.07   1079.00     32.85
 34.17   1027.00     32.05
 34.27    919.00     30.32
 34.37    785.00     28.02
 34.47    654.53     25.58
 34.57    613.56     24.77
 34.67    543.89     23.32
 34.77    530.96     23.04
 34.87    483.00     21.98
 34.97    535.77     23.15
 35.07    490.00     22.14
 35.17    555.07     23.56
 35.27    525.00     22.91
 35.37    533.61     23.10
 35.47    567.23     23.82
 35.57    539.00     23.22
 35.67    514.76     22.69
 35.77    477.04     21.84
 35.87    530.00     23.02
 35.97    520.00     22.80
 36.07    511.58     22.62
 36.17    459.00     21.42
 36.27    495.29     22.26
 36.37    523.00     22.87
 36.47    488.00     22.09
 36.57    527.40     22.97
 36.67    493.97     22.23
 36.77    510.00     22.58
 36.87    530.00     23.02
 36.97    487.00     22.07
 37.07    498.98     22.34
 37.17    492.00     22.18
 37.27    480.32     21.92
 37.37    552.33     23.50
 37.47    490.86     22.16
 37.57    546.00     23.37
 37.67    482.00     21.95
 37.77    494.00     22.23
 37.87    510.00     22.58
 37.97    472.96     21.75
 38.07    544.00     23.32
 38.17    508.00     22.54
 38.27    496.00     22.27
 38.37    507.00     22.52
 38.47    508.77     22.56
 38.57    458.00     21.40
 38.67    496.00     22.27
 38.77    474.00     21.77
 38.87    506.00     22.49
 38.97    476.00     21.82
 39.07    485.26     22.03
 39.17    491.00     22.16
 39.27    503.81     22.45
 39.37    493.00     22.20
 39.47    473.00     21.75
 39.57    508.00     22.54
 39.67    528.00     22.98
 39.77    526.00     22.93
 39.87    471.00     21.70
 39.97    515.54     22.71
 40.07    507.80     22.53
 40.17    491.00     22.16
 40.27    510.05     22.58
 40.37    545.42     23.35
 40.47    466.00     21.59
 40.57    469.88     21.68
 40.67    498.00     22.32
 40.77    506.00     22.49
 40.87    519.00     22.78
 40.97    488.00     22.09
 41.07    501.54     22.40
 41.17    475.00     21.79
 41.27    476.55     21.83
 41.37    504.00     22.45
 41.47    520.00     22.80
 41.57    471.50     21.71
 41.67    479.45     21.90
 41.77    493.00     22.20
 41.87    469.80     21.67
 41.97    491.00     22.16
 42.07    551.00     23.47
 42.17    482.12     21.96
 42.27    530.00     23.02
 42.37    515.39     22.70
 42.47    615.40     24.81
 42.57    576.00     24.00
 42.67    588.00     24.25
 42.77    568.00     23.83
 42.87    629.52     25.09
 42.97    557.00     23.60
 43.07    567.00     23.81
 43.17    503.00     22.43
 43.27    472.68     21.74
 43.37    505.00     22.47
 43.47    509.00     22.56
 43.57    545.58     23.36
 43.67    532.61     23.08
 43.77    458.56     21.41
 43.87    503.00     22.43
 43.97    515.98     22.72
 44.07    483.00     21.98
 44.17    539.98     23.24
 44.27    545.92     23.36
 44.37    528.11     22.98
 44.47    508.00     22.54
 44.57    516.00     22.72
 44.67    516.00     22.72
 44.77    490.00     22.14
 44.87    495.68     22.26
 44.97    501.17     22.39
 45.07    542.00     23.28
 45.17    487.00     22.07
 45.27    478.17     21.87
 45.37    495.00     22.25
 45.47    510.00     22.58
 45.57    497.48     22.30
 45.67    526.00     22.93
 45.77    461.02     21.47
 45.87    476.00     21.82
 45.97    458.30     21.41
 46.07    479.00     21.89
 46.17    493.00     22.20
 46.27    497.00     22.29
 46.37    530.00     23.02
 46.47    491.00     22.16
 46.57    463.32     21.52
 46.67    483.93     22.00
 46.77    481.00     21.93
 46.87    503.00     22.43
 46.97    493.00     22.20
 47.07    533.76     23.10
 47.17    453.00     21.28
 47.27    498.00     22.32
 47.37    505.00     22.47
 47.47    501.67     22.40
 47.57    568.00     23.83
 47.67    553.00     23.52
 47.77    564.00     23.75
 47.87    531.74     23.06
 47.97    594.00     24.37
 48.07    538.00     23.19
 48.17    570.00     23.87
 48.27    592.40     24.34
 48.37    509.01     22.56
 48.47    497.21     22.30
 48.57    516.00     22.72
 48.67    510.00     22.58
 48.77    495.00     22.25
 48.87    531.00     23.04
 48.97    555.00     23.56
 49.07    509.00     22.56
 49.17    618.31     24.87
 49.27    635.00     25.20
 49.37    619.30     24.89
 49.47    728.00     26.98
 49.57    709.78     26.64
 49.67    840.24     28.99
 49.77   1006.32     31.72
 49.87   1375.05     37.08
 49.97   1816.00     42.61
 50.07   2142.00     46.28
 50.17   2456.00     49.56
 50.27   2515.00     50.15
 50.37   2337.86     48.35
 50.47   1982.15     44.52
 50.57   1604.60     40.06
 50.67   1222.98     34.97
 50.77    879.00     29.65
 50.87    795.21     28.20
 50.97    705.56     26.56
 51.07    628.00     25.06
 51.17    641.00     25.32
 51.27    632.00     25.14
 51.37    537.75     23.19
 51.47    563.00     23.73
 51.57    562.00     23.71
 51.67    559.00     23.64
 51.77    584.00     24.17
 51.87    488.39     22.10
 51.97    536.61     23.16
 52.07    553.00     23.52
 52.17    551.00     23.47
 52.27    513.13     22.65
 52.37    523.00     22.87
 52.47    529.00     23.00
 52.57    499.37     22.35
 52.67    553.00     23.52
 52.77    590.00     24.29
 52.87    631.00     25.12
 52.97    593.86     24.37
 53.07    722.87     26.89
 53.17    838.49     28.96
 53.27    970.00     31.14
 53.37   1141.00     33.78
 53.47   1129.60     33.61
 53.57   1238.00     35.19
 53.67   1138.31     33.74
 53.77   1076.00     32.80
 53.87    891.00     29.85
 53.97    861.27     29.35
 54.07    697.00     26.40
 54.17    655.74     25.61
 54.27    632.00     25.14
 54.37    539.00     23.22
 54.47    617.00     24.84
 54.57    582.00     24.12
 54.67    581.65     24.12
 54.77    511.00     22.61
 54.87    578.00     24.04
 54.97    570.09     23.88
 55.07    573.00     23.94
 55.17    530.00     23.02
 55.27    560.62     23.68
 55.37    560.00     23.66
 55.47    542.00     23.28
 55.57    519.00     22.78
 55.67    586.00     24.21
 55.77    571.47     23.91
 55.87    591.00     24.31
 55.97    549.09     23.43
 56.07    630.00     25.10
 56.17    665.00     25.79
 56.27    741.00     27.22
 56.37    956.00     30.92
 56.47   1343.28     36.65
 56.57   1638.00     40.47
 56.67   1995.00     44.67
 56.77   2305.74     48.02
 56.87   2525.00     50.25
 56.97   2660.43     51.58
 57.07   2459.40     49.59
 57.17   2290.00     47.85
 57.27   1823.00     42.70
 57.37   1445.00     38.01
 57.47   1126.00     33.56
 57.57    923.00     30.38
 57.67    737.00     27.15
 57.77    696.00     26.38
 57.87    714.00     26.72
 57.97    679.23     26.06
 58.07    649.00     25.48
 58.17    718.13     26.80
 58.27    743.00     27.26
 58.37    856.51     29.27
 58.47    894.00     29.90
 58.57    989.00     31.45
 58.67   1201.00     34.66
 58.77   1325.76     36.41
 58.87   1482.27     38.50
 58.97   1599.01     39.99
 59.07   1633.00     40.41
 59.17   1660.00     40.74
 59.27   1537.00     39.20
 59.37   1359.82     36.88
 59.47   1331.00     36.48
 59.57   1122.51     33.50
 59.67   1129.00     33.60
 59.77   1179.42     34.34
 59.87   1211.93     34.81
 59.97   1164.70     34.13
 60.07   1357.23     36.84
 60.17   1520.00     38.99
 60.27   1491.35     38.62
 60.37   1608.00     40.10
 60.47   1453.28     38.12
 60.57   1374.44     37.07
 60.67   1126.79     33.57
 60.77    971.00     31.16
 60.87    826.00     28.74
 60.97    699.00     26.44
 61.07    659.00     25.67
 61.17    602.00     24.54
 61.27    620.00     24.90
 61.37    607.35     24.64
 61.47    699.00     26.44
 61.57    692.00     26.31
 61.67    779.38     27.92
 61.77    844.00     29.05
 61.87   1004.00     31.69
 61.97   1147.60     33.88
 62.07   1287.37     35.88
 62.17   1418.00     37.66
 62.27   1463.00     38.25
 62.37   1288.00     35.89
 62.47   1266.00     35.58
 62.57   1122.00     33.50
 62.67    943.00     30.71
 62.77    882.91     29.71
 62.87    732.00     27.06
 62.97    612.00     24.74
 63.07    650.70     25.51
 63.17    593.00     24.35
 63.27    615.00     24.80
 63.37    615.00     24.80
 63.47    509.86     22.58
 63.57    530.00     23.02
 63.67    601.37     24.52
 63.77    610.93     24.72
 63.87    573.00     23.94
 63.97    611.00     24.72
 64.07    637.97     25.26
 64.17    744.00     27.28
 64.27    820.00     28.64
 64.37    847.00     29.10
 64.47    923.00     30.38
 64.57    939.09     30.64
 64.67    944.07     30.73
 64.77   1003.00     31.67
 64.87    978.00     31.27
 64.97    909.00     30.15
 65.07    920.00     30.33
 65.17    825.00     28.72
 65.27    713.81     26.72
 65.37    723.00     26.89
 65.47    615.23     24.80
 65.57    594.00     24.37
 65.67    591.00     24.31
 65.77    556.00     23.58
 65.87    579.00     24.06
 65.97    518.00     22.76
 66.07    547.00     23.39
 66.17    597.00     24.43
 66.27    535.00     23.13
 66.37    510.00     22.58
 66.47    555.25     23.56
 66.57    561.59     23.70
 66.67    560.00     23.66
 66.77    535.00     23.13
 66.87    591.25     24.32
 66.97    548.45     23.42
 67.07    582.89     24.14
 67.17    658.02     25.65
 67.27    705.54     26.56
 67.37    838.32     28.95
 67.47    928.00     30.46
 67.57   1100.10     33.17
 67.67   1400.05     37.42
 67.77   1635.00     40.44
 67.87   1838.00     42.87
 67.97   2260.00     47.54
 68.07   2479.00     49.79
 68.17   2469.00     49.69
 68.27   2414.00     49.13
 68.37   2247.11     47.40
 68.47   1996.00     44.68
 68.57   1669.00     40.85
 68.67   1446.00     38.03
 68.77   1109.84     33.31
 68.87    982.00     31.34
 68.97    774.00     27.82
 69.07    758.00     27.53
 69.17    683.00     26.13
 69.27    665.00     25.79
 69.37    618.00     24.86
 69.47    609.68     24.69
 69.57    577.00     24.02
 69.67    595.52     24.40
 69.77    559.08     23.64
 69.87    566.48     23.80
 69.97    583.00     24.15
 70.07    616.00     24.82
 70.17    584.00     24.17
 70.27    518.00     22.76
 70.37    563.00     23.73
 70.47    550.00     23.45
 70.57    562.00     23.71
 70.67    534.00     23.11
 70.77    588.71     24.26
 70.87    553.00     23.52
 70.97    623.31     24.97
 71.07    659.00     25.67
 71.17    711.00     26.66
 71.27    721.00     26.85
 71.37    890.00     29.83
 71.47    900.00     30.00
 71.57   1134.00     33.67
 71.67   1354.00     36.80
 71.77   1515.52     38.93
 71.87   1664.00     40.79
 71.97   1845.00     42.95
 72.07   1940.00     44.05
 72.17   1893.00     43.51
 72.27   1815.86     42.61
 72.37   1848.00     42.99
 72.47   1583.00     39.79
 72.57   1537.00     39.20
 72.67   1323.00     36.37
 72.77   1174.00     34.26
 72.87   1069.00     32.70
 72.97    984.00     31.37
 73.07    980.60     31.31
 73.17    841.30     29.01
 73.27    820.07     28.64
 73.37    721.00     26.85
 73.47    699.00     26.44
 73.57    631.00     25.12
 73.67    638.00     25.26
 73.77    563.00     23.73
 73.87    600.00     24.49
 73.97    558.00     23.62
 74.07    596.00     24.41
 74.17    556.00     23.58
 74.27    608.00     24.66
 74.37    547.00     23.39
 74.47    548.60     23.42
 74.57    621.00     24.92
 74.67    666.00     25.81
 74.77    632.00     25.14
 74.87    656.00     25.61
 74.97    620.00     24.90
 75.07    511.27     22.61
 75.17    548.00     23.41
 75.27    552.00     23.49
 75.37    553.00     23.52
 75.47    501.80     22.40
 75.57    541.00     23.26
 75.67    564.00     23.75
 75.77    560.33     23.67
 75.87    579.60     24.07
 75.97    557.95     23.62
 76.07    599.00     24.47
 76.17    666.00     25.81
 76.27    608.00     24.66
 76.37    658.00     25.65
 76.47    714.74     26.73
 76.57    649.00     25.48
 76.67    737.60     27.16
 76.77    684.00     26.15
 76.87    626.49     25.03
 76.97    685.21     26.18
 77.07    660.00     25.69
 77.17    651.03     25.52
 77.27    591.00     24.31
 77.37    594.00     24.37
 77.47    579.57     24.07
 77.57    564.65     23.76
 77.67    530.00     23.02
 77.77    493.00     22.20
 77.87    545.00     23.35
 77.97    537.43     23.18
 78.07    528.00     22.98
 78.17    509.42     22.57
 78.27    534.00     23.11
 78.37    497.42     22.30
 78.47    515.00     22.69
 78.57    481.00     21.93
 78.67    538.00     23.19
 78.77    511.00     22.61
 78.87    524.00     22.89
 78.97    511.00     22.61
 79.07    549.00     23.43
 79.17    486.00     22.05
 79.27    490.14     22.14
 79.37    514.00     22.67
 79.47    526.00     22.93
 79.57    535.20     23.13
 79.67    521.00     22.83
 79.77    516.20     22.72
 79.87    528.00     22.98
 79.97    529.00     23.00
 80.07    503.00     22.43
 80.17    561.96     23.71
 80.27    547.07     23.39
 80.37    537.00     23.17
 80.47    581.00     24.10
 80.57    602.55     24.55
 80.67    572.32     23.92
 80.77    626.50     25.03
 80.87    623.00     24.96
 80.97    682.59     26.13
 81.07    673.81     25.96
 81.17    746.00     27.31
 81.27    684.15     26.16
 81.37    777.87     27.89
 81.47    810.00     28.46
 81.57    763.37     27.63
 81.67    823.00     28.69
 81.77    799.00     28.27
 81.87    663.89     25.77
 81.97    725.00     26.93
 82.07    672.21     25.93
 82.17    637.00     25.24
 82.27    652.00     25.53
 82.37    613.17     24.76
 82.47    560.05     23.67
 82.57    602.00     24.54
 82.67    554.67     23.55
 82.77    585.00     24.19
 82.87    543.00     23.30
 82.97    517.94     22.76
 83.07    590.59     24.30
 83.17    579.00     24.06
 83.27    520.28     22.81
 83.37    503.53     22.44
 83.47    587.31     24.23
 83.57    543.00     23.30
 83.67    550.00     23.45
 83.77    525.14     22.92
 83.87    551.00     23.47
 83.97    507.00     22.52
 84.07    592.92     24.35
 84.17    560.00     23.66
 84.27    604.44     24.59
 84.37    591.00     24.31
 84.47    556.00     23.58
 84.57    560.00     23.66
 84.67    547.00     23.39
 84.77    549.00     23.43
 84.87    530.00     23.02
 84.97    520.00     22.80
 85.07    459.00     21.42
 85.17    489.00     22.11
 85.27    508.28     22.55
 85.37    530.00     23.02
 85.47    517.00     22.74
 85.57    538.50     23.21
 85.67    520.00     22.80
 85.77    503.57     22.44
 85.87    486.02     22.05
 85.97    529.00     23.00
 86.07    539.00     23.22
 86.17    524.26     22.90
 86.27    499.51     22.35
 86.37    529.18     23.00
 86.47    531.00     23.04
 86.57    587.32     24.23
 86.67    551.47     23.48
 86.77    541.00     23.26
 86.87    531.91     23.06
 86.97    595.00     24.39
 87.07    585.00     24.19
 87.17    631.00     25.12
 87.27    659.00     25.67
 87.37    640.50     25.31
 87.47    639.74     25.29
 87.57    633.09     25.16
 87.67    656.00     25.61
 87.77    576.97     24.02
 87.87    648.67     25.47
 87.97    647.82     25.45
 88.07    580.29     24.09
 88.17    577.00     24.02
 88.27    562.00     23.71
 88.37    602.00     24.54
 88.47    547.54     23.40
 88.57    514.00     22.67
 88.67    536.99     23.17
 88.77    573.00     23.94
 88.87    579.27     24.07
 88.97    634.00     25.18
 89.07    606.05     24.62
 89.17    594.00     24.37
 89.27    591.82     24.33
 89.37    625.00     25.00
 89.47    524.00     22.89
 89.57    600.00     24.49
 89.67    638.15     25.26
 89.77    594.00     24.37
 89.87    619.84     24.90
 89.97    578.75     24.06
 90.07    576.00     24.00
 90.17    507.00     22.52
 90.27    541.16     23.26
 90.37    536.00     23.15
 90.47    537.25     23.18
 90.57    495.02     22.25
 90.67    549.89     23.45
 90.77    540.00     23.24
 90.87    488.00     22.09
 90.97    532.31     23.07
 91.07    526.00     22.93
 91.17    486.00     22.05
 91.27    521.48     22.84
 91.37    506.00     22.49
 91.47    531.00     23.04
 91.57    482.93     21.98
 91.67    542.00     23.28
 91.77    540.00     23.24
 91.87    523.00     22.87
 91.97    551.00     23.47
 92.07    523.00     22.87
 92.17    553.00     23.52
 92.27    564.00     23.75
 92.37    539.03     23.22
 92.47    609.95     24.70
 92.57    589.42     24.28
 92.67    682.48     26.12
 92.77    688.00     26.23
 92.87    736.00     27.13
 92.97    768.00     27.71
 93.07    691.00     26.29
 93.17    774.48     27.83
 93.27    765.95     27.68
 93.37    751.00     27.40
 93.47    764.66     27.65
 93.57    752.20     27.43
 93.67    857.01     29.27
 93.77    855.00     29.24
 93.87    776.90     27.87
 93.97    824.00     28.71
 94.07    841.48     29.01
 94.17    847.00     29.10
 94.27    846.00     29.09
 94.37    839.24     28.97
 94.47    838.00     28.95
 94.57    882.00     29.70
 94.67    842.00     29.02
 94.77    942.00     30.69
 94.87    900.00     30.00
 94.97    860.64     29.34
 95.07    951.00     30.84
 95.17    834.00     28.88
 95.27    867.00     29.44
 95.37    827.00     28.76
 95.47    767.00     27.69
 95.57    788.00     28.07
 95.67    768.00     27.71
 95.77    702.00     26.50
 95.87    668.00     25.85
 95.97    697.00     26.40
 96.07    713.74     26.72
 96.17    645.67     25.41
 96.27    676.00     26.00
 96.37    725.00     26.93
 96.47    794.00     28.18
 96.57    809.00     28.44
 96.67    865.00     29.41
 96.77    865.00     29.41
 96.87    952.00     30.85
 96.97   1056.00     32.50
 97.07   1115.00     33.39
 97.17   1254.05     35.41
 97.27   1239.00     35.20
 97.37   1398.18     37.39
 97.47   1356.00     36.82
 97.57   1357.42     36.84
 97.67   1476.00     38.42
 97.77   1427.00     37.78
 97.87   1481.00     38.48
 97.97   1402.00     37.44
 98.07   1253.37     35.40
 98.17   1303.00     36.10
 98.27   1098.66     33.15
 98.37   1073.00     32.76
 98.47    958.89     30.97
 98.57    959.86     30.98
 98.67    917.00     30.28
 98.77    815.00     28.55
 98.87    830.00     28.81
 98.97    830.93     28.83
 99.07    802.00     28.32
 99.17    803.00     28.34
 99.27    833.00     28.86
 99.37    870.00     29.50
 99.47    932.00     30.53
 99.57    968.00     31.11
 99.67   1098.54     33.14
 99.77   1146.00     33.85
 99.87   1225.00     35.00
 99.97   1446.64     38.03
100.07   1539.00     39.23
100.17   1652.00     40.64
100.27   1763.67     42.00
100.37   1819.16     42.65
100.47   1932.57     43.96
100.57   2024.03     44.99
100.67   2139.77     46.26
100.77   2016.65     44.91
100.87   2013.33     44.87
100.97   2133.06     46.19
101.07   2123.00     46.08
101.17   1973.50     44.42
101.27   1931.72     43.95
101.37   1836.00     42.85
101.47   1826.61     42.74
101.57   1654.00     40.67
101.67   1624.00     40.30
101.77   1480.00     38.47
101.87   1413.00     37.59
101.97   1314.73     36.26
102.07   1268.00     35.61
102.17   1181.00     34.37
102.27   1178.52     34.33
102.37   1156.50     34.01
102.47   1189.56     34.49
102.57   1122.00     33.50
102.67   1075.00     32.79
102.77   1092.00     33.05
102.87   1071.00     32.73
102.97   1045.63     32.34
103.07    940.00     30.66
103.17    906.54     30.11
103.27    825.45     28.73
103.37    822.90     28.69
103.47    801.00     28.30
103.57    753.54     27.45
103.67    690.76     26.28
103.77    614.00     24.78
103.87    656.64     25.62
103.97    637.04     25.24
104.07    633.00     25.16
104.17    572.00     23.92
104.27    595.00     24.39
104.37    586.00     24.21
104.47    552.00     23.49
104.57    496.57     22.28
104.67    514.00     22.67
104.77    512.00     22.63
104.87    561.00     23.69
104.97    531.00     23.04
105.07    525.00     22.91
105.17    562.19     23.71
105.27    494.97     22.25
105.37    531.00     23.04
105.47    559.52     23.65
105.57    518.00     22.76
105.67    540.59     23.25
105.77    488.02     22.09
105.87    499.86     22.36
105.97    531.00     23.04
106.07    548.00     23.41
106.17    567.00     23.81
106.27    558.00     23.62
106.37    581.76     24.12
106.47    558.37     23.63
106.57    590.82     24.31
106.67    613.27     24.76
106.77    586.37     24.21
106.87    637.00     25.24
106.97    667.00     25.83
107.07    662.00     25.73
107.17    658.00     25.65
107.27    654.00     25.57
107.37    695.85     26.38
107.47    695.42     26.37
107.57    703.31     26.52
107.67    656.00     25.61
107.77    671.85     25.92
107.87    642.00     25.34
107.97    658.00     25.65
108.07    688.00     26.23
108.17    682.00     26.12
108.27    630.00     25.10
108.37    640.00     25.30
108.47    681.00     26.10
108.57    667.01     25.83
108.67    641.00     25.32
108.77    657.40     25.64
108.87    640.81     25.31
108.97    648.00     25.46
109.07    641.52     25.33
109.17    663.00     25.75
109.27    661.28     25.72
109.37    670.73     25.90
109.47    675.00     25.98
109.57    610.00     24.70
109.67    629.00     25.08
109.77    616.00     24.82
109.87    595.00     24.39
109.97    582.91     24.14
110.07    574.53     23.97
110.17    626.00     25.02
110.27    567.00     23.81
110.37    575.45     23.99
110.47    549.00     23.43
110.57    535.74     23.15
110.67    548.00     23.41
110.77    505.90     22.49
110.87    557.00     23.60
110.97    543.70     23.32
111.07    562.36     23.71
111.17    507.97     22.54
111.27    542.00     23.28
111.37    522.00     22.85
111.47    498.87     22.34
111.57    504.86     22.47
111.67    523.00     22.87
111.77    541.74     23.28
111.87    517.00     22.74
111.97    590.00     24.29
112.07    541.00     23.26
112.17    529.47     23.01
112.27    528.42     22.99
112.37    534.00     23.11
112.47    559.00     23.64
112.57    595.00     24.39
112.67    556.88     23.60
112.77    595.00     24.39
112.87    646.00     25.42
112.97    630.32     25.11
113.07    615.22     24.80
113.17    626.00     25.02
113.27    747.14     27.33
113.37    696.00     26.38
113.47    743.00     27.26
113.57    788.00     28.07
113.67    830.00     28.81
113.77    900.00     30.00
113.87    931.00     30.51
113.97    916.00     30.27
114.07   1006.20     31.72
114.17   1117.89     33.43
114.27   1090.39     33.02
114.37   1196.00     34.58
114.47   1332.87     36.51
114.57   1435.81     37.89
114.67   1479.00     38.46
114.77   1582.00     39.77
114.87   1826.00     42.73
114.97   1913.00     43.74
115.07   2056.69     45.35
115.17   2305.08     48.01
115.27   2440.72     49.40
115.37   2913.77     53.98
115.47   3014.88     54.91
115.57   3431.99     58.58
115.67   3733.00     61.10
115.77   4207.43     64.86
115.87   4432.65     66.58
115.97   4902.33     70.02
116.07   5170.00     71.90
116.17   5458.00     73.88
116.27   6165.07     78.52
116.37   6394.00     79.96
116.47   6789.41     82.40
116.57   7011.00     83.73
116.67   6939.94     83.31
116.77   7252.00     85.16
116.87   7152.00     84.57
116.97   7017.00     83.77
117.07   7043.00     83.92
117.17   6670.58     81.67
117.27   6432.00     80.20
117.37   6082.16     77.99
117.47   5527.00     74.34
117.57   5024.00     70.88
117.67   4944.66     70.32
117.77   4335.53     65.84
117.87   4132.00     64.28
117.97   3831.00     61.90
118.07   3244.92     56.96
118.17   3104.00     55.71
118.27   2699.00     51.95
118.37   2338.00     48.35
118.47   2114.85     45.99
118.57   1813.49     42.59
118.67   1551.99     39.40
118.77   1505.29     38.80
118.87   1250.00     35.36
118.97   1128.00     33.59
119.07   1055.00     32.48
119.17    982.00     31.34
119.27    858.00     29.29
119.37    850.00     29.15
119.47    775.00     27.84
119.57    714.00     26.72
119.67    713.99     26.72
119.77    662.84     25.75
119.87    667.83     25.84
119.97    650.99     25.51
120.07    604.00     24.58
120.17    621.00     24.92
120.27    614.00     24.78
120.37    532.00     23.07
120.47    615.00     24.80
120.57    580.00     24.08
120.67    582.84     24.14
120.77    560.00     23.66
120.87    528.00     22.98
120.97    538.00     23.19
121.07    594.48     24.38
121.17    550.69     23.47
121.27    534.00     23.11
121.37    527.00     22.96
121.47    540.82     23.26
121.57    573.00     23.94
121.67    593.00     24.35
121.77    559.49     23.65
121.87    554.77     23.55
121.97    543.70     23.32
122.07    591.00     24.31
122.17    553.93     23.54
122.27    624.00     24.98
122.37    586.82     24.22
122.47    650.08     25.50
122.57    589.00     24.27
122.67    608.00     24.66
122.77    665.20     25.79
122.87    678.00     26.04
122.97    631.00     25.12
123.07    639.00     25.28
123.17    652.00     25.53
123.27    662.00     25.73
123.37    644.00     25.38
123.47    607.00     24.64
123.57    681.00     26.10
123.67    643.00     25.36
123.77    596.00     24.41
123.87    619.00     24.88
123.97    622.00     24.94
124.07    643.87     25.37
124.17    588.00     24.25
124.27    630.00     25.10
124.37    602.00     24.54
124.47    576.00     24.00
124.57    573.20     23.94
124.67    608.00     24.66
124.77    624.90     25.00
124.87    570.25     23.88
124.97    589.58     24.28
