XYDATA



INTER 1.0 1.0 0 0
TEMP 439.25
  9.97    711.00     26.66
 10.07    814.00     28.53
 10.17    713.00     26.70
 10.27    782.00     27.96
 10.37    767.00     27.69
 10.47    724.00     26.91
 10.57    752.00     27.42
 10.67    817.00     28.58
 10.77    766.00     27.68
 10.87    747.50     27.34
 10.97    729.31     27.01
 11.07    780.64     27.94
 11.17    767.00     27.69
 11.27    784.00     28.00
 11.37    765.00     27.66
 11.47    741.57     27.23
 11.57    751.35     27.41
 11.67    768.98     27.73
 11.77    754.77     27.47
 11.87    801.00     28.30
 11.97    831.00     28.83
 12.07    851.00     29.17
 12.17    900.00     30.00
 12.27    841.78     29.01
 12.37    837.22     28.93
 12.47    878.00     29.63
 12.57    822.00     28.67
 12.67    774.00     27.82
 12.77    731.77     27.05
 12.87    689.00     26.25
 12.97    720.00     26.83
 13.07    696.00     26.38
 13.17    759.00     27.55
 13.27    717.00     26.78
 13.37    688.00     26.23
 13.47    661.00     25.71
 13.57    753.35     27.45
 13.67    682.86     26.13
 13.77    714.00     26.72
 13.87    677.82     26.03
 13.97    756.23     27.50
 14.07    761.39     27.59
 14.17    754.00     27.46
 14.27    719.10     26.82
 14.37    691.00     26.29
 14.47    686.00     26.19
 14.57    730.00     27.02
 14.67    713.05     26.70
 14.77    688.00     26.23
 14.87    672.00     25.92
 14.97    721.00     26.85
 15.07    683.00     26.13
 15.17    689.00     26.25
 15.27    721.34     26.86
 15.37    692.00     26.31
 15.47    731.40     27.04
 15.57    682.00     26.12
 15.67    676.00     26.00
 15.77    681.00     26.10
 15.87    644.00     25.38
 15.97    716.00     26.76
 16.07    705.19     26.56
 16.17    692.00     26.31
 16.27    694.00     26.34
 16.37    668.00     25.85
 16.47    639.96     25.30
 16.57    675.79     26.00
 16.67    654.89     25.59
 16.77    678.00     26.04
 16.87    657.00     25.63
 16.97    693.00     26.32
 17.07    637.17     25.24
 17.17    703.31     26.52
 17.27    670.00     25.88
 17.37    720.00     26.83
 17.47    690.99     26.29
 17.57    729.03     27.00
 17.67    699.00     26.44
 17.77    701.00     26.48
 17.87    673.61     25.95
 17.97    704.16     26.54
 18.07    690.00     26.27
 18.17    690.09     26.27
 18.27    691.00     26.29
 18.37    675.00     25.98
 18.47    700.00     26.46
 18.57    643.29     25.36
 18.67    736.00     27.13
 18.77    648.00     25.46
 18.87    721.49     26.86
 18.97    661.11     25.71
 19.07    650.93     25.51
 19.17    694.03     26.34
 19.27    683.26     26.14
 19.37    673.00     25.94
 19.47    699.54     26.45
 19.57    724.49     26.92
 19.67    631.00     25.12
 19.77    630.00     25.10
 19.87    663.00     25.75
 19.97    721.77     26.87
 20.07    663.00     25.75
 20.17    623.30     24.97
 20.27    657.00     25.63
 20.37    709.78     26.64
 20.47    667.00     25.83
 20.57    650.28     25.50
 20.67    636.20     25.22
 20.77    709.96     26.65
 20.87    660.00     25.69
 20.97    625.00     25.00
 21.07    653.00     25.55
 21.17    620.00     24.90
 21.27    662.00     25.73
 21.37    634.00     25.18
 21.47    656.29     25.62
 21.57    626.00     25.02
 21.67    632.40     25.15
 21.77    655.00     25.59
 21.87    618.00     24.86
 21.97    676.43     26.01
 22.07    686.00     26.19
 22.17    634.00     25.18
 22.27    634.00     25.18
 22.37    674.00     25.96
 22.47    641.00     25.32
 22.57    694.00     26.34
 22.67    638.27     25.26
 22.77    691.81     26.30
 22.87    638.00     25.26
 22.97    660.00     25.69
 23.07    643.00     25.36
 23.17    682.00     26.12
 23.27    685.31     26.18
 23.37    613.00     24.76
 23.47    618.00     24.86
 23.57    641.00     25.32
 23.67    698.00     26.42
 23.77    688.00     26.23
 23.87    657.36     25.64
 23.97    633.00     25.16
 24.07    678.30     26.04
 24.17    635.00     25.20
 24.27    696.99     26.40
 24.37    683.17     26.14
 24.47    695.00     26.36
 24.57    714.00     26.72
 24.67    697.47     26.41
 24.77    676.00     26.00
 24.87    695.93     26.38
 24.97    760.45     27.58
 25.07    771.46     27.78
 25.17    779.00     27.91
 25.27    673.00     25.94
 25.37    721.69     26.86
 25.47    700.65     26.47
 25.57    731.76     27.05
 25.67    678.00     26.04
 25.77    719.00     26.81
 25.87    683.00     26.13
 25.97    668.00     25.85
 26.07    701.00     26.48
 26.17    700.32     26.46
 26.27    680.00     26.08
 26.37    656.00     25.61
 26.47    663.00     25.75
 26.57    660.30     25.70
 26.67    720.00     26.83
 26.77    687.00     26.21
 26.87    697.00     26.40
 26.97    683.20     26.14
 27.07    746.62     27.32
 27.17    728.00     26.98
 27.27    729.00     27.00
 27.37    732.00     27.06
 27.47    824.00     28.71
 27.57    819.00     28.62
 27.67    839.80     28.98
 27.77    935.00     30.58
 27.87   1089.00     33.00
 27.97   1457.72     38.18
 28.07   2082.00     45.63
 28.17   3479.64     58.99
 28.27   5777.16     76.01
 28.37   7805.00     88.35
 28.47   9363.00     96.76
 28.57   8875.00     94.21
 28.67   6822.03     82.60
 28.77   5057.89     71.12
 28.87   4228.00     65.02
 28.97   4171.00     64.58
 29.07   4963.00     70.45
 29.17   5327.00     72.99
 29.27   5038.00     70.98
 29.37   3896.37     62.42
 29.47   2833.00     53.23
 29.57   1904.00     43.63
 29.67   1454.53     38.14
 29.77   1238.00     35.19
 29.87    996.00     31.56
 29.97    930.00     30.50
 30.07    904.00     30.07
 30.17    834.00     28.88
 30.27    737.29     27.15
 30.37    749.00     27.37
 30.47    785.00     28.02
 30.57    769.01     27.73
 30.67    703.00     26.51
 30.77    779.00     27.91
 30.87    775.00     27.84
 30.97    758.00     27.53
 31.07    828.00     28.77
 31.17    813.00     28.51
 31.27    797.90     28.25
 31.37    742.00     27.24
 31.47    774.00     27.82
 31.57    754.00     27.46
 31.67    644.56     25.39
 31.77    736.00     27.13
 31.87    723.24     26.89
 31.97    640.08     25.30
 32.07    673.26     25.95
 32.17    657.00     25.63
 32.27    651.00     25.51
 32.37    641.64     25.33
 32.47    698.00     26.42
 32.57    687.00     26.21
 32.67    612.88     24.76
 32.77    653.92     25.57
 32.87    600.49     24.50
 32.97    661.00     25.71
 33.07    691.00     26.29
 33.17    720.00     26.83
 33.27    652.68     25.55
 33.37    707.08     26.59
 33.47    686.00     26.19
 33.57    701.04     26.48
 33.67    663.76     25.76
 33.77    734.00     27.09
 33.87    736.00     27.13
 33.97    820.28     28.64
 34.07   1000.00     31.62
 34.17   1161.00     34.07
 34.27   1195.00     34.57
 34.37   1358.00     36.85
 34.47   1278.00     35.75
 34.57   1104.43     33.23
 34.67    999.19     31.61
 34.77    890.44     29.84
 34.87    761.00     27.59
 34.97    748.75     27.36
 35.07    714.01     26.72
 35.17    694.00     26.34
 35.27    706.00     26.57
 35.37    693.00     26.32
 35.47    614.25     24.78
 35.57    619.00     24.88
 35.67    660.10     25.69
 35.77    683.00     26.13
 35.87    671.00     25.90
 35.97    655.00     25.59
 36.07    596.75     24.43
 36.17    664.33     25.77
 36.27    682.92     26.13
 36.37    609.79     24.69
 36.47    624.00     24.98
 36.57    629.00     25.08
 36.67    589.41     24.28
 36.77    600.00     24.49
 36.87    692.00     26.31
 36.97    596.00     24.41
 37.07    652.34     25.54
 37.17    680.83     26.09
 37.27    609.00     24.68
 37.37    695.00     26.36
 37.47    682.63     26.13
 37.57    643.00     25.36
 37.67    699.00     26.44
 37.77    685.27     26.18
 37.87    700.09     26.46
 37.97    685.00     26.17
 38.07    737.00     27.15
 38.17    747.84     27.35
 38.27    763.00     27.62
 38.37    791.90     28.14
 38.47    781.00     27.95
 38.57    783.00     27.98
 38.67    699.00     26.44
 38.77    736.85     27.14
 38.87    682.00     26.12
 38.97    664.00     25.77
 39.07    662.00     25.73
 39.17    622.01     24.94
 39.27    600.02     24.50
 39.37    598.00     24.45
 39.47    584.15     24.17
 39.57    604.00     24.58
 39.67    641.00     25.32
 39.77    662.00     25.73
 39.87    678.00     26.04
 39.97    664.53     25.78
 40.07    616.00     24.82
 40.17    618.00     24.86
 40.27    580.81     24.10
 40.37    670.00     25.88
 40.47    660.00     25.69
 40.57    622.00     24.94
 40.67    651.41     25.52
 40.77    647.44     25.44
 40.87    670.00     25.88
 40.97    676.67     26.01
 41.07    674.42     25.97
 41.17    650.00     25.50
 41.27    617.54     24.85
 41.37    619.00     24.88
 41.47    636.25     25.22
 41.57    585.00     24.19
 41.67    590.12     24.29
 41.77    647.85     25.45
 41.87    667.00     25.83
 41.97    640.40     25.31
 42.07    634.38     25.19
 42.17    627.21     25.04
 42.27    639.00     25.28
 42.37    634.00     25.18
 42.47    620.00     24.90
 42.57    633.00     25.16
 42.67    656.00     25.61
 42.77    674.00     25.96
 42.87    696.38     26.39
 42.97    696.00     26.38
 43.07    707.42     26.60
 43.17    771.85     27.78
 43.27    718.10     26.80
 43.37    714.92     26.74
 43.47    723.27     26.89
 43.57    585.00     24.19
 43.67    665.00     25.79
 43.77    619.00     24.88
 43.87    624.00     24.98
 43.97    641.00     25.32
 44.07    673.00     25.94
 44.17    613.00     24.76
 44.27    657.00     25.63
 44.37    629.00     25.08
 44.47    663.58     25.76
 44.57    638.59     25.27
 44.67    654.00     25.57
 44.77    687.00     26.21
 44.87    687.00     26.21
 44.97    626.00     25.02
 45.07    656.78     25.63
 45.17    628.51     25.07
 45.27    592.00     24.33
 45.37    669.44     25.87
 45.47    670.00     25.88
 45.57    642.00     25.34
 45.67    622.31     24.95
 45.77    645.00     25.40
 45.87    671.00     25.90
 45.97    661.88     25.73
 46.07    637.00     25.24
 46.17    592.19     24.34
 46.27    633.15     25.16
 46.37    653.00     25.55
 46.47    679.00     26.06
 46.57    669.09     25.87
 46.67    626.00     25.02
 46.77    592.00     24.33
 46.87    594.93     24.39
 46.97    594.50     24.38
 47.07    641.00     25.32
 47.17    686.26     26.20
 47.27    607.36     24.64
 47.37    629.94     25.10
 47.47    627.00     25.04
 47.57    629.00     25.08
 47.67    694.00     26.34
 47.77    626.43     25.03
 47.87    683.00     26.13
 47.97    702.00     26.50
 48.07    722.38     26.88
 48.17    693.33     26.33
 48.27    724.00     26.91
 48.37    708.00     26.61
 48.47    692.00     26.31
 48.57    759.00     27.55
 48.67    696.00     26.38
 48.77    713.00     26.70
 48.87    665.00     25.79
 48.97    649.00     25.48
 49.07    661.00     25.71
 49.17    703.00     26.51
 49.27    718.01     26.80
 49.37    671.00     25.90
 49.47    719.78     26.83
 49.57    696.00     26.38
 49.67    701.73     26.49
 49.77    746.10     27.31
 49.87    859.27     29.31
 49.97   1007.04     31.73
 50.07   1202.08     34.67
 50.17   1460.00     38.21
 50.27   1906.00     43.66
 50.37   2407.00     49.06
 50.47   2913.00     53.97
 50.57   3212.00     56.67
 50.67   3293.00     57.38
 50.77   3114.00     55.80
 50.87   2698.00     51.94
 50.97   2068.00     45.48
 51.07   1565.49     39.57
 51.17   1277.00     35.74
 51.27   1085.00     32.94
 51.37    931.00     30.51
 51.47    836.00     28.91
 51.57    746.30     27.32
 51.67    775.00     27.84
 51.77    779.45     27.92
 51.87    793.00     28.16
 51.97    761.00     27.59
 52.07    780.00     27.93
 52.17    767.55     27.70
 52.27    766.91     27.69
 52.37    682.34     26.12
 52.47    744.00     27.28
 52.57    704.00     26.53
 52.67    670.30     25.89
 52.77    679.22     26.06
 52.87    687.00     26.21
 52.97    713.00     26.70
 53.07    687.84     26.23
 53.17    724.03     26.91
 53.27    774.00     27.82
 53.37    817.63     28.59
 53.47    820.00     28.64
 53.57    974.67     31.22
 53.67   1061.02     32.57
 53.77   1200.64     34.65
 53.87   1192.00     34.53
 53.97   1289.00     35.90
 54.07   1385.00     37.22
 54.17   1296.00     36.00
 54.27   1143.00     33.81
 54.37   1173.00     34.25
 54.47   1041.72     32.28
 54.57    929.00     30.48
 54.67    843.00     29.03
 54.77    776.00     27.86
 54.87    736.00     27.13
 54.97    724.00     26.91
 55.07    726.00     26.94
 55.17    755.00     27.48
 55.27    680.00     26.08
 55.37    681.00     26.10
 55.47    723.28     26.89
 55.57    740.00     27.20
 55.67    702.97     26.51
 55.77    746.00     27.31
 55.87    706.00     26.57
 55.97    706.00     26.57
 56.07    736.00     27.13
 56.17    757.00     27.51
 56.27    773.00     27.80
 56.37    761.00     27.59
 56.47    812.00     28.50
 56.57    921.00     30.35
 56.67   1024.31     32.00
 56.77   1123.00     33.51
 56.87   1393.00     37.32
 56.97   1792.93     42.34
 57.07   2032.00     45.08
 57.17   2390.00     48.89
 57.27   2617.42     51.16
 57.37   2790.00     52.82
 57.47   2603.00     51.02
 57.57   2537.00     50.37
 57.67   2239.00     47.32
 57.77   1803.05     42.46
 57.87   1495.00     38.67
 57.97   1334.00     36.52
 58.07   1142.55     33.80
 58.17    945.84     30.75
 58.27    901.00     30.02
 58.37    901.19     30.02
 58.47    825.00     28.72
 58.57    850.00     29.15
 58.67    861.00     29.34
 58.77    901.00     30.02
 58.87    975.00     31.22
 58.97   1091.81     33.04
 59.07   1113.00     33.36
 59.17   1242.00     35.24
 59.27   1269.00     35.62
 59.37   1326.00     36.41
 59.47   1412.00     37.58
 59.57   1380.00     37.15
 59.67   1400.90     37.43
 59.77   1404.91     37.48
 59.87   1358.32     36.86
 59.97   1376.00     37.09
 60.07   1241.00     35.23
 60.17   1289.00     35.90
 60.27   1334.00     36.52
 60.37   1424.00     37.74
 60.47   1489.03     38.59
 60.57   1504.48     38.79
 60.67   1709.00     41.34
 60.77   1669.00     40.85
 60.87   1675.00     40.93
 60.97   1522.00     39.01
 61.07   1442.00     37.97
 61.17   1237.69     35.18
 61.27   1111.22     33.34
 61.37   1003.25     31.67
 61.47    886.00     29.77
 61.57    907.00     30.12
 61.67    891.36     29.86
 61.77    813.00     28.51
 61.87    901.79     30.03
 61.97    938.00     30.63
 62.07   1015.00     31.86
 62.17   1167.00     34.16
 62.27   1294.00     35.97
 62.37   1442.00     37.97
 62.47   1716.05     41.43
 62.57   1818.00     42.64
 62.67   1910.04     43.70
 62.77   1925.21     43.88
 62.87   1881.34     43.37
 62.97   1724.00     41.52
 63.07   1535.00     39.18
 63.17   1328.00     36.44
 63.27   1169.00     34.19
 63.37   1124.82     33.54
 63.47   1008.09     31.75
 63.57    901.00     30.02
 63.67    787.24     28.06
 63.77    827.42     28.76
 63.87    791.00     28.12
 63.97    715.00     26.74
 64.07    812.00     28.50
 64.17    825.26     28.73
 64.27    838.32     28.95
 64.37    824.77     28.72
 64.47    848.82     29.13
 64.57    925.00     30.41
 64.67   1004.00     31.69
 64.77   1163.00     34.10
 64.87   1206.00     34.73
 64.97   1403.29     37.46
 65.07   1464.00     38.26
 65.17   1637.22     40.46
 65.27   1612.93     40.16
 65.37   1625.14     40.31
 65.47   1658.08     40.72
 65.57   1630.00     40.37
 65.67   1440.72     37.96
 65.77   1346.00     36.69
 65.87   1244.01     35.27
 65.97   1115.48     33.40
 66.07    937.00     30.61
 66.17    931.00     30.51
 66.27    858.00     29.29
 66.37    794.99     28.20
 66.47    855.17     29.24
 66.57    725.79     26.94
 66.67    709.87     26.64
 66.77    728.00     26.98
 66.87    683.00     26.13
 66.97    690.21     26.27
 67.07    727.00     26.96
 67.17    738.18     27.17
 67.27    754.00     27.46
 67.37    817.28     28.59
 67.47    776.00     27.86
 67.57    795.00     28.20
 67.67    803.00     28.34
 67.77    840.00     28.98
 67.87   1043.51     32.30
 67.97   1177.97     34.32
 68.07   1206.00     34.73
 68.17   1465.42     38.28
 68.27   1601.00     40.01
 68.37   1962.00     44.29
 68.47   2136.21     46.22
 68.57   2514.75     50.15
 68.67   2574.00     50.73
 68.77   2489.53     49.90
 68.87   2455.27     49.55
 68.97   2479.00     49.79
 69.07   2151.00     46.38
 69.17   1922.00     43.84
 69.27   1639.00     40.48
 69.37   1319.00     36.32
 69.47   1263.19     35.54
 69.57   1135.00     33.69
 69.67    972.07     31.18
 69.77    968.00     31.11
 69.87    927.00     30.45
 69.97    843.00     29.03
 70.07    808.00     28.43
 70.17    765.00     27.66
 70.27    771.00     27.77
 70.37    732.00     27.06
 70.47    709.00     26.63
 70.57    695.58     26.37
 70.67    729.99     27.02
 70.77    734.00     27.09
 70.87    683.00     26.13
 70.97    754.00     27.46
 71.07    710.00     26.65
 71.17    739.00     27.18
 71.27    776.47     27.87
 71.37    759.00     27.55
 71.47    786.00     28.04
 71.57    791.51     28.13
 71.67    830.09     28.81
 71.77    944.00     30.72
 71.87   1006.00     31.72
 71.97   1016.53     31.88
 72.07   1193.00     34.54
 72.17   1386.93     37.24
 72.27   1538.00     39.22
 72.37   1644.87     40.56
 72.47   1854.00     43.06
 72.57   1976.00     44.45
 72.67   2051.00     45.29
 72.77   2026.00     45.01
 72.87   1948.00     44.14
 72.97   1932.40     43.96
 73.07   1749.00     41.82
 73.17   1587.00     39.84
 73.27   1385.00     37.22
 73.37   1271.00     35.65
 73.47   1112.00     33.35
 73.57   1010.00     31.78
 73.67    903.00     30.05
 73.77    836.00     28.91
 73.87    856.95     29.27
 73.97    764.00     27.64
 74.07    759.00     27.55
 74.17    746.57     27.32
 74.27    715.00     26.74
 74.37    717.00     26.78
 74.47    670.94     25.90
 74.57    756.00     27.50
 74.67    706.92     26.59
 74.77    757.00     27.51
 74.87    722.00     26.87
 74.97    744.49     27.29
 75.07    760.00     27.57
 75.17    733.00     27.07
 75.27    738.00     27.17
 75.37    744.23     27.28
 75.47    768.00     27.71
 75.57    699.00     26.44
 75.67    695.99     26.38
 75.77    721.00     26.85
 75.87    726.74     26.96
 75.97    770.00     27.75
 76.07    775.00     27.84
 76.17    707.08     26.59
 76.27    726.00     26.94
 76.37    785.00     28.02
 76.47    766.00     27.68
 76.57    840.00     28.98
 76.67    836.31     28.92
 76.77    845.00     29.07
 76.87    943.00     30.71
 76.97    979.00     31.29
 77.07    973.31     31.20
 77.17   1078.21     32.84
 77.27   1115.00     33.39
 77.37   1097.24     33.12
 77.47   1077.06     32.82
 77.57   1038.55     32.23
 77.67   1025.00     32.02
 77.77    993.00     31.51
 77.87    885.03     29.75
 77.97    876.00     29.60
 78.07    813.00     28.51
 78.17    839.00     28.97
 78.27    743.00     27.26
 78.37    718.57     26.81
 78.47    718.00     26.80
 78.57    666.00     25.81
 78.67    706.44     26.58
 78.77    675.81     26.00
 78.87    693.43     26.33
 78.97    678.00     26.04
 79.07    705.00     26.55
 79.17    692.10     26.31
 79.27    657.30     25.64
 79.37    634.00     25.18
 79.47    640.51     25.31
 79.57    622.00     24.94
 79.67    685.00     26.17
 79.77    668.00     25.85
 79.87    662.00     25.73
 79.97    654.00     25.57
 80.07    643.00     25.36
 80.17    656.00     25.61
 80.27    694.90     26.36
 80.37    665.00     25.79
 80.47    702.00     26.50
 80.57    751.00     27.40
 80.67    756.00     27.50
 80.77    826.00     28.74
 80.87    866.00     29.43
 80.97    867.04     29.45
 81.07    924.28     30.40
 81.17   1073.18     32.76
 81.27   1130.18     33.62
 81.37   1295.88     36.00
 81.47   1445.00     38.01
 81.57   1472.00     38.37
 81.67   1549.00     39.36
 81.77   1436.71     37.90
 81.87   1670.00     40.87
 81.97   1592.64     39.91
 82.07   1556.70     39.46
 82.17   1570.00     39.62
 82.27   1449.08     38.07
 82.37   1258.89     35.48
 82.47   1229.42     35.06
 82.57   1206.53     34.74
 82.67   1086.00     32.95
 82.77   1031.29     32.11
 82.87    951.00     30.84
 82.97    893.00     29.88
 83.07    832.00     28.84
 83.17    891.75     29.86
 83.27    832.86     28.86
 83.37    798.88     28.26
 83.47    697.00     26.40
 83.57    761.40     27.59
 83.67    681.00     26.10
 83.77    697.36     26.41
 83.87    682.65     26.13
 83.97    683.00     26.13
 84.07    619.00     24.88
 84.17    744.50     27.29
 84.27    671.00     25.90
 84.37    719.00     26.81
 84.47    692.00     26.31
 84.57    730.00     27.02
 84.67    666.00     25.81
 84.77    688.00     26.23
 84.87    676.00     26.00
 84.97    783.00     27.98
 85.07    705.66     26.56
 85.17    660.00     25.69
 85.27    662.00     25.73
 85.37    649.44     25.48
 85.47    649.88     25.49
 85.57    665.00     25.79
 85.67    642.15     25.34
 85.77    646.00     25.42
 85.87    653.00     25.55
 85.97    666.21     25.81
 86.07    672.70     25.94
 86.17    632.00     25.14
 86.27    690.13     26.27
 86.37    609.50     24.69
 86.47    689.00     26.25
 86.57    680.00     26.08
 86.67    676.00     26.00
 86.77    725.31     26.93
 86.87    702.26     26.50
 86.97    715.00     26.74
 87.07    717.84     26.79
 87.17    689.00     26.25
 87.27    754.97     27.48
 87.37    738.00     27.17
 87.47    728.85     27.00
 87.57    729.76     27.01
 87.67    668.19     25.85
 87.77    795.00     28.20
 87.87    743.00     27.26
 87.97    738.81     27.18
 88.07    765.00     27.66
 88.17    712.35     26.69
 88.27    783.00     27.98
 88.37    762.00     27.60
 88.47    718.85     26.81
 88.57    741.00     27.22
 88.67    798.00     28.25
 88.77    753.00     27.44
 88.87    720.00     26.83
 88.97    735.00     27.11
 89.07    693.00     26.32
 89.17    692.00     26.31
 89.27    723.76     26.90
 89.37    643.00     25.36
 89.47    683.27     26.14
 89.57    703.83     26.53
 89.67    754.00     27.46
 89.77    702.00     26.50
 89.87    692.64     26.32
 89.97    764.00     27.64
 90.07    725.00     26.93
 90.17    732.00     27.06
 90.27    748.00     27.35
 90.37    710.00     26.65
 90.47    708.00     26.61
 90.57    712.00     26.68
 90.67    697.51     26.41
 90.77    667.00     25.83
 90.87    717.00     26.78
 90.97    634.00     25.18
 91.07    612.67     24.75
 91.17    667.00     25.83
 91.27    663.00     25.75
 91.37    681.16     26.10
 91.47    617.00     24.84
 91.57    620.00     24.90
 91.67    631.00     25.12
 91.77    628.00     25.06
 91.87    637.68     25.25
 91.97    605.26     24.60
 92.07    638.00     25.26
 92.17    613.00     24.76
 92.27    623.00     24.96
 92.37    634.06     25.18
 92.47    616.00     24.82
 92.57    627.00     25.04
 92.67    675.00     25.98
 92.77    646.79     25.43
 92.87    686.00     26.19
 92.97    686.00     26.19
 93.07    654.42     25.58
 93.17    703.00     26.51
 93.27    669.00     25.87
 93.37    693.00     26.32
 93.47    696.00     26.38
 93.57    708.00     26.61
 93.67    770.00     27.75
 93.77    822.00     28.67
 93.87    848.00     29.12
 93.97    851.00     29.17
 94.07    812.00     28.50
 94.17    835.00     28.90
 94.27    935.74     30.59
 94.37    833.93     28.88
 94.47    921.12     30.35
 94.57    922.00     30.36
 94.67    914.45     30.24
 94.77    948.00     30.79
 94.87    926.95     30.45
 94.97   1000.96     31.64
 95.07    986.44     31.41
 95.17   1007.00     31.73
 95.27   1011.00     31.80
 95.37   1052.88     32.45
 95.47   1066.00     32.65
 95.57   1041.19     32.27
 95.67   1110.68     33.33
 95.77   1091.13     33.03
 95.87   1068.00     32.68
 95.97   1047.00     32.36
 96.07   1030.00     32.09
 96.17   1059.00     32.54
 96.27    959.00     30.97
 96.37    977.00     31.26
 96.47    973.00     31.19
 96.57    955.49     30.91
 96.67    885.00     29.75
 96.77    866.00     29.43
 96.87    820.00     28.64
 96.97    874.00     29.56
 97.07    814.05     28.53
 97.17    902.00     30.03
 97.27    843.88     29.05
 97.37    885.96     29.77
 97.47    911.70     30.19
 97.57   1031.00     32.11
 97.67   1098.00     33.14
 97.77   1162.02     34.09
 97.87   1144.00     33.82
 97.97   1263.19     35.54
 98.07   1326.61     36.42
 98.17   1481.00     38.48
 98.27   1479.84     38.47
 98.37   1514.00     38.91
 98.47   1598.00     39.97
 98.57   1658.00     40.72
 98.67   1603.17     40.04
 98.77   1526.00     39.06
 98.87   1614.00     40.17
 98.97   1476.00     38.42
 99.07   1473.00     38.38
 99.17   1379.00     37.13
 99.27   1403.08     37.46
 99.37   1352.00     36.77
 99.47   1233.00     35.11
 99.57   1143.45     33.81
 99.67   1175.61     34.29
 99.77   1053.74     32.46
 99.87   1018.00     31.91
 99.97   1073.00     32.76
100.07   1031.57     32.12
100.17   1111.74     33.34
100.27   1111.00     33.33
100.37   1114.33     33.38
100.47   1163.00     34.10
100.57   1192.00     34.53
100.67   1292.00     35.94
100.77   1444.00     38.00
100.87   1525.65     39.06
100.97   1621.79     40.27
101.07   1648.00     40.60
101.17   1837.00     42.86
101.27   1852.00     43.03
101.37   1888.46     43.46
101.47   1962.00     44.29
101.57   2144.00     46.30
101.67   2070.00     45.50
101.77   2202.00     46.93
101.87   2134.00     46.20
101.97   2106.00     45.89
102.07   2127.77     46.13
102.17   2139.00     46.25
102.27   1999.00     44.71
102.37   1996.00     44.68
102.47   1959.00     44.26
102.57   1813.91     42.59
102.67   1788.00     42.28
102.77   1740.00     41.71
102.87   1654.00     40.67
102.97   1611.00     40.14
103.07   1654.00     40.67
103.17   1472.00     38.37
103.27   1434.00     37.87
103.37   1451.00     38.09
103.47   1413.36     37.59
103.57   1406.00     37.50
103.67   1363.97     36.93
103.77   1331.00     36.48
103.87   1283.48     35.83
103.97   1179.00     34.34
104.07   1187.00     34.45
104.17   1105.00     33.24
104.27   1054.00     32.47
104.37   1016.11     31.88
104.47   1076.55     32.81
104.57    983.00     31.35
104.67   1003.00     31.67
104.77    876.85     29.61
104.87    812.63     28.51
104.97    782.01     27.96
105.07    815.73     28.56
105.17    740.00     27.20
105.27    742.00     27.24
105.37    665.75     25.80
105.47    671.00     25.90
105.57    636.91     25.24
105.67    715.00     26.74
105.77    734.00     27.09
105.87    636.90     25.24
105.97    666.00     25.81
106.07    600.69     24.51
106.17    643.00     25.36
106.27    674.10     25.96
106.37    656.00     25.61
106.47    669.00     25.87
106.57    634.00     25.18
106.67    661.00     25.71
106.77    671.00     25.90
106.87    653.00     25.55
106.97    685.00     26.17
107.07    696.32     26.39
107.17    654.00     25.57
107.27    678.02     26.04
107.37    643.45     25.37
107.47    714.09     26.72
107.57    718.25     26.80
107.67    714.00     26.72
107.77    730.00     27.02
107.87    759.00     27.55
107.97    805.71     28.39
108.07    750.00     27.39
108.17    824.00     28.71
108.27    834.33     28.88
108.37    784.83     28.01
108.47    813.84     28.53
108.57    828.00     28.77
108.67    814.00     28.53
108.77    785.00     28.02
108.87    775.00     27.84
108.97    822.00     28.67
109.07    812.00     28.50
109.17    860.68     29.34
109.27    797.00     28.23
109.37    814.58     28.54
109.47    815.00     28.55
109.57    790.00     28.11
109.67    796.00     28.21
109.77    858.78     29.31
109.87    761.57     27.60
109.97    754.78     27.47
110.07    829.37     28.80
110.17    829.00     28.79
110.27    765.00     27.66
110.37    802.00     28.32
110.47    829.16     28.80
110.57    812.00     28.50
110.67    768.00     27.71
110.77    758.00     27.53
110.87    812.00     28.50
110.97    788.35     28.08
111.07    742.49     27.25
111.17    749.00     27.37
111.27    775.47     27.85
111.37    733.00     27.07
111.47    727.88     26.98
111.57    713.32     26.71
111.67    725.95     26.94
111.77    653.00     25.55
111.87    670.00     25.88
111.97    680.00     26.08
112.07    664.51     25.78
112.17    655.99     25.61
112.27    662.00     25.73
112.37    613.68     24.77
112.47    673.99     25.96
112.57    620.00     24.90
112.67    660.00     25.69
112.77    636.00     25.22
112.87    652.00     25.53
112.97    627.00     25.04
113.07    636.00     25.22
113.17    637.90     25.26
113.27    628.88     25.08
113.37    635.00     25.20
113.47    654.00     25.57
113.57    695.57     26.37
113.67    650.00     25.50
113.77    656.00     25.61
113.87    666.00     25.81
113.97    665.00     25.79
114.07    697.00     26.40
114.17    653.00     25.55
114.27    652.90     25.55
114.37    730.68     27.03
114.47    716.00     26.76
114.57    709.00     26.63
114.67    714.00     26.72
114.77    694.00     26.34
114.87    771.00     27.77
114.97    809.00     28.44
115.07    835.49     28.90
115.17    889.59     29.83
115.27    884.00     29.73
115.37    881.00     29.68
115.47    995.44     31.55
115.57   1123.00     33.51
115.67   1244.60     35.28
115.77   1254.00     35.41
115.87   1385.49     37.22
115.97   1602.00     40.02
116.07   1833.00     42.81
116.17   2007.00     44.80
116.27   2208.00     46.99
116.37   2581.00     50.80
116.47   2759.54     52.53
116.57   3017.63     54.93
116.67   3329.00     57.70
116.77   3706.00     60.88
116.87   4083.00     63.90
116.97   4472.00     66.87
117.07   5005.32     70.75
117.17   5233.00     72.34
117.27   5697.00     75.48
117.37   5991.00     77.40
117.47   6371.71     79.82
117.57   6837.00     82.69
117.67   6948.73     83.36
117.77   7211.00     84.92
117.87   7541.00     86.84
117.97   7687.00     87.68
118.07   7498.00     86.59
118.17   7717.89     87.85
118.27   7556.00     86.93
118.37   7515.00     86.69
118.47   7070.00     84.08
118.57   6951.00     83.37
118.67   6571.00     81.06
118.77   6207.00     78.78
118.87   5915.00     76.91
118.97   5645.35     75.14
119.07   5220.00     72.25
119.17   4963.00     70.45
119.27   4624.00     68.00
119.37   4167.00     64.55
119.47   3679.00     60.65
119.57   3506.00     59.21
119.67   3131.00     55.96
119.77   2832.00     53.22
119.87   2573.00     50.72
119.97   2295.00     47.91
120.07   2131.00     46.16
120.17   1945.00     44.10
120.27   1820.00     42.66
120.37   1610.02     40.13
120.47   1541.13     39.26
120.57   1502.00     38.76
120.67   1312.00     36.22
120.77   1234.74     35.14
120.87   1094.00     33.08
120.97   1123.00     33.51
121.07   1018.09     31.91
121.17    933.15     30.55
121.27    877.80     29.63
121.37    866.76     29.44
121.47    901.74     30.03
121.57    818.00     28.60
121.67    813.90     28.53
121.77    777.00     27.87
121.87    736.00     27.13
121.97    734.00     27.09
122.07    738.58     27.18
122.17    797.00     28.23
122.27    728.00     26.98
122.37    717.66     26.79
122.47    709.68     26.64
122.57    788.00     28.07
122.67    763.80     27.64
122.77    741.00     27.22
122.87    759.00     27.55
122.97    705.91     26.57
123.07    725.00     26.93
123.17    734.63     27.10
123.27    756.00     27.50
123.37    722.02     26.87
123.47    775.00     27.84
123.57    838.61     28.96
123.67    825.78     28.74
123.77    791.00     28.12
123.87    821.26     28.66
123.97    877.00     29.61
124.07    775.00     27.84
124.17    821.00     28.65
124.27    798.00     28.25
124.37    863.00     29.38
124.47    857.01     29.27
124.57    812.00     28.50
124.67    856.18     29.26
124.77    896.00     29.93
124.87    874.00     29.56
124.97    817.00     28.58
