XYDATA



INTER 1.0 1.0 0 0
TEMP 923.166
  9.97    603.00     24.56
 10.07    579.00     24.06
 10.17    558.49     23.63
 10.27    530.19     23.03
 10.37    538.18     23.20
 10.47    563.00     23.73
 10.57    606.00     24.62
 10.67    600.00     24.49
 10.77    527.05     22.96
 10.87    538.00     23.19
 10.97    588.81     24.27
 11.07    576.73     24.02
 11.17    553.00     23.52
 11.27    589.80     24.29
 11.37    592.00     24.33
 11.47    576.00     24.00
 11.57    580.11     24.09
 11.67    535.74     23.15
 11.77    614.00     24.78
 11.87    595.00     24.39
 11.97    659.00     25.67
 12.07    687.00     26.21
 12.17    664.38     25.78
 12.27    667.00     25.83
 12.37    681.15     26.10
 12.47    683.00     26.13
 12.57    569.74     23.87
 12.67    551.22     23.48
 12.77    568.00     23.83
 12.87    555.06     23.56
 12.97    555.00     23.56
 13.07    551.21     23.48
 13.17    533.61     23.10
 13.27    568.00     23.83
 13.37    507.00     22.52
 13.47    535.00     23.13
 13.57    518.00     22.76
 13.67    534.00     23.11
 13.77    531.00     23.04
 13.87    580.59     24.10
 13.97    554.00     23.54
 14.07    582.00     24.12
 14.17    564.67     23.76
 14.27    606.00     24.62
 14.37    548.00     23.41
 14.47    573.00     23.94
 14.57    562.00     23.71
 14.67    565.00     23.77
 14.77    600.53     24.51
 14.87    575.00     23.98
 14.97    569.00     23.85
 15.07    534.00     23.11
 15.17    581.41     24.11
 15.27    526.00     22.93
 15.37    558.08     23.62
 15.47    540.00     23.24
 15.57    595.51     24.40
 15.67    557.62     23.61
 15.77    513.78     22.67
 15.87    558.00     23.62
 15.97    601.79     24.53
 16.07    561.15     23.69
 16.17    570.83     23.89
 16.27    510.00     22.58
 16.37    547.00     23.39
 16.47    559.57     23.66
 16.57    543.00     23.30
 16.67    561.32     23.69
 16.77    586.59     24.22
 16.87    558.00     23.62
 16.97    549.00     23.43
 17.07    538.00     23.19
 17.17    511.00     22.61
 17.27    590.90     24.31
 17.37    521.27     22.83
 17.47    550.00     23.45
 17.57    566.00     23.79
 17.67    562.07     23.71
 17.77    536.07     23.15
 17.87    591.25     24.32
 17.97    537.00     23.17
 18.07    552.85     23.51
 18.17    532.00     23.07
 18.27    509.00     22.56
 18.37    540.00     23.24
 18.47    526.00     22.93
 18.57    505.00     22.47
 18.67    535.25     23.14
 18.77    560.72     23.68
 18.87    568.87     23.85
 18.97    560.00     23.66
 19.07    511.94     22.63
 19.17    583.79     24.16
 19.27    541.00     23.26
 19.37    541.00     23.26
 19.47    516.00     22.72
 19.57    547.00     23.39
 19.67    585.28     24.19
 19.77    593.00     24.35
 19.87    539.95     23.24
 19.97    534.63     23.12
 20.07    543.00     23.30
 20.17    557.00     23.60
 20.27    543.00     23.30
 20.37    517.87     22.76
 20.47    568.00     23.83
 20.57    494.00     22.23
 20.67    548.13     23.41
 20.77    573.00     23.94
 20.87    572.08     23.92
 20.97    540.00     23.24
 21.07    538.00     23.19
 21.17    555.00     23.56
 21.27    576.82     24.02
 21.37    539.00     23.22
 21.47    518.32     22.77
 21.57    551.86     23.49
 21.67    506.00     22.49
 21.77    565.00     23.77
 21.87    578.00     24.04
 21.97    538.00     23.19
 22.07    504.43     22.46
 22.17    605.00     24.60
 22.27    574.00     23.96
 22.37    543.35     23.31
 22.47    536.00     23.15
 22.57    536.00     23.15
 22.67    574.00     23.96
 22.77    544.00     23.32
 22.87    525.00     22.91
 22.97    588.00     24.25
 23.07    534.00     23.11
 23.17    511.52     22.62
 23.27    516.68     22.73
 23.37    564.96     23.77
 23.47    508.11     22.54
 23.57    551.00     23.47
 23.67    559.00     23.64
 23.77    533.24     23.09
 23.87    537.00     23.17
 23.97    535.00     23.13
 24.07    563.00     23.73
 24.17    513.00     22.65
 24.27    567.00     23.81
 24.37    564.00     23.75
 24.47    542.92     23.30
 24.57    653.00     25.55
 24.67    615.00     24.80
 24.77    613.30     24.76
 24.87    616.00     24.82
 24.97    568.22     23.84
 25.07    582.00     24.12
 25.17    593.00     24.35
 25.27    596.00     24.41
 25.37    527.00     22.96
 25.47    556.00     23.58
 25.57    564.00     23.75
 25.67    584.46     24.18
 25.77    563.00     23.73
 25.87    555.00     23.56
 25.97    521.22     22.83
 26.07    575.43     23.99
 26.17    568.18     23.84
 26.27    565.00     23.77
 26.37    541.00     23.26
 26.47    506.42     22.50
 26.57    554.03     23.54
 26.67    574.00     23.96
 26.77    535.66     23.14
 26.87    537.00     23.17
 26.97    528.00     22.98
 27.07    532.00     23.07
 27.17    580.00     24.08
 27.27    549.00     23.43
 27.37    573.00     23.94
 27.47    556.69     23.59
 27.57    500.46     22.37
 27.67    577.63     24.03
 27.77    566.00     23.79
 27.87    545.26     23.35
 27.97    631.00     25.12
 28.07    748.00     27.35
 28.17    763.00     27.62
 28.27    968.00     31.11
 28.37    884.00     29.73
 28.47    851.08     29.17
 28.57    749.00     27.37
 28.67    675.10     25.98
 28.77    722.00     26.87
 28.87    766.97     27.69
 28.97    819.00     28.62
 29.07    828.60     28.79
 29.17    767.00     27.69
 29.27    687.71     26.22
 29.37    611.00     24.72
 29.47    563.64     23.74
 29.57    539.00     23.22
 29.67    568.00     23.83
 29.77    602.00     24.54
 29.87    566.86     23.81
 29.97    583.14     24.15
 30.07    566.00     23.79
 30.17    560.00     23.66
 30.27    578.22     24.05
 30.37    574.00     23.96
 30.47    603.00     24.56
 30.57    576.00     24.00
 30.67    537.00     23.17
 30.77    552.95     23.51
 30.87    612.99     24.76
 30.97    587.96     24.25
 31.07    599.50     24.48
 31.17    619.00     24.88
 31.27    583.00     24.15
 31.37    572.03     23.92
 31.47    564.54     23.76
 31.57    559.11     23.65
 31.67    500.11     22.36
 31.77    503.00     22.43
 31.87    529.08     23.00
 31.97    547.00     23.39
 32.07    571.00     23.90
 32.17    550.00     23.45
 32.27    583.00     24.15
 32.37    498.24     22.32
 32.47    566.28     23.80
 32.57    531.00     23.04
 32.67    513.00     22.65
 32.77    512.24     22.63
 32.87    592.00     24.33
 32.97    509.00     22.56
 33.07    518.91     22.78
 33.17    610.00     24.70
 33.27    512.31     22.63
 33.37    513.87     22.67
 33.47    530.35     23.03
 33.57    609.96     24.70
 33.67    669.17     25.87
 33.77    719.00     26.81
 33.87    801.00     28.30
 33.97    902.97     30.05
 34.07   1039.56     32.24
 34.17    998.11     31.59
 34.27    935.00     30.58
 34.37    811.00     28.48
 34.47    751.17     27.41
 34.57    613.00     24.76
 34.67    579.99     24.08
 34.77    562.00     23.71
 34.87    524.00     22.89
 34.97    521.00     22.83
 35.07    531.00     23.04
 35.17    502.00     22.41
 35.27    480.45     21.92
 35.37    524.00     22.89
 35.47    540.00     23.24
 35.57    532.46     23.08
 35.67    480.87     21.93
 35.77    533.00     23.09
 35.87    515.00     22.69
 35.97    513.66     22.66
 36.07    548.96     23.43
 36.17    538.80     23.21
 36.27    561.00     23.69
 36.37    465.73     21.58
 36.47    482.16     21.96
 36.57    484.00     22.00
 36.67    492.00     22.18
 36.77    491.00     22.16
 36.87    523.00     22.87
 36.97    502.00     22.41
 37.07    490.55     22.15
 37.17    482.00     21.95
 37.27    453.00     21.28
 37.37    518.00     22.76
 37.47    537.00     23.17
 37.57    498.72     22.33
 37.67    517.00     22.74
 37.77    551.00     23.47
 37.87    545.07     23.35
 37.97    465.00     21.56
 38.07    525.00     22.91
 38.17    477.00     21.84
 38.27    464.09     21.54
 38.37    479.12     21.89
 38.47    477.00     21.84
 38.57    467.50     21.62
 38.67    518.39     22.77
 38.77    482.25     21.96
 38.87    484.00     22.00
 38.97    504.00     22.45
 39.07    480.43     21.92
 39.17    538.61     23.21
 39.27    491.04     22.16
 39.37    496.00     22.27
 39.47    492.00     22.18
 39.57    523.00     22.87
 39.67    485.00     22.02
 39.77    487.00     22.07
 39.87    463.00     21.52
 39.97    529.41     23.01
 40.07    539.01     23.22
 40.17    471.39     21.71
 40.27    510.00     22.58
 40.37    503.06     22.43
 40.47    486.00     22.05
 40.57    515.00     22.69
 40.67    500.00     22.36
 40.77    465.00     21.56
 40.87    493.00     22.20
 40.97    496.00     22.27
 41.07    483.54     21.99
 41.17    500.00     22.36
 41.27    531.28     23.05
 41.37    484.13     22.00
 41.47    502.00     22.41
 41.57    438.00     20.93
 41.67    533.94     23.11
 41.77    478.00     21.86
 41.87    517.58     22.75
 41.97    505.00     22.47
 42.07    514.00     22.67
 42.17    520.00     22.80
 42.27    545.00     23.35
 42.37    533.00     23.09
 42.47    552.00     23.49
 42.57    637.00     25.24
 42.67    600.00     24.49
 42.77    529.00     23.00
 42.87    574.31     23.96
 42.97    536.00     23.15
 43.07    538.00     23.19
 43.17    495.00     22.25
 43.27    518.00     22.76
 43.37    515.72     22.71
 43.47    477.00     21.84
 43.57    482.52     21.97
 43.67    509.31     22.57
 43.77    461.70     21.49
 43.87    452.00     21.26
 43.97    492.00     22.18
 44.07    505.27     22.48
 44.17    514.00     22.67
 44.27    475.00     21.79
 44.37    493.00     22.20
 44.47    502.00     22.41
 44.57    482.11     21.96
 44.67    501.32     22.39
 44.77    480.59     21.92
 44.87    481.00     21.93
 44.97    457.00     21.38
 45.07    496.00     22.27
 45.17    481.00     21.93
 45.27    486.00     22.05
 45.37    493.00     22.20
 45.47    460.00     21.45
 45.57    498.68     22.33
 45.67    476.00     21.82
 45.77    493.00     22.20
 45.87    480.23     21.91
 45.97    488.00     22.09
 46.07    461.05     21.47
 46.17    513.02     22.65
 46.27    480.00     21.91
 46.37    518.78     22.78
 46.47    487.65     22.08
 46.57    498.00     22.32
 46.67    483.81     22.00
 46.77    517.00     22.74
 46.87    500.10     22.36
 46.97    511.00     22.61
 47.07    530.00     23.02
 47.17    532.00     23.07
 47.27    499.00     22.34
 47.37    501.95     22.40
 47.47    533.00     23.09
 47.57    500.41     22.37
 47.67    506.02     22.49
 47.77    549.00     23.43
 47.87    547.82     23.41
 47.97    558.37     23.63
 48.07    595.00     24.39
 48.17    580.00     24.08
 48.27    566.00     23.79
 48.37    551.41     23.48
 48.47    515.42     22.70
 48.57    548.55     23.42
 48.67    556.93     23.60
 48.77    495.04     22.25
 48.87    498.96     22.34
 48.97    501.29     22.39
 49.07    558.97     23.64
 49.17    514.00     22.67
 49.27    557.00     23.60
 49.37    555.00     23.56
 49.47    615.00     24.80
 49.57    721.00     26.85
 49.67    773.00     27.80
 49.77    939.22     30.65
 49.87   1186.00     34.44
 49.97   1481.54     38.49
 50.07   1817.00     42.63
 50.17   2155.47     46.43
 50.27   2397.00     48.96
 50.37   2179.00     46.68
 50.47   2001.97     44.74
 50.57   1727.71     41.57
 50.67   1414.00     37.60
 50.77    965.00     31.06
 50.87    862.30     29.36
 50.97    738.32     27.17
 51.07    655.00     25.59
 51.17    608.00     24.66
 51.27    644.00     25.38
 51.37    624.33     24.99
 51.47    598.00     24.45
 51.57    608.00     24.66
 51.67    579.00     24.06
 51.77    545.00     23.35
 51.87    550.03     23.45
 51.97    545.00     23.35
 52.07    530.00     23.02
 52.17    539.89     23.24
 52.27    569.00     23.85
 52.37    515.81     22.71
 52.47    569.00     23.85
 52.57    564.00     23.75
 52.67    592.00     24.33
 52.77    579.00     24.06
 52.87    609.00     24.68
 52.97    657.00     25.63
 53.07    702.00     26.50
 53.17    767.00     27.69
 53.27    935.00     30.58
 53.37    998.88     31.60
 53.47   1113.00     33.36
 53.57   1236.26     35.16
 53.67   1137.84     33.73
 53.77   1142.77     33.80
 53.87    987.74     31.43
 53.97    871.00     29.51
 54.07    786.00     28.04
 54.17    715.00     26.74
 54.27    652.65     25.55
 54.37    585.00     24.19
 54.47    627.22     25.04
 54.57    618.00     24.86
 54.67    631.00     25.12
 54.77    549.00     23.43
 54.87    553.00     23.52
 54.97    606.00     24.62
 55.07    586.00     24.21
 55.17    524.29     22.90
 55.27    530.00     23.02
 55.37    571.00     23.90
 55.47    585.00     24.19
 55.57    582.17     24.13
 55.67    578.00     24.04
 55.77    563.48     23.74
 55.87    600.00     24.49
 55.97    560.00     23.66
 56.07    676.00     26.00
 56.17    707.76     26.60
 56.27    845.42     29.08
 56.37    964.00     31.05
 56.47   1247.48     35.32
 56.57   1491.00     38.61
 56.67   1750.00     41.83
 56.77   2203.46     46.94
 56.87   2419.00     49.18
 56.97   2621.00     51.20
 57.07   2460.00     49.60
 57.17   2328.00     48.25
 57.27   1991.00     44.62
 57.37   1582.00     39.77
 57.47   1325.00     36.40
 57.57   1076.00     32.80
 57.67    961.00     31.00
 57.77    839.19     28.97
 57.87    727.00     26.96
 57.97    735.00     27.11
 58.07    698.00     26.42
 58.17    764.00     27.64
 58.27    648.00     25.46
 58.37    806.03     28.39
 58.47    833.24     28.87
 58.57    885.00     29.75
 58.67   1000.00     31.62
 58.77   1034.00     32.16
 58.87   1123.00     33.51
 58.97   1247.00     35.31
 59.07   1287.81     35.89
 59.17   1288.00     35.89
 59.27   1339.00     36.59
 59.37   1189.00     34.48
 59.47   1320.00     36.33
 59.57   1212.00     34.81
 59.67   1285.00     35.85
 59.77   1149.98     33.91
 59.87   1207.00     34.74
 59.97   1168.18     34.18
 60.07   1390.85     37.29
 60.17   1492.90     38.64
 60.27   1501.00     38.74
 60.37   1588.00     39.85
 60.47   1429.00     37.80
 60.57   1378.62     37.13
 60.67   1199.64     34.64
 60.77   1127.21     33.57
 60.87    915.24     30.25
 60.97    804.45     28.36
 61.07    769.00     27.73
 61.17    695.00     26.36
 61.27    646.00     25.42
 61.37    674.00     25.96
 61.47    655.00     25.59
 61.57    763.00     27.62
 61.67    732.00     27.06
 61.77    911.52     30.19
 61.87   1031.00     32.11
 61.97   1061.00     32.57
 62.07   1186.73     34.45
 62.17   1319.74     36.33
 62.27   1326.55     36.42
 62.37   1402.14     37.45
 62.47   1233.00     35.11
 62.57   1177.00     34.31
 62.67   1008.00     31.75
 62.77    965.63     31.07
 62.87    862.76     29.37
 62.97    696.40     26.39
 63.07    663.00     25.75
 63.17    605.00     24.60
 63.27    606.00     24.62
 63.37    580.84     24.10
 63.47    574.53     23.97
 63.57    528.06     22.98
 63.67    604.12     24.58
 63.77    592.00     24.33
 63.87    583.00     24.15
 63.97    611.00     24.72
 64.07    655.00     25.59
 64.17    737.57     27.16
 64.27    767.00     27.69
 64.37    843.00     29.03
 64.47    882.00     29.70
 64.57    943.00     30.71
 64.67   1011.00     31.80
 64.77   1015.00     31.86
 64.87    933.00     30.55
 64.97    983.00     31.35
 65.07    887.00     29.78
 65.17    885.00     29.75
 65.27    803.00     28.34
 65.37    745.00     27.29
 65.47    734.22     27.10
 65.57    650.00     25.50
 65.67    620.02     24.90
 65.77    595.00     24.39
 65.87    599.99     24.49
 65.97    590.83     24.31
 66.07    604.00     24.58
 66.17    566.11     23.79
 66.27    541.49     23.27
 66.37    538.00     23.19
 66.47    586.00     24.21
 66.57    530.00     23.02
 66.67    533.00     23.09
 66.77    543.00     23.30
 66.87    613.78     24.77
 66.97    578.00     24.04
 67.07    631.78     25.14
 67.17    656.00     25.61
 67.27    684.50     26.16
 67.37    801.37     28.31
 67.47    878.87     29.65
 67.57   1053.00     32.45
 67.67   1285.00     35.85
 67.77   1447.00     38.04
 67.87   1812.27     42.57
 67.97   2058.12     45.37
 68.07   2170.30     46.59
 68.17   2331.00     48.28
 68.27   2423.00     49.22
 68.37   2262.00     47.56
 68.47   2152.00     46.39
 68.57   1852.00     43.03
 68.67   1633.00     40.41
 68.77   1377.00     37.11
 68.87   1171.00     34.22
 68.97    951.69     30.85
 69.07    892.56     29.88
 69.17    805.00     28.37
 69.27    699.00     26.44
 69.37    629.83     25.10
 69.47    596.00     24.41
 69.57    604.12     24.58
 69.67    584.00     24.17
 69.77    604.00     24.58
 69.87    590.00     24.29
 69.97    559.00     23.64
 70.07    610.00     24.70
 70.17    559.00     23.64
 70.27    526.00     22.93
 70.37    570.00     23.87
 70.47    550.00     23.45
 70.57    596.00     24.41
 70.67    560.00     23.66
 70.77    602.00     24.54
 70.87    615.00     24.80
 70.97    609.00     24.68
 71.07    617.00     24.84
 71.17    663.00     25.75
 71.27    751.00     27.40
 71.37    893.87     29.90
 71.47    935.00     30.58
 71.57   1081.00     32.88
 71.67   1266.65     35.59
 71.77   1364.66     36.94
 71.87   1507.00     38.82
 71.97   1688.00     41.09
 72.07   1870.00     43.24
 72.17   1804.76     42.48
 72.27   1817.00     42.63
 72.37   1699.13     41.22
 72.47   1591.26     39.89
 72.57   1475.00     38.41
 72.67   1343.00     36.65
 72.77   1136.00     33.70
 72.87    963.00     31.03
 72.97    947.26     30.78
 73.07    812.00     28.50
 73.17    700.18     26.46
 73.27    692.00     26.31
 73.37    685.00     26.17
 73.47    692.00     26.31
 73.57    612.00     24.74
 73.67    641.97     25.34
 73.77    614.00     24.78
 73.87    590.00     24.29
 73.97    594.00     24.37
 74.07    601.00     24.52
 74.17    580.00     24.08
 74.27    543.00     23.30
 74.37    587.00     24.23
 74.47    622.74     24.95
 74.57    606.00     24.62
 74.67    609.79     24.69
 74.77    561.56     23.70
 74.87    638.00     25.26
 74.97    632.00     25.14
 75.07    602.00     24.54
 75.17    599.00     24.47
 75.27    612.00     24.74
 75.37    585.00     24.19
 75.47    566.00     23.79
 75.57    507.97     22.54
 75.67    557.20     23.61
 75.77    563.00     23.73
 75.87    561.57     23.70
 75.97    572.00     23.92
 76.07    619.00     24.88
 76.17    644.00     25.38
 76.27    627.48     25.05
 76.37    629.00     25.08
 76.47    660.00     25.69
 76.57    704.00     26.53
 76.67    650.10     25.50
 76.77    665.00     25.79
 76.87    689.00     26.25
 76.97    674.00     25.96
 77.07    692.40     26.31
 77.17    640.00     25.30
 77.27    619.00     24.88
 77.37    542.00     23.28
 77.47    582.00     24.12
 77.57    521.00     22.83
 77.67    494.00     22.23
 77.77    507.00     22.52
 77.87    523.84     22.89
 77.97    522.07     22.85
 78.07    494.00     22.23
 78.17    510.00     22.58
 78.27    508.00     22.54
 78.37    465.00     21.56
 78.47    474.28     21.78
 78.57    469.00     21.66
 78.67    476.12     21.82
 78.77    534.46     23.12
 78.87    504.00     22.45
 78.97    509.00     22.56
 79.07    520.91     22.82
 79.17    519.38     22.79
 79.27    509.00     22.56
 79.37    525.17     22.92
 79.47    484.00     22.00
 79.57    515.00     22.69
 79.67    535.80     23.15
 79.77    508.96     22.56
 79.87    538.71     23.21
 79.97    489.13     22.12
 80.07    519.90     22.80
 80.17    562.00     23.71
 80.27    555.00     23.56
 80.37    529.00     23.00
 80.47    540.00     23.24
 80.57    564.09     23.75
 80.67    617.47     24.85
 80.77    572.00     23.92
 80.87    624.00     24.98
 80.97    692.95     26.32
 81.07    687.00     26.21
 81.17    649.00     25.48
 81.27    679.00     26.06
 81.37    768.93     27.73
 81.47    682.00     26.12
 81.57    728.00     26.98
 81.67    723.64     26.90
 81.77    748.00     27.35
 81.87    712.00     26.68
 81.97    753.12     27.44
 82.07    688.00     26.23
 82.17    658.72     25.67
 82.27    685.00     26.17
 82.37    656.76     25.63
 82.47    613.92     24.78
 82.57    578.00     24.04
 82.67    618.00     24.86
 82.77    596.00     24.41
 82.87    528.44     22.99
 82.97    530.00     23.02
 83.07    555.16     23.56
 83.17    559.00     23.64
 83.27    521.00     22.83
 83.37    510.91     22.60
 83.47    565.94     23.79
 83.57    547.84     23.41
 83.67    577.81     24.04
 83.77    530.00     23.02
 83.87    566.88     23.81
 83.97    503.00     22.43
 84.07    548.62     23.42
 84.17    553.00     23.52
 84.27    512.00     22.63
 84.37    564.00     23.75
 84.47    556.00     23.58
 84.57    540.00     23.24
 84.67    560.58     23.68
 84.77    528.00     22.98
 84.87    544.00     23.32
 84.97    520.00     22.80
 85.07    516.00     22.72
 85.17    469.71     21.67
 85.27    552.66     23.51
 85.37    487.05     22.07
 85.47    552.00     23.49
 85.57    478.00     21.86
 85.67    520.00     22.80
 85.77    517.32     22.74
 85.87    543.23     23.31
 85.97    534.52     23.12
 86.07    526.00     22.93
 86.17    515.82     22.71
 86.27    495.00     22.25
 86.37    566.00     23.79
 86.47    565.00     23.77
 86.57    541.00     23.26
 86.67    547.66     23.40
 86.77    563.34     23.73
 86.87    545.00     23.35
 86.97    572.00     23.92
 87.07    560.00     23.66
 87.17    569.00     23.85
 87.27    604.00     24.58
 87.37    591.00     24.31
 87.47    643.00     25.36
 87.57    612.00     24.74
 87.67    641.41     25.33
 87.77    589.37     24.28
 87.87    643.35     25.36
 87.97    590.00     24.29
 88.07    591.47     24.32
 88.17    587.62     24.24
 88.27    588.00     24.25
 88.37    542.78     23.30
 88.47    554.00     23.54
 88.57    565.00     23.77
 88.67    561.00     23.69
 88.77    548.00     23.41
 88.87    569.26     23.86
 88.97    565.00     23.77
 89.07    527.01     22.96
 89.17    521.00     22.83
 89.27    527.16     22.96
 89.37    612.00     24.74
 89.47    629.00     25.08
 89.57    608.84     24.67
 89.67    569.00     23.85
 89.77    566.00     23.79
 89.87    569.00     23.85
 89.97    540.00     23.24
 90.07    569.00     23.85
 90.17    528.00     22.98
 90.27    501.20     22.39
 90.37    538.00     23.19
 90.47    500.00     22.36
 90.57    570.00     23.87
 90.67    539.00     23.22
 90.77    526.00     22.93
 90.87    522.61     22.86
 90.97    498.00     22.32
 91.07    537.09     23.18
 91.17    534.63     23.12
 91.27    516.26     22.72
 91.37    542.00     23.28
 91.47    475.00     21.79
 91.57    509.07     22.56
 91.67    474.00     21.77
 91.77    502.00     22.41
 91.87    507.00     22.52
 91.97    561.10     23.69
 92.07    513.00     22.65
 92.17    480.00     21.91
 92.27    552.00     23.49
 92.37    572.00     23.92
 92.47    527.00     22.96
 92.57    613.15     24.76
 92.67    646.51     25.43
 92.77    598.00     24.45
 92.87    610.00     24.70
 92.97    702.09     26.50
 93.07    676.60     26.01
 93.17    691.85     26.30
 93.27    737.00     27.15
 93.37    770.00     27.75
 93.47    745.01     27.29
 93.57    776.00     27.86
 93.67    811.00     28.48
 93.77    756.00     27.50
 93.87    787.00     28.05
 93.97    804.00     28.35
 94.07    864.00     29.39
 94.17    789.00     28.09
 94.27    842.00     29.02
 94.37    833.00     28.86
 94.47    810.71     28.47
 94.57    874.42     29.57
 94.67    883.00     29.72
 94.77    877.80     29.63
 94.87    882.00     29.70
 94.97    858.45     29.30
 95.07    897.00     29.95
 95.17    939.00     30.64
 95.27    860.80     29.34
 95.37    837.00     28.93
 95.47    833.00     28.86
 95.57    739.93     27.20
 95.67    692.35     26.31
 95.77    767.00     27.69
 95.87    756.00     27.50
 95.97    724.00     26.91
 96.07    684.00     26.15
 96.17    664.99     25.79
 96.27    701.94     26.49
 96.37    729.00     27.00
 96.47    753.00     27.44
 96.57    822.10     28.67
 96.67    825.00     28.72
 96.77    839.00     28.97
 96.87    904.00     30.07
 96.97   1002.00     31.65
 97.07   1111.00     33.33
 97.17   1080.18     32.87
 97.27   1169.74     34.20
 97.37   1280.00     35.78
 97.47   1326.00     36.41
 97.57   1375.00     37.08
 97.67   1453.11     38.12
 97.77   1413.00     37.59
 97.87   1403.00     37.46
 97.97   1383.00     37.19
 98.07   1345.00     36.67
 98.17   1287.00     35.87
 98.27   1177.00     34.31
 98.37   1150.00     33.91
 98.47   1150.00     33.91
 98.57   1050.20     32.41
 98.67    979.00     31.29
 98.77    978.00     31.27
 98.87    909.00     30.15
 98.97    894.26     29.90
 99.07    804.00     28.35
 99.17    870.29     29.50
 99.27    822.80     28.68
 99.37    898.00     29.97
 99.47    941.00     30.68
 99.57    981.92     31.34
 99.67    995.00     31.54
 99.77   1103.00     33.21
 99.87   1130.00     33.62
 99.97   1291.00     35.93
100.07   1489.00     38.59
100.17   1482.36     38.50
100.27   1527.41     39.08
100.37   1648.00     40.60
100.47   1741.00     41.73
100.57   1815.00     42.60
100.67   1861.10     43.14
100.77   1908.61     43.69
100.87   2003.00     44.75
100.97   1995.00     44.67
101.07   1963.92     44.32
101.17   1932.00     43.95
101.27   1942.74     44.08
101.37   1850.00     43.01
101.47   1797.00     42.39
101.57   1630.00     40.37
101.67   1566.63     39.58
101.77   1541.00     39.26
101.87   1449.00     38.07
101.97   1468.00     38.31
102.07   1317.00     36.29
102.17   1278.00     35.75
102.27   1256.00     35.44
102.37   1250.00     35.36
102.47   1120.66     33.48
102.57   1141.00     33.78
102.67   1164.00     34.12
102.77   1155.00     33.99
102.87   1040.00     32.25
102.97   1017.49     31.90
103.07   1009.00     31.76
103.17    951.09     30.84
103.27    908.71     30.14
103.37    934.32     30.57
103.47    931.93     30.53
103.57    873.00     29.55
103.67    821.17     28.66
103.77    804.62     28.37
103.87    715.00     26.74
103.97    697.25     26.41
104.07    616.42     24.83
104.17    671.00     25.90
104.27    569.57     23.87
104.37    563.84     23.75
104.47    585.86     24.20
104.57    539.35     23.22
104.67    519.00     22.78
104.77    560.00     23.66
104.87    541.00     23.26
104.97    559.00     23.64
105.07    592.00     24.33
105.17    527.00     22.96
105.27    515.55     22.71
105.37    534.00     23.11
105.47    549.00     23.43
105.57    534.00     23.11
105.67    555.50     23.57
105.77    530.00     23.02
105.87    502.42     22.41
105.97    556.00     23.58
106.07    557.00     23.60
106.17    543.00     23.30
106.27    535.00     23.13
106.37    535.00     23.13
106.47    588.33     24.26
106.57    576.00     24.00
106.67    597.94     24.45
106.77    570.00     23.87
106.87    595.00     24.39
106.97    580.00     24.08
107.07    636.00     25.22
107.17    613.00     24.76
107.27    681.91     26.11
107.37    599.00     24.47
107.47    674.00     25.96
107.57    696.49     26.39
107.67    682.75     26.13
107.77    688.02     26.23
107.87    738.00     27.17
107.97    722.72     26.88
108.07    631.00     25.12
108.17    706.00     26.57
108.27    695.22     26.37
108.37    679.00     26.06
108.47    636.00     25.22
108.57    726.07     26.95
108.67    643.42     25.37
108.77    655.37     25.60
108.87    690.00     26.27
108.97    702.00     26.50
109.07    717.84     26.79
109.17    655.00     25.59
109.27    684.32     26.16
109.37    684.00     26.15
109.47    683.00     26.13
109.57    641.43     25.33
109.67    660.00     25.69
109.77    668.00     25.85
109.87    683.00     26.13
109.97    615.97     24.82
110.07    590.00     24.29
110.17    591.00     24.31
110.27    622.00     24.94
110.37    572.00     23.92
110.47    546.42     23.38
110.57    508.00     22.54
110.67    603.00     24.56
110.77    579.00     24.06
110.87    565.99     23.79
110.97    512.38     22.64
111.07    531.00     23.04
111.17    509.00     22.56
111.27    558.87     23.64
111.37    525.00     22.91
111.47    567.00     23.81
111.57    548.42     23.42
111.67    573.99     23.96
111.77    568.00     23.83
111.87    565.00     23.77
111.97    519.00     22.78
112.07    520.00     22.80
112.17    552.00     23.49
112.27    520.00     22.80
112.37    527.30     22.96
112.47    523.00     22.87
112.57    520.00     22.80
112.67    544.00     23.32
112.77    547.76     23.40
112.87    563.00     23.73
112.97    570.00     23.87
113.07    602.42     24.54
113.17    573.00     23.94
113.27    626.00     25.02
113.37    649.00     25.48
113.47    616.45     24.83
113.57    625.49     25.01
113.67    639.91     25.30
113.77    668.00     25.85
113.87    689.29     26.25
113.97    726.00     26.94
114.07    819.03     28.62
114.17    858.06     29.29
114.27    834.00     28.88
114.37    856.00     29.26
114.47   1003.32     31.68
114.57   1016.09     31.88
114.67   1141.95     33.79
114.77   1245.00     35.28
114.87   1411.25     37.57
114.97   1616.00     40.20
115.07   1758.02     41.93
115.17   1850.22     43.01
115.27   2115.63     46.00
115.37   2516.00     50.16
115.47   2655.00     51.53
115.57   3054.00     55.26
115.67   3429.39     58.56
115.77   3693.00     60.77
115.87   4024.64     63.44
115.97   4334.06     65.83
116.07   4679.93     68.41
116.17   5120.00     71.55
116.27   5337.00     73.05
116.37   5805.77     76.20
116.47   6033.00     77.67
116.57   6379.00     79.87
116.67   6585.45     81.15
116.77   6795.00     82.43
116.87   7014.00     83.75
116.97   6665.00     81.64
117.07   6791.00     82.41
117.17   6703.00     81.87
117.27   6510.00     80.68
117.37   6187.00     78.66
117.47   5819.00     76.28
117.57   5671.00     75.31
117.67   5329.00     73.00
117.77   4978.00     70.55
117.87   4655.03     68.23
117.97   4180.00     64.65
118.07   3948.00     62.83
118.17   3648.42     60.40
118.27   3268.00     57.17
118.37   2865.22     53.53
118.47   2598.21     50.97
118.57   2416.53     49.16
118.67   2094.00     45.76
118.77   1953.90     44.20
118.87   1612.00     40.15
118.97   1469.00     38.33
119.07   1337.00     36.57
119.17   1199.00     34.63
119.27   1175.00     34.28
119.37    982.00     31.34
119.47   1029.00     32.08
119.57    929.00     30.48
119.67    817.00     28.58
119.77    755.00     27.48
119.87    800.45     28.29
119.97    698.00     26.42
120.07    653.68     25.57
120.17    703.00     26.51
120.27    629.00     25.08
120.37    655.00     25.59
120.47    621.00     24.92
120.57    627.00     25.04
120.67    584.00     24.17
120.77    629.40     25.09
120.87    573.00     23.94
120.97    609.00     24.68
121.07    585.00     24.19
121.17    535.78     23.15
121.27    574.00     23.96
121.37    554.00     23.54
121.47    555.00     23.56
121.57    542.00     23.28
121.67    566.00     23.79
121.77    554.19     23.54
121.87    610.00     24.70
121.97    580.00     24.08
122.07    611.72     24.73
122.17    610.91     24.72
122.27    574.94     23.98
122.37    590.16     24.29
122.47    650.98     25.51
122.57    570.41     23.88
122.67    617.00     24.84
122.77    641.00     25.32
122.87    626.00     25.02
122.97    625.00     25.00
123.07    660.58     25.70
123.17    649.00     25.48
123.27    602.60     24.55
123.37    604.20     24.58
123.47    633.00     25.16
123.57    671.61     25.92
123.67    667.32     25.83
123.77    640.00     25.30
123.87    588.02     24.25
123.97    626.00     25.02
124.07    591.42     24.32
124.17    612.35     24.75
124.27    652.00     25.53
124.37    582.85     24.14
124.47    609.00     24.68
124.57    622.24     24.94
124.67    646.00     25.42
124.77    598.00     24.45
124.87    610.51     24.71
124.97    564.34     23.76
