XYDATA



INTER 1.0 1.0 0 0
TEMP 899.456
  9.97    536.00     23.15
 10.07    592.61     24.34
 10.17    583.85     24.16
 10.27    568.30     23.84
 10.37    600.00     24.49
 10.47    567.98     23.83
 10.57    558.52     23.63
 10.67    588.00     24.25
 10.77    566.47     23.80
 10.87    592.00     24.33
 10.97    600.41     24.50
 11.07    564.00     23.75
 11.17    512.47     22.64
 11.27    593.00     24.35
 11.37    585.17     24.19
 11.47    593.00     24.35
 11.57    596.76     24.43
 11.67    563.00     23.73
 11.77    604.00     24.58
 11.87    600.00     24.49
 11.97    583.86     24.16
 12.07    698.00     26.42
 12.17    702.91     26.51
 12.27    735.49     27.12
 12.37    669.00     25.87
 12.47    686.40     26.20
 12.57    587.00     24.23
 12.67    595.00     24.39
 12.77    550.00     23.45
 12.87    611.08     24.72
 12.97    587.00     24.23
 13.07    586.67     24.22
 13.17    531.12     23.05
 13.27    525.00     22.91
 13.37    546.87     23.39
 13.47    537.00     23.17
 13.57    521.64     22.84
 13.67    530.61     23.04
 13.77    559.00     23.64
 13.87    538.00     23.19
 13.97    606.45     24.63
 14.07    580.20     24.09
 14.17    549.00     23.43
 14.27    590.00     24.29
 14.37    511.00     22.61
 14.47    578.00     24.04
 14.57    539.00     23.22
 14.67    558.00     23.62
 14.77    557.00     23.60
 14.87    566.00     23.79
 14.97    528.73     22.99
 15.07    567.40     23.82
 15.17    516.75     22.73
 15.27    506.00     22.49
 15.37    580.98     24.10
 15.47    565.67     23.78
 15.57    545.00     23.35
 15.67    546.14     23.37
 15.77    594.87     24.39
 15.87    536.00     23.15
 15.97    547.95     23.41
 16.07    593.42     24.36
 16.17    562.36     23.71
 16.27    598.00     24.45
 16.37    551.00     23.47
 16.47    583.00     24.15
 16.57    536.00     23.15
 16.67    561.00     23.69
 16.77    561.00     23.69
 16.87    496.00     22.27
 16.97    524.00     22.89
 17.07    537.28     23.18
 17.17    562.00     23.71
 17.27    520.00     22.80
 17.37    516.00     22.72
 17.47    513.00     22.65
 17.57    562.90     23.73
 17.67    576.00     24.00
 17.77    533.70     23.10
 17.87    547.00     23.39
 17.97    537.00     23.17
 18.07    545.00     23.35
 18.17    514.00     22.67
 18.27    556.60     23.59
 18.37    515.95     22.71
 18.47    571.57     23.91
 18.57    572.00     23.92
 18.67    515.77     22.71
 18.77    554.00     23.54
 18.87    522.00     22.85
 18.97    584.55     24.18
 19.07    592.35     24.34
 19.17    581.00     24.10
 19.27    554.00     23.54
 19.37    583.00     24.15
 19.47    524.22     22.90
 19.57    538.00     23.19
 19.67    553.00     23.52
 19.77    563.47     23.74
 19.87    522.49     22.86
 19.97    559.40     23.65
 20.07    593.25     24.36
 20.17    562.00     23.71
 20.27    561.00     23.69
 20.37    570.00     23.87
 20.47    516.00     22.72
 20.57    522.00     22.85
 20.67    582.83     24.14
 20.77    517.00     22.74
 20.87    535.00     23.13
 20.97    550.00     23.45
 21.07    555.13     23.56
 21.17    571.00     23.90
 21.27    555.00     23.56
 21.37    527.54     22.97
 21.47    536.00     23.15
 21.57    527.24     22.96
 21.67    513.12     22.65
 21.77    564.23     23.75
 21.87    581.79     24.12
 21.97    555.26     23.56
 22.07    554.00     23.54
 22.17    528.00     22.98
 22.27    571.00     23.90
 22.37    570.00     23.87
 22.47    531.49     23.05
 22.57    508.83     22.56
 22.67    576.71     24.01
 22.77    561.57     23.70
 22.87    547.00     23.39
 22.97    519.71     22.80
 23.07    579.59     24.07
 23.17    507.44     22.53
 23.27    554.00     23.54
 23.37    496.00     22.27
 23.47    553.00     23.52
 23.57    535.00     23.13
 23.67    540.00     23.24
 23.77    549.00     23.43
 23.87    542.44     23.29
 23.97    530.00     23.02
 24.07    589.96     24.29
 24.17    569.03     23.85
 24.27    549.00     23.43
 24.37    595.40     24.40
 24.47    587.00     24.23
 24.57    597.48     24.44
 24.67    605.00     24.60
 24.77    633.00     25.16
 24.87    641.00     25.32
 24.97    622.00     24.94
 25.07    628.00     25.06
 25.17    608.13     24.66
 25.27    568.00     23.83
 25.37    633.00     25.16
 25.47    535.00     23.13
 25.57    590.93     24.31
 25.67    539.00     23.22
 25.77    560.00     23.66
 25.87    546.81     23.38
 25.97    551.00     23.47
 26.07    548.75     23.43
 26.17    561.00     23.69
 26.27    575.97     24.00
 26.37    498.75     22.33
 26.47    553.26     23.52
 26.57    548.42     23.42
 26.67    578.00     24.04
 26.77    575.00     23.98
 26.87    499.90     22.36
 26.97    564.00     23.75
 27.07    584.00     24.17
 27.17    573.74     23.95
 27.27    584.00     24.17
 27.37    566.41     23.80
 27.47    544.75     23.34
 27.57    589.00     24.27
 27.67    566.15     23.79
 27.77    551.77     23.49
 27.87    576.00     24.00
 27.97    629.00     25.08
 28.07    715.00     26.74
 28.17    843.00     29.03
 28.27    975.00     31.22
 28.37    908.00     30.13
 28.47    837.00     28.93
 28.57    773.00     27.80
 28.67    692.00     26.31
 28.77    727.00     26.96
 28.87    795.00     28.20
 28.97    787.24     28.06
 29.07    796.00     28.21
 29.17    773.00     27.80
 29.27    705.00     26.55
 29.37    624.00     24.98
 29.47    583.00     24.15
 29.57    599.00     24.47
 29.67    574.00     23.96
 29.77    555.00     23.56
 29.87    547.38     23.40
 29.97    597.00     24.43
 30.07    521.25     22.83
 30.17    583.00     24.15
 30.27    564.78     23.77
 30.37    604.00     24.58
 30.47    558.89     23.64
 30.57    547.33     23.40
 30.67    575.00     23.98
 30.77    607.00     24.64
 30.87    627.73     25.05
 30.97    630.00     25.10
 31.07    637.73     25.25
 31.17    622.00     24.94
 31.27    541.00     23.26
 31.37    573.00     23.94
 31.47    500.00     22.36
 31.57    503.82     22.45
 31.67    568.00     23.83
 31.77    546.00     23.37
 31.87    490.57     22.15
 31.97    516.88     22.73
 32.07    514.00     22.67
 32.17    573.00     23.94
 32.27    503.00     22.43
 32.37    552.00     23.49
 32.47    495.17     22.25
 32.57    537.75     23.19
 32.67    534.00     23.11
 32.77    537.00     23.17
 32.87    559.00     23.64
 32.97    536.00     23.15
 33.07    513.16     22.65
 33.17    563.00     23.73
 33.27    520.93     22.82
 33.37    576.42     24.01
 33.47    541.34     23.27
 33.57    556.48     23.59
 33.67    606.33     24.62
 33.77    730.68     27.03
 33.87    796.00     28.21
 33.97    941.00     30.68
 34.07   1001.48     31.65
 34.17   1062.23     32.59
 34.27    964.00     31.05
 34.37    893.71     29.89
 34.47    715.82     26.75
 34.57    690.68     26.28
 34.67    583.00     24.15
 34.77    553.51     23.53
 34.87    543.00     23.30
 34.97    522.00     22.85
 35.07    529.47     23.01
 35.17    532.00     23.07
 35.27    496.00     22.27
 35.37    529.00     23.00
 35.47    506.86     22.51
 35.57    473.97     21.77
 35.67    472.86     21.75
 35.77    519.00     22.78
 35.87    532.32     23.07
 35.97    499.38     22.35
 36.07    502.00     22.41
 36.17    499.06     22.34
 36.27    511.00     22.61
 36.37    525.77     22.93
 36.47    467.00     21.61
 36.57    533.18     23.09
 36.67    474.90     21.79
 36.77    462.33     21.50
 36.87    521.00     22.83
 36.97    505.43     22.48
 37.07    500.59     22.37
 37.17    465.00     21.56
 37.27    496.00     22.27
 37.37    516.00     22.72
 37.47    465.00     21.56
 37.57    500.32     22.37
 37.67    521.00     22.83
 37.77    512.00     22.63
 37.87    525.00     22.91
 37.97    479.18     21.89
 38.07    502.53     22.42
 38.17    526.60     22.95
 38.27    463.00     21.52
 38.37    476.73     21.83
 38.47    480.00     21.91
 38.57    492.44     22.19
 38.67    467.54     21.62
 38.77    505.00     22.47
 38.87    478.00     21.86
 38.97    483.00     21.98
 39.07    520.82     22.82
 39.17    491.00     22.16
 39.27    495.47     22.26
 39.37    469.00     21.66
 39.47    490.00     22.14
 39.57    486.00     22.05
 39.67    486.83     22.06
 39.77    486.20     22.05
 39.87    498.56     22.33
 39.97    508.00     22.54
 40.07    493.00     22.20
 40.17    484.00     22.00
 40.27    510.00     22.58
 40.37    482.00     21.95
 40.47    464.51     21.55
 40.57    479.58     21.90
 40.67    509.70     22.58
 40.77    471.00     21.70
 40.87    509.00     22.56
 40.97    520.22     22.81
 41.07    456.00     21.35
 41.17    509.00     22.56
 41.27    530.57     23.03
 41.37    503.68     22.44
 41.47    492.55     22.19
 41.57    476.00     21.82
 41.67    494.47     22.24
 41.77    491.01     22.16
 41.87    456.46     21.36
 41.97    489.00     22.11
 42.07    467.00     21.61
 42.17    476.18     21.82
 42.27    504.00     22.45
 42.37    485.00     22.02
 42.47    541.00     23.26
 42.57    574.00     23.96
 42.67    562.00     23.71
 42.77    549.00     23.43
 42.87    588.00     24.25
 42.97    580.00     24.08
 43.07    561.00     23.69
 43.17    525.00     22.91
 43.27    557.00     23.60
 43.37    546.96     23.39
 43.47    496.19     22.28
 43.57    469.00     21.66
 43.67    484.50     22.01
 43.77    519.85     22.80
 43.87    488.44     22.10
 43.97    534.00     23.11
 44.07    492.97     22.20
 44.17    481.00     21.93
 44.27    452.00     21.26
 44.37    470.00     21.68
 44.47    524.29     22.90
 44.57    531.79     23.06
 44.67    468.61     21.65
 44.77    503.00     22.43
 44.87    507.20     22.52
 44.97    516.00     22.72
 45.07    511.00     22.61
 45.17    486.00     22.05
 45.27    496.00     22.27
 45.37    505.00     22.47
 45.47    518.96     22.78
 45.57    491.00     22.16
 45.67    485.00     22.02
 45.77    481.00     21.93
 45.87    497.00     22.29
 45.97    466.00     21.59
 46.07    477.00     21.84
 46.17    470.09     21.68
 46.27    504.23     22.46
 46.37    462.34     21.50
 46.47    517.00     22.74
 46.57    522.00     22.85
 46.67    474.00     21.77
 46.77    486.99     22.07
 46.87    488.89     22.11
 46.97    464.47     21.55
 47.07    475.00     21.79
 47.17    475.88     21.81
 47.27    531.00     23.04
 47.37    470.26     21.69
 47.47    501.00     22.38
 47.57    554.70     23.55
 47.67    547.00     23.39
 47.77    551.00     23.47
 47.87    582.40     24.13
 47.97    643.00     25.36
 48.07    605.00     24.60
 48.17    568.00     23.83
 48.27    562.06     23.71
 48.37    543.89     23.32
 48.47    530.00     23.02
 48.57    551.00     23.47
 48.67    492.00     22.18
 48.77    530.84     23.04
 48.87    532.00     23.07
 48.97    562.00     23.71
 49.07    528.00     22.98
 49.17    536.00     23.15
 49.27    540.00     23.24
 49.37    586.00     24.21
 49.47    612.04     24.74
 49.57    612.13     24.74
 49.67    709.00     26.63
 49.77    857.00     29.27
 49.87   1107.00     33.27
 49.97   1464.00     38.26
 50.07   1759.00     41.94
 50.17   2052.00     45.30
 50.27   2339.00     48.36
 50.37   2329.00     48.26
 50.47   2135.00     46.21
 50.57   1813.66     42.59
 50.67   1363.00     36.92
 50.77   1048.00     32.37
 50.87    829.84     28.81
 50.97    764.00     27.64
 51.07    714.00     26.72
 51.17    655.31     25.60
 51.27    600.00     24.49
 51.37    591.00     24.31
 51.47    562.00     23.71
 51.57    578.00     24.04
 51.67    563.33     23.73
 51.77    591.00     24.31
 51.87    521.24     22.83
 51.97    523.00     22.87
 52.07    553.14     23.52
 52.17    491.26     22.16
 52.27    556.80     23.60
 52.37    527.77     22.97
 52.47    571.00     23.90
 52.57    525.00     22.91
 52.67    508.15     22.54
 52.77    598.00     24.45
 52.87    606.00     24.62
 52.97    633.90     25.18
 53.07    673.00     25.94
 53.17    809.62     28.45
 53.27    861.80     29.36
 53.37    975.00     31.22
 53.47   1099.00     33.15
 53.57   1221.00     34.94
 53.67   1203.00     34.68
 53.77   1132.00     33.65
 53.87   1013.00     31.83
 53.97    933.00     30.55
 54.07    831.00     28.83
 54.17    743.00     27.26
 54.27    661.00     25.71
 54.37    562.76     23.72
 54.47    570.00     23.87
 54.57    639.00     25.28
 54.67    524.00     22.89
 54.77    541.00     23.26
 54.87    546.42     23.38
 54.97    562.00     23.71
 55.07    543.00     23.30
 55.17    584.00     24.17
 55.27    509.18     22.57
 55.37    509.25     22.57
 55.47    586.00     24.21
 55.57    534.00     23.11
 55.67    577.00     24.02
 55.77    557.00     23.60
 55.87    620.00     24.90
 55.97    602.00     24.54
 56.07    632.00     25.14
 56.17    718.00     26.80
 56.27    736.00     27.13
 56.37    952.00     30.85
 56.47   1079.00     32.85
 56.57   1420.00     37.68
 56.67   1720.00     41.47
 56.77   2142.46     46.29
 56.87   2304.22     48.00
 56.97   2444.02     49.44
 57.07   2448.00     49.48
 57.17   2395.00     48.94
 57.27   2002.00     44.74
 57.37   1682.00     41.01
 57.47   1445.45     38.02
 57.57   1173.00     34.25
 57.67    979.00     31.29
 57.77    806.00     28.39
 57.87    767.15     27.70
 57.97    762.45     27.61
 58.07    707.00     26.59
 58.17    670.00     25.88
 58.27    721.00     26.85
 58.37    739.94     27.20
 58.47    767.00     27.69
 58.57    865.00     29.41
 58.67    956.38     30.93
 58.77    994.00     31.53
 58.87   1113.00     33.36
 58.97   1076.00     32.80
 59.07   1335.00     36.54
 59.17   1265.00     35.57
 59.27   1263.00     35.54
 59.37   1288.32     35.89
 59.47   1148.86     33.89
 59.57   1233.00     35.11
 59.67   1137.00     33.72
 59.77   1078.83     32.85
 59.87   1176.00     34.29
 59.97   1236.03     35.16
 60.07   1355.00     36.81
 60.17   1367.00     36.97
 60.27   1533.00     39.15
 60.37   1517.17     38.95
 60.47   1572.00     39.65
 60.57   1352.34     36.77
 60.67   1257.95     35.47
 60.77   1146.00     33.85
 60.87    957.00     30.94
 60.97    814.00     28.53
 61.07    799.23     28.27
 61.17    753.00     27.44
 61.27    676.25     26.00
 61.37    647.42     25.44
 61.47    674.00     25.96
 61.57    706.00     26.57
 61.67    746.00     27.31
 61.77    887.16     29.79
 61.87    903.00     30.05
 61.97   1091.18     33.03
 62.07   1202.31     34.67
 62.17   1371.79     37.04
 62.27   1396.00     37.36
 62.37   1342.00     36.63
 62.47   1307.00     36.15
 62.57   1230.07     35.07
 62.67   1079.00     32.85
 62.77    924.00     30.40
 62.87    801.79     28.32
 62.97    708.00     26.61
 63.07    642.00     25.34
 63.17    658.00     25.65
 63.27    609.00     24.68
 63.37    553.60     23.53
 63.47    567.00     23.81
 63.57    562.00     23.71
 63.67    526.00     22.93
 63.77    604.00     24.58
 63.87    567.00     23.81
 63.97    575.55     23.99
 64.07    672.00     25.92
 64.17    741.00     27.22
 64.27    749.00     27.37
 64.37    844.15     29.05
 64.47    832.00     28.84
 64.57    959.00     30.97
 64.67    968.77     31.13
 64.77    987.00     31.42
 64.87    994.00     31.53
 64.97   1017.98     31.91
 65.07    895.00     29.92
 65.17    829.87     28.81
 65.27    804.00     28.35
 65.37    778.00     27.89
 65.47    716.57     26.77
 65.57    723.34     26.89
 65.67    604.00     24.58
 65.77    605.31     24.60
 65.87    588.00     24.25
 65.97    598.00     24.45
 66.07    533.82     23.10
 66.17    531.38     23.05
 66.27    550.00     23.45
 66.37    569.00     23.85
 66.47    532.00     23.07
 66.57    539.00     23.22
 66.67    611.00     24.72
 66.77    553.91     23.54
 66.87    564.00     23.75
 66.97    578.00     24.04
 67.07    588.25     24.25
 67.17    670.00     25.88
 67.27    677.00     26.02
 67.37    769.00     27.73
 67.47    904.55     30.08
 67.57   1019.40     31.93
 67.67   1220.57     34.94
 67.77   1479.00     38.46
 67.87   1641.59     40.52
 67.97   2000.03     44.72
 68.07   2139.32     46.25
 68.17   2360.00     48.58
 68.27   2369.00     48.67
 68.37   2329.00     48.26
 68.47   2166.31     46.54
 68.57   1973.00     44.42
 68.67   1704.00     41.28
 68.77   1333.84     36.52
 68.87   1164.77     34.13
 68.97    946.00     30.76
 69.07    842.00     29.02
 69.17    766.00     27.68
 69.27    704.00     26.53
 69.37    678.00     26.04
 69.47    665.00     25.79
 69.57    608.00     24.66
 69.67    608.74     24.67
 69.77    538.85     23.21
 69.87    567.82     23.83
 69.97    579.06     24.06
 70.07    603.00     24.56
 70.17    524.55     22.90
 70.27    560.00     23.66
 70.37    559.00     23.64
 70.47    586.00     24.21
 70.57    577.00     24.02
 70.67    577.00     24.02
 70.77    557.95     23.62
 70.87    605.71     24.61
 70.97    662.73     25.74
 71.07    637.00     25.24
 71.17    638.00     25.26
 71.27    765.87     27.67
 71.37    824.00     28.71
 71.47    956.00     30.92
 71.57   1046.00     32.34
 71.67   1214.39     34.85
 71.77   1401.79     37.44
 71.87   1477.34     38.44
 71.97   1670.93     40.88
 72.07   1832.00     42.80
 72.17   1828.00     42.76
 72.27   1905.08     43.65
 72.37   1801.00     42.44
 72.47   1610.95     40.14
 72.57   1462.00     38.24
 72.67   1344.49     36.67
 72.77   1149.00     33.90
 72.87   1080.00     32.86
 72.97    925.00     30.41
 73.07    794.89     28.19
 73.17    729.00     27.00
 73.27    716.00     26.76
 73.37    694.00     26.34
 73.47    675.00     25.98
 73.57    615.00     24.80
 73.67    574.51     23.97
 73.77    588.89     24.27
 73.87    608.00     24.66
 73.97    605.00     24.60
 74.07    581.00     24.10
 74.17    564.00     23.75
 74.27    647.00     25.44
 74.37    579.00     24.06
 74.47    583.00     24.15
 74.57    575.37     23.99
 74.67    628.00     25.06
 74.77    617.00     24.84
 74.87    575.00     23.98
 74.97    621.00     24.92
 75.07    600.00     24.49
 75.17    564.99     23.77
 75.27    611.00     24.72
 75.37    577.00     24.02
 75.47    560.11     23.67
 75.57    537.00     23.17
 75.67    551.48     23.48
 75.77    554.00     23.54
 75.87    597.00     24.43
 75.97    536.00     23.15
 76.07    555.33     23.57
 76.17    585.00     24.19
 76.27    672.00     25.92
 76.37    670.00     25.88
 76.47    646.00     25.42
 76.57    660.03     25.69
 76.67    720.97     26.85
 76.77    736.07     27.13
 76.87    694.00     26.34
 76.97    704.00     26.53
 77.07    650.00     25.50
 77.17    665.18     25.79
 77.27    617.00     24.84
 77.37    607.41     24.65
 77.47    544.00     23.32
 77.57    518.00     22.76
 77.67    536.49     23.16
 77.77    542.44     23.29
 77.87    496.00     22.27
 77.97    474.00     21.77
 78.07    525.00     22.91
 78.17    494.00     22.23
 78.27    530.69     23.04
 78.37    553.65     23.53
 78.47    530.24     23.03
 78.57    514.00     22.67
 78.67    474.17     21.78
 78.77    493.00     22.20
 78.87    477.00     21.84
 78.97    486.00     22.05
 79.07    511.00     22.61
 79.17    495.93     22.27
 79.27    494.00     22.23
 79.37    456.00     21.35
 79.47    507.01     22.52
 79.57    510.26     22.59
 79.67    520.00     22.80
 79.77    507.80     22.53
 79.87    511.00     22.61
 79.97    488.27     22.10
 80.07    468.00     21.63
 80.17    559.00     23.64
 80.27    519.43     22.79
 80.37    568.10     23.83
 80.47    565.08     23.77
 80.57    593.99     24.37
 80.67    549.92     23.45
 80.77    564.00     23.75
 80.87    628.00     25.06
 80.97    652.00     25.53
 81.07    707.60     26.60
 81.17    671.47     25.91
 81.27    712.02     26.68
 81.37    696.00     26.38
 81.47    745.31     27.30
 81.57    706.00     26.57
 81.67    752.00     27.42
 81.77    695.00     26.36
 81.87    731.59     27.05
 81.97    742.34     27.25
 82.07    682.00     26.12
 82.17    740.00     27.20
 82.27    652.00     25.53
 82.37    669.00     25.87
 82.47    593.00     24.35
 82.57    609.00     24.68
 82.67    595.41     24.40
 82.77    597.00     24.43
 82.87    547.25     23.39
 82.97    585.91     24.21
 83.07    524.19     22.90
 83.17    573.22     23.94
 83.27    558.00     23.62
 83.37    517.00     22.74
 83.47    578.75     24.06
 83.57    583.39     24.15
 83.67    520.00     22.80
 83.77    532.00     23.07
 83.87    551.00     23.47
 83.97    597.30     24.44
 84.07    554.00     23.54
 84.17    543.98     23.32
 84.27    539.85     23.23
 84.37    551.94     23.49
 84.47    552.00     23.49
 84.57    567.00     23.81
 84.67    570.00     23.87
 84.77    530.80     23.04
 84.87    525.31     22.92
 84.97    538.00     23.19
 85.07    488.00     22.09
 85.17    494.00     22.23
 85.27    530.33     23.03
 85.37    541.19     23.26
 85.47    526.00     22.93
 85.57    514.00     22.67
 85.67    523.00     22.87
 85.77    470.00     21.68
 85.87    507.00     22.52
 85.97    485.00     22.02
 86.07    525.00     22.91
 86.17    546.44     23.38
 86.27    523.00     22.87
 86.37    535.21     23.13
 86.47    524.00     22.89
 86.57    564.24     23.75
 86.67    541.00     23.26
 86.77    549.00     23.43
 86.87    592.00     24.33
 86.97    572.00     23.92
 87.07    613.00     24.76
 87.17    580.00     24.08
 87.27    607.00     24.64
 87.37    599.22     24.48
 87.47    629.00     25.08
 87.57    579.76     24.08
 87.67    625.00     25.00
 87.77    591.00     24.31
 87.87    596.00     24.41
 87.97    585.00     24.19
 88.07    582.00     24.12
 88.17    595.55     24.40
 88.27    590.00     24.29
 88.37    586.00     24.21
 88.47    553.00     23.52
 88.57    565.00     23.77
 88.67    566.00     23.79
 88.77    559.00     23.64
 88.87    566.68     23.81
 88.97    557.00     23.60
 89.07    581.00     24.10
 89.17    557.12     23.60
 89.27    530.51     23.03
 89.37    581.03     24.10
 89.47    599.00     24.47
 89.57    585.00     24.19
 89.67    593.00     24.35
 89.77    525.00     22.91
 89.87    548.00     23.41
 89.97    601.12     24.52
 90.07    513.00     22.65
 90.17    507.00     22.52
 90.27    506.00     22.49
 90.37    523.68     22.88
 90.47    523.15     22.87
 90.57    510.00     22.58
 90.67    520.00     22.80
 90.77    554.52     23.55
 90.87    485.00     22.02
 90.97    500.00     22.36
 91.07    467.99     21.63
 91.17    498.00     22.32
 91.27    502.00     22.41
 91.37    527.33     22.96
 91.47    522.07     22.85
 91.57    532.00     23.07
 91.67    473.99     21.77
 91.77    506.00     22.49
 91.87    531.00     23.04
 91.97    529.00     23.00
 92.07    496.00     22.27
 92.17    496.00     22.27
 92.27    548.52     23.42
 92.37    507.00     22.52
 92.47    583.00     24.15
 92.57    564.00     23.75
 92.67    578.28     24.05
 92.77    645.00     25.40
 92.87    628.00     25.06
 92.97    695.00     26.36
 93.07    625.00     25.00
 93.17    679.00     26.06
 93.27    641.00     25.32
 93.37    676.00     26.00
 93.47    783.00     27.98
 93.57    759.00     27.55
 93.67    737.00     27.15
 93.77    741.00     27.22
 93.87    786.83     28.05
 93.97    790.00     28.11
 94.07    756.98     27.51
 94.17    783.08     27.98
 94.27    811.00     28.48
 94.37    799.62     28.28
 94.47    865.00     29.41
 94.57    886.19     29.77
 94.67    854.00     29.22
 94.77    878.00     29.63
 94.87    864.14     29.40
 94.97    879.60     29.66
 95.07    894.86     29.91
 95.17    833.00     28.86
 95.27    898.00     29.97
 95.37    885.00     29.75
 95.47    859.00     29.31
 95.57    810.00     28.46
 95.67    780.00     27.93
 95.77    688.30     26.24
 95.87    700.00     26.46
 95.97    699.18     26.44
 96.07    724.00     26.91
 96.17    720.00     26.83
 96.27    673.00     25.94
 96.37    763.00     27.62
 96.47    710.74     26.66
 96.57    751.00     27.40
 96.67    819.00     28.62
 96.77    897.16     29.95
 96.87    866.00     29.43
 96.97   1030.00     32.09
 97.07   1031.00     32.11
 97.17   1105.88     33.25
 97.27   1144.00     33.82
 97.37   1230.00     35.07
 97.47   1310.00     36.19
 97.57   1340.12     36.61
 97.67   1390.60     37.29
 97.77   1400.78     37.43
 97.87   1496.00     38.68
 97.97   1364.00     36.93
 98.07   1379.00     37.13
 98.17   1263.00     35.54
 98.27   1312.00     36.22
 98.37   1153.00     33.96
 98.47   1123.00     33.51
 98.57   1100.00     33.17
 98.67    988.00     31.43
 98.77    985.00     31.38
 98.87    930.50     30.50
 98.97    871.00     29.51
 99.07    916.64     30.28
 99.17    853.00     29.21
 99.27    816.14     28.57
 99.37    836.50     28.92
 99.47    901.00     30.02
 99.57    942.00     30.69
 99.67   1015.81     31.87
 99.77   1082.51     32.90
 99.87   1138.00     33.73
 99.97   1270.00     35.64
100.07   1405.75     37.49
100.17   1392.00     37.31
100.27   1504.00     38.78
100.37   1638.00     40.47
100.47   1703.00     41.27
100.57   1862.00     43.15
100.67   1872.00     43.27
100.77   1967.00     44.35
100.87   1915.00     43.76
100.97   1906.22     43.66
101.07   1949.35     44.15
101.17   1924.00     43.86
101.27   1865.00     43.19
101.37   1911.00     43.71
101.47   1768.00     42.05
101.57   1731.00     41.61
101.67   1592.00     39.90
101.77   1575.00     39.69
101.87   1456.00     38.16
101.97   1438.48     37.93
102.07   1378.00     37.12
102.17   1301.00     36.07
102.27   1292.00     35.94
102.37   1287.54     35.88
102.47   1122.09     33.50
102.57   1176.00     34.29
102.67   1152.75     33.95
102.77   1114.00     33.38
102.87   1090.57     33.02
102.97   1094.84     33.09
103.07   1009.00     31.76
103.17   1007.33     31.74
103.27    941.00     30.68
103.37    890.00     29.83
103.47    857.74     29.29
103.57    857.00     29.27
103.67    781.00     27.95
103.77    727.30     26.97
103.87    760.41     27.58
103.97    721.00     26.85
104.07    669.00     25.87
104.17    664.00     25.77
104.27    620.00     24.90
104.37    609.00     24.68
104.47    587.00     24.23
104.57    556.00     23.58
104.67    576.00     24.00
104.77    546.15     23.37
104.87    568.00     23.83
104.97    528.00     22.98
105.07    556.00     23.58
105.17    522.00     22.85
105.27    529.00     23.00
105.37    521.33     22.83
105.47    529.00     23.00
105.57    509.89     22.58
105.67    531.00     23.04
105.77    545.00     23.35
105.87    530.75     23.04
105.97    572.00     23.92
106.07    512.75     22.64
106.17    574.00     23.96
106.27    565.00     23.77
106.37    548.00     23.41
106.47    581.00     24.10
106.57    568.51     23.84
106.67    634.40     25.19
106.77    618.00     24.86
106.87    587.00     24.23
106.97    663.00     25.75
107.07    618.00     24.86
107.17    628.00     25.06
107.27    662.00     25.73
107.37    661.00     25.71
107.47    706.32     26.58
107.57    703.00     26.51
107.67    687.00     26.21
107.77    646.43     25.42
107.87    662.00     25.73
107.97    589.00     24.27
108.07    654.00     25.57
108.17    653.92     25.57
108.27    635.00     25.20
108.37    634.00     25.18
108.47    676.53     26.01
108.57    708.00     26.61
108.67    698.00     26.42
108.77    644.00     25.38
108.87    685.19     26.18
108.97    671.00     25.90
109.07    720.52     26.84
109.17    661.72     25.72
109.27    693.39     26.33
109.37    675.00     25.98
109.47    661.66     25.72
109.57    663.00     25.75
109.67    635.00     25.20
109.77    648.00     25.46
109.87    648.64     25.47
109.97    620.00     24.90
110.07    592.00     24.33
110.17    592.75     24.35
110.27    599.84     24.49
110.37    572.00     23.92
110.47    569.00     23.85
110.57    513.55     22.66
110.67    551.00     23.47
110.77    543.00     23.30
110.87    508.60     22.55
110.97    537.00     23.17
111.07    497.00     22.29
111.17    548.00     23.41
111.27    560.00     23.66
111.37    525.00     22.91
111.47    562.00     23.71
111.57    515.00     22.69
111.67    517.00     22.74
111.77    561.30     23.69
111.87    541.44     23.27
111.97    560.00     23.66
112.07    508.36     22.55
112.17    610.00     24.70
112.27    559.00     23.64
112.37    493.00     22.20
112.47    578.24     24.05
112.57    517.00     22.74
112.67    500.00     22.36
112.77    592.87     24.35
112.87    552.00     23.49
112.97    555.00     23.56
113.07    585.00     24.19
113.17    556.00     23.58
113.27    571.00     23.90
113.37    615.00     24.80
113.47    580.00     24.08
113.57    584.00     24.17
113.67    647.00     25.44
113.77    656.36     25.62
113.87    717.82     26.79
113.97    667.52     25.84
114.07    739.84     27.20
114.17    791.27     28.13
114.27    862.74     29.37
114.37    846.00     29.09
114.47    895.00     29.92
114.57    983.00     31.35
114.67   1051.33     32.42
114.77   1187.00     34.45
114.87   1342.00     36.63
114.97   1436.65     37.90
115.07   1670.11     40.87
115.17   1834.02     42.83
115.27   2112.00     45.96
115.37   2418.00     49.17
115.47   2591.00     50.90
115.57   2876.77     53.64
115.67   3192.00     56.50
115.77   3480.00     58.99
115.87   3834.00     61.92
115.97   4125.00     64.23
116.07   4517.92     67.22
116.17   5058.00     71.12
116.27   5303.00     72.82
116.37   5698.00     75.49
116.47   6147.00     78.40
116.57   6225.00     78.90
116.67   6571.60     81.07
116.77   6734.54     82.06
116.87   6812.73     82.54
116.97   6789.00     82.40
117.07   6858.07     82.81
117.17   6750.00     82.16
117.27   6608.78     81.29
117.37   6355.00     79.72
117.47   6059.00     77.84
117.57   5869.00     76.61
117.67   5400.00     73.48
117.77   5157.00     71.81
117.87   4724.00     68.73
117.97   4529.00     67.30
118.07   4119.70     64.18
118.17   3884.00     62.32
118.27   3359.69     57.96
118.37   3112.00     55.79
118.47   2797.00     52.89
118.57   2374.00     48.72
118.67   2188.00     46.78
118.77   1947.18     44.13
118.87   1716.08     41.43
118.97   1607.00     40.09
119.07   1439.00     37.93
119.17   1298.00     36.03
119.27   1155.00     33.99
119.37   1057.13     32.51
119.47   1013.00     31.83
119.57    958.75     30.96
119.67    912.87     30.21
119.77    801.00     28.30
119.87    739.59     27.20
119.97    745.95     27.31
120.07    722.13     26.87
120.17    613.00     24.76
120.27    609.38     24.69
120.37    654.00     25.57
120.47    620.00     24.90
120.57    616.00     24.82
120.67    607.00     24.64
120.77    583.99     24.17
120.87    585.00     24.19
120.97    539.00     23.22
121.07    577.00     24.02
121.17    592.64     24.34
121.27    600.09     24.50
121.37    573.35     23.94
121.47    567.00     23.81
121.57    577.00     24.02
121.67    527.21     22.96
121.77    567.00     23.81
121.87    581.19     24.11
121.97    564.00     23.75
122.07    626.23     25.02
122.17    564.00     23.75
122.27    577.00     24.02
122.37    571.86     23.91
122.47    637.00     25.24
122.57    595.00     24.39
122.67    595.00     24.39
122.77    643.00     25.36
122.87    623.65     24.97
122.97    649.00     25.48
123.07    603.78     24.57
123.17    571.19     23.90
123.27    609.12     24.68
123.37    634.00     25.18
123.47    624.00     24.98
123.57    627.00     25.04
123.67    638.58     25.27
123.77    619.00     24.88
123.87    623.00     24.96
123.97    642.00     25.34
124.07    589.17     24.27
124.17    590.00     24.29
124.27    627.24     25.04
124.37    646.00     25.42
124.47    631.96     25.14
124.57    562.72     23.72
124.67    617.00     24.84
124.77    563.00     23.73
124.87    554.00     23.54
124.97    561.00     23.69
