XYDATA



INTER 1.0 1.0 0 0
TEMP 1074.0
  9.97    552.00     23.49
 10.07    538.08     23.20
 10.17    540.69     23.25
 10.27    583.00     24.15
 10.37    545.35     23.35
 10.47    586.00     24.21
 10.57    626.00     25.02
 10.67    547.00     23.39
 10.77    610.00     24.70
 10.87    573.00     23.94
 10.97    598.00     24.45
 11.07    593.00     24.35
 11.17    594.00     24.37
 11.27    568.91     23.85
 11.37    550.73     23.47
 11.47    587.55     24.24
 11.57    595.00     24.39
 11.67    597.00     24.43
 11.77    638.00     25.26
 11.87    623.49     24.97
 11.97    645.00     25.40
 12.07    679.00     26.06
 12.17    750.34     27.39
 12.27    712.00     26.68
 12.37    706.56     26.58
 12.47    638.47     25.27
 12.57    615.00     24.80
 12.67    604.00     24.58
 12.77    538.00     23.19
 12.87    597.86     24.45
 12.97    563.59     23.74
 13.07    545.00     23.35
 13.17    563.00     23.73
 13.27    584.00     24.17
 13.37    528.54     22.99
 13.47    540.00     23.24
 13.57    504.00     22.45
 13.67    543.00     23.30
 13.77    556.00     23.58
 13.87    574.00     23.96
 13.97    584.08     24.17
 14.07    555.00     23.56
 14.17    535.00     23.13
 14.27    581.00     24.10
 14.37    547.54     23.40
 14.47    599.00     24.47
 14.57    572.58     23.93
 14.67    534.00     23.11
 14.77    591.00     24.31
 14.87    589.00     24.27
 14.97    588.79     24.26
 15.07    562.00     23.71
 15.17    593.13     24.35
 15.27    605.80     24.61
 15.37    575.00     23.98
 15.47    530.00     23.02
 15.57    582.00     24.12
 15.67    594.00     24.37
 15.77    555.00     23.56
 15.87    629.00     25.08
 15.97    571.00     23.90
 16.07    564.31     23.76
 16.17    523.00     22.87
 16.27    591.00     24.31
 16.37    562.00     23.71
 16.47    560.00     23.66
 16.57    556.00     23.58
 16.67    614.00     24.78
 16.77    525.36     22.92
 16.87    577.00     24.02
 16.97    590.00     24.29
 17.07    603.76     24.57
 17.17    610.00     24.70
 17.27    567.00     23.81
 17.37    561.00     23.69
 17.47    575.88     24.00
 17.57    567.00     23.81
 17.67    566.00     23.79
 17.77    508.00     22.54
 17.87    566.00     23.79
 17.97    610.21     24.70
 18.07    510.00     22.58
 18.17    505.00     22.47
 18.27    554.00     23.54
 18.37    592.00     24.33
 18.47    570.25     23.88
 18.57    545.00     23.35
 18.67    566.00     23.79
 18.77    560.14     23.67
 18.87    521.88     22.84
 18.97    566.32     23.80
 19.07    594.54     24.38
 19.17    554.00     23.54
 19.27    573.00     23.94
 19.37    539.12     23.22
 19.47    529.00     23.00
 19.57    526.00     22.93
 19.67    579.96     24.08
 19.77    525.51     22.92
 19.87    589.00     24.27
 19.97    556.00     23.58
 20.07    602.26     24.54
 20.17    570.00     23.87
 20.27    559.00     23.64
 20.37    517.09     22.74
 20.47    544.00     23.32
 20.57    542.00     23.28
 20.67    599.00     24.47
 20.77    535.00     23.13
 20.87    548.97     23.43
 20.97    594.94     24.39
 21.07    538.97     23.22
 21.17    557.00     23.60
 21.27    540.52     23.25
 21.37    523.73     22.89
 21.47    574.00     23.96
 21.57    549.00     23.43
 21.67    595.57     24.40
 21.77    509.00     22.56
 21.87    587.42     24.24
 21.97    525.73     22.93
 22.07    581.02     24.10
 22.17    552.00     23.49
 22.27    557.20     23.61
 22.37    549.00     23.43
 22.47    530.00     23.02
 22.57    559.00     23.64
 22.67    551.00     23.47
 22.77    549.91     23.45
 22.87    554.02     23.54
 22.97    578.82     24.06
 23.07    549.00     23.43
 23.17    529.09     23.00
 23.27    593.00     24.35
 23.37    518.00     22.76
 23.47    585.00     24.19
 23.57    553.22     23.52
 23.67    547.51     23.40
 23.77    542.39     23.29
 23.87    564.31     23.76
 23.97    532.00     23.07
 24.07    546.00     23.37
 24.17    592.61     24.34
 24.27    564.05     23.75
 24.37    526.33     22.94
 24.47    588.00     24.25
 24.57    555.40     23.57
 24.67    631.00     25.12
 24.77    670.00     25.88
 24.87    668.00     25.85
 24.97    568.38     23.84
 25.07    622.00     24.94
 25.17    566.00     23.79
 25.27    515.40     22.70
 25.37    525.22     22.92
 25.47    579.22     24.07
 25.57    571.22     23.90
 25.67    564.00     23.75
 25.77    564.00     23.75
 25.87    531.00     23.04
 25.97    580.00     24.08
 26.07    556.00     23.58
 26.17    566.00     23.79
 26.27    579.00     24.06
 26.37    566.00     23.79
 26.47    582.00     24.12
 26.57    578.19     24.05
 26.67    536.00     23.15
 26.77    567.00     23.81
 26.87    530.00     23.02
 26.97    516.02     22.72
 27.07    603.00     24.56
 27.17    523.00     22.87
 27.27    544.00     23.32
 27.37    527.87     22.98
 27.47    571.00     23.90
 27.57    520.69     22.82
 27.67    619.00     24.88
 27.77    582.00     24.12
 27.87    630.88     25.12
 27.97    702.65     26.51
 28.07    747.00     27.33
 28.17    846.62     29.10
 28.27    971.28     31.17
 28.37    868.00     29.46
 28.47    794.26     28.18
 28.57    718.00     26.80
 28.67    711.00     26.66
 28.77    688.05     26.23
 28.87    775.94     27.86
 28.97    829.00     28.79
 29.07    777.00     27.87
 29.17    659.00     25.67
 29.27    639.00     25.28
 29.37    636.00     25.22
 29.47    577.18     24.02
 29.57    579.00     24.06
 29.67    610.30     24.70
 29.77    581.93     24.12
 29.87    560.34     23.67
 29.97    558.29     23.63
 30.07    565.00     23.77
 30.17    575.00     23.98
 30.27    514.01     22.67
 30.37    556.00     23.58
 30.47    561.00     23.69
 30.57    565.37     23.78
 30.67    580.00     24.08
 30.77    589.00     24.27
 30.87    636.00     25.22
 30.97    640.00     25.30
 31.07    566.64     23.80
 31.17    585.69     24.20
 31.27    553.00     23.52
 31.37    522.00     22.85
 31.47    529.00     23.00
 31.57    552.00     23.49
 31.67    534.00     23.11
 31.77    494.34     22.23
 31.87    502.00     22.41
 31.97    533.38     23.10
 32.07    543.00     23.30
 32.17    521.00     22.83
 32.27    573.00     23.94
 32.37    528.87     23.00
 32.47    510.54     22.60
 32.57    538.00     23.19
 32.67    543.00     23.30
 32.77    557.00     23.60
 32.87    539.00     23.22
 32.97    568.01     23.83
 33.07    562.24     23.71
 33.17    564.00     23.75
 33.27    580.43     24.09
 33.37    584.72     24.18
 33.47    554.00     23.54
 33.57    621.90     24.94
 33.67    657.00     25.63
 33.77    756.00     27.50
 33.87    891.00     29.85
 33.97    987.00     31.42
 34.07   1078.57     32.84
 34.17   1004.00     31.69
 34.27    909.71     30.16
 34.37    733.58     27.08
 34.47    648.00     25.46
 34.57    646.00     25.42
 34.67    544.00     23.32
 34.77    511.09     22.61
 34.87    551.26     23.48
 34.97    449.00     21.19
 35.07    561.16     23.69
 35.17    504.00     22.45
 35.27    522.00     22.85
 35.37    506.17     22.50
 35.47    502.24     22.41
 35.57    490.33     22.14
 35.67    496.30     22.28
 35.77    538.58     23.21
 35.87    532.00     23.07
 35.97    505.00     22.47
 36.07    514.00     22.67
 36.17    527.92     22.98
 36.27    539.00     23.22
 36.37    514.21     22.68
 36.47    555.27     23.56
 36.57    489.86     22.13
 36.67    500.11     22.36
 36.77    491.81     22.18
 36.87    548.00     23.41
 36.97    505.00     22.47
 37.07    523.90     22.89
 37.17    500.00     22.36
 37.27    506.00     22.49
 37.37    522.00     22.85
 37.47    561.53     23.70
 37.57    526.00     22.93
 37.67    517.00     22.74
 37.77    567.49     23.82
 37.87    532.35     23.07
 37.97    512.00     22.63
 38.07    494.00     22.23
 38.17    525.00     22.91
 38.27    513.36     22.66
 38.37    477.68     21.86
 38.47    507.00     22.52
 38.57    519.42     22.79
 38.67    483.43     21.99
 38.77    549.89     23.45
 38.87    521.16     22.83
 38.97    472.88     21.75
 39.07    520.00     22.80
 39.17    472.64     21.74
 39.27    527.00     22.96
 39.37    495.00     22.25
 39.47    515.63     22.71
 39.57    543.88     23.32
 39.67    503.55     22.44
 39.77    504.38     22.46
 39.87    538.00     23.19
 39.97    511.42     22.61
 40.07    529.34     23.01
 40.17    494.77     22.24
 40.27    550.00     23.45
 40.37    507.85     22.54
 40.47    547.00     23.39
 40.57    511.15     22.61
 40.67    478.51     21.87
 40.77    521.98     22.85
 40.87    472.22     21.73
 40.97    478.00     21.86
 41.07    502.59     22.42
 41.17    523.97     22.89
 41.27    535.71     23.15
 41.37    506.00     22.49
 41.47    489.00     22.11
 41.57    483.00     21.98
 41.67    534.12     23.11
 41.77    476.31     21.82
 41.87    494.00     22.23
 41.97    510.90     22.60
 42.07    546.13     23.37
 42.17    538.00     23.19
 42.27    519.00     22.78
 42.37    585.00     24.19
 42.47    603.00     24.56
 42.57    569.00     23.85
 42.67    586.00     24.21
 42.77    615.00     24.80
 42.87    596.00     24.41
 42.97    537.69     23.19
 43.07    593.75     24.37
 43.17    521.00     22.83
 43.27    482.00     21.95
 43.37    499.12     22.34
 43.47    495.31     22.26
 43.57    499.72     22.35
 43.67    531.95     23.06
 43.77    502.93     22.43
 43.87    539.42     23.23
 43.97    466.22     21.59
 44.07    483.53     21.99
 44.17    503.00     22.43
 44.27    479.00     21.89
 44.37    487.00     22.07
 44.47    466.46     21.60
 44.57    473.44     21.76
 44.67    544.00     23.32
 44.77    490.00     22.14
 44.87    508.00     22.54
 44.97    480.00     21.91
 45.07    513.34     22.66
 45.17    471.00     21.70
 45.27    504.00     22.45
 45.37    495.00     22.25
 45.47    503.45     22.44
 45.57    468.00     21.63
 45.67    543.00     23.30
 45.77    515.00     22.69
 45.87    505.00     22.47
 45.97    539.25     23.22
 46.07    500.00     22.36
 46.17    500.00     22.36
 46.27    535.41     23.14
 46.37    506.55     22.51
 46.47    466.00     21.59
 46.57    498.00     22.32
 46.67    488.98     22.11
 46.77    497.00     22.29
 46.87    519.00     22.78
 46.97    531.00     23.04
 47.07    483.00     21.98
 47.17    536.00     23.15
 47.27    529.00     23.00
 47.37    521.19     22.83
 47.47    576.12     24.00
 47.57    546.00     23.37
 47.67    558.19     23.63
 47.77    613.50     24.77
 47.87    600.00     24.49
 47.97    591.00     24.31
 48.07    594.00     24.37
 48.17    573.00     23.94
 48.27    563.00     23.73
 48.37    541.00     23.26
 48.47    529.00     23.00
 48.57    556.46     23.59
 48.67    508.00     22.54
 48.77    521.06     22.83
 48.87    512.00     22.63
 48.97    545.00     23.35
 49.07    567.00     23.81
 49.17    580.00     24.08
 49.27    571.00     23.90
 49.37    641.69     25.33
 49.47    730.00     27.02
 49.57    761.10     27.59
 49.67    912.37     30.21
 49.77   1118.00     33.44
 49.87   1434.00     37.87
 49.97   1820.08     42.66
 50.07   2204.00     46.95
 50.17   2410.00     49.09
 50.27   2361.00     48.59
 50.37   2259.00     47.53
 50.47   1877.00     43.32
 50.57   1437.13     37.91
 50.67   1031.00     32.11
 50.77    861.40     29.35
 50.87    790.90     28.12
 50.97    679.00     26.06
 51.07    619.00     24.88
 51.17    645.48     25.41
 51.27    625.00     25.00
 51.37    572.47     23.93
 51.47    576.00     24.00
 51.57    609.00     24.68
 51.67    541.23     23.26
 51.77    559.00     23.64
 51.87    496.52     22.28
 51.97    566.00     23.79
 52.07    599.00     24.47
 52.17    512.23     22.63
 52.27    516.00     22.72
 52.37    561.17     23.69
 52.47    540.00     23.24
 52.57    546.00     23.37
 52.67    604.00     24.58
 52.77    650.00     25.50
 52.87    722.00     26.87
 52.97    693.00     26.32
 53.07    761.19     27.59
 53.17    867.00     29.44
 53.27   1066.34     32.65
 53.37   1137.00     33.72
 53.47   1183.00     34.39
 53.57   1246.81     35.31
 53.67   1079.84     32.86
 53.77    971.00     31.16
 53.87    862.40     29.37
 53.97    740.00     27.20
 54.07    656.28     25.62
 54.17    619.00     24.88
 54.27    609.00     24.68
 54.37    586.00     24.21
 54.47    596.30     24.42
 54.57    511.46     22.62
 54.67    581.26     24.11
 54.77    572.00     23.92
 54.87    543.00     23.30
 54.97    564.00     23.75
 55.07    532.09     23.07
 55.17    567.00     23.81
 55.27    561.00     23.69
 55.37    533.00     23.09
 55.47    531.00     23.04
 55.57    573.01     23.94
 55.67    592.29     24.34
 55.77    559.07     23.64
 55.87    624.00     24.98
 55.97    629.66     25.09
 56.07    666.51     25.82
 56.17    756.00     27.50
 56.27    891.00     29.85
 56.37   1115.00     33.39
 56.47   1460.00     38.21
 56.57   1835.11     42.84
 56.67   2124.00     46.09
 56.77   2313.00     48.09
 56.87   2610.00     51.09
 56.97   2682.00     51.79
 57.07   2398.00     48.97
 57.17   1950.00     44.16
 57.27   1647.22     40.59
 57.37   1333.00     36.51
 57.47   1063.25     32.61
 57.57    869.41     29.49
 57.67    764.00     27.64
 57.77    743.00     27.26
 57.87    742.00     27.24
 57.97    685.16     26.18
 58.07    666.30     25.81
 58.17    768.30     27.72
 58.27    752.00     27.42
 58.37    851.00     29.17
 58.47    924.64     30.41
 58.57   1089.00     33.00
 58.67   1113.00     33.36
 58.77   1335.99     36.55
 58.87   1450.68     38.09
 58.97   1508.00     38.83
 59.07   1451.59     38.10
 59.17   1376.47     37.10
 59.27   1362.00     36.91
 59.37   1343.47     36.65
 59.47   1262.00     35.52
 59.57   1151.63     33.94
 59.67   1134.00     33.67
 59.77   1168.26     34.18
 59.87   1133.23     33.66
 59.97   1316.00     36.28
 60.07   1424.00     37.74
 60.17   1455.10     38.15
 60.27   1564.71     39.56
 60.37   1603.00     40.04
 60.47   1380.00     37.15
 60.57   1363.00     36.92
 60.67   1082.00     32.89
 60.77    894.00     29.90
 60.87    774.00     27.82
 60.97    683.74     26.15
 61.07    646.00     25.42
 61.17    677.14     26.02
 61.27    615.37     24.81
 61.37    648.00     25.46
 61.47    692.00     26.31
 61.57    775.00     27.84
 61.67    831.00     28.83
 61.77    951.44     30.85
 61.87   1116.00     33.41
 61.97   1239.00     35.20
 62.07   1383.00     37.19
 62.17   1354.00     36.80
 62.27   1469.00     38.33
 62.37   1280.00     35.78
 62.47   1241.70     35.24
 62.57   1088.62     32.99
 62.67    965.65     31.07
 62.77    837.79     28.94
 62.87    650.00     25.50
 62.97    642.51     25.35
 63.07    633.00     25.16
 63.17    624.00     24.98
 63.27    568.00     23.83
 63.37    598.00     24.45
 63.47    575.00     23.98
 63.57    533.72     23.10
 63.67    565.00     23.77
 63.77    619.00     24.88
 63.87    663.00     25.75
 63.97    641.28     25.32
 64.07    742.00     27.24
 64.17    739.00     27.18
 64.27    775.60     27.85
 64.37    951.00     30.84
 64.47   1008.14     31.75
 64.57   1005.00     31.70
 64.67   1059.86     32.56
 64.77    979.71     31.30
 64.87    984.00     31.37
 64.97    921.00     30.35
 65.07    838.31     28.95
 65.17    823.00     28.69
 65.27    724.00     26.91
 65.37    658.00     25.65
 65.47    628.00     25.06
 65.57    649.00     25.48
 65.67    560.00     23.66
 65.77    554.00     23.54
 65.87    549.32     23.44
 65.97    547.00     23.39
 66.07    516.00     22.72
 66.17    576.00     24.00
 66.27    582.44     24.13
 66.37    538.00     23.19
 66.47    539.00     23.22
 66.57    553.00     23.52
 66.67    604.00     24.58
 66.77    571.00     23.90
 66.87    602.64     24.55
 66.97    583.00     24.15
 67.07    675.00     25.98
 67.17    695.00     26.36
 67.27    765.00     27.66
 67.37    848.00     29.12
 67.47   1025.00     32.02
 67.57   1255.00     35.43
 67.67   1484.00     38.52
 67.77   1833.00     42.81
 67.87   2150.00     46.37
 67.97   2279.00     47.74
 68.07   2479.00     49.79
 68.17   2334.78     48.32
 68.27   2337.00     48.34
 68.37   2101.00     45.84
 68.47   1791.00     42.32
 68.57   1565.00     39.56
 68.67   1324.00     36.39
 68.77   1102.23     33.20
 68.87    929.69     30.49
 68.97    765.00     27.66
 69.07    701.00     26.48
 69.17    677.48     26.03
 69.27    660.00     25.69
 69.37    618.00     24.86
 69.47    566.54     23.80
 69.57    543.88     23.32
 69.67    578.14     24.04
 69.77    563.00     23.73
 69.87    557.00     23.60
 69.97    577.77     24.04
 70.07    507.00     22.52
 70.17    581.00     24.10
 70.27    551.53     23.48
 70.37    584.83     24.18
 70.47    593.00     24.35
 70.57    566.00     23.79
 70.67    563.00     23.73
 70.77    632.00     25.14
 70.87    615.00     24.80
 70.97    623.00     24.96
 71.07    659.00     25.67
 71.17    737.73     27.16
 71.27    807.00     28.41
 71.37    986.67     31.41
 71.47   1062.00     32.59
 71.57   1211.70     34.81
 71.67   1421.26     37.70
 71.77   1638.00     40.47
 71.87   1778.44     42.17
 71.97   1855.56     43.08
 72.07   1972.17     44.41
 72.17   1929.64     43.93
 72.27   1747.00     41.80
 72.37   1619.03     40.24
 72.47   1507.00     38.82
 72.57   1361.00     36.89
 72.67   1183.57     34.40
 72.77   1008.68     31.76
 72.87    934.00     30.56
 72.97    932.94     30.54
 73.07    794.00     28.18
 73.17    740.00     27.20
 73.27    702.36     26.50
 73.37    700.00     26.46
 73.47    711.53     26.67
 73.57    613.00     24.76
 73.67    661.00     25.71
 73.77    597.00     24.43
 73.87    548.00     23.41
 73.97    555.00     23.56
 74.07    576.45     24.01
 74.17    583.40     24.15
 74.27    613.00     24.76
 74.37    660.00     25.69
 74.47    620.00     24.90
 74.57    650.00     25.50
 74.67    605.00     24.60
 74.77    601.00     24.52
 74.87    605.19     24.60
 74.97    586.88     24.23
 75.07    567.00     23.81
 75.17    568.00     23.83
 75.27    607.00     24.64
 75.37    598.00     24.45
 75.47    566.00     23.79
 75.57    600.00     24.49
 75.67    587.79     24.24
 75.77    627.00     25.04
 75.87    592.00     24.33
 75.97    668.00     25.85
 76.07    650.00     25.50
 76.17    657.87     25.65
 76.27    641.53     25.33
 76.37    671.00     25.90
 76.47    704.00     26.53
 76.57    704.18     26.54
 76.67    746.14     27.32
 76.77    647.00     25.44
 76.87    671.55     25.91
 76.97    637.00     25.24
 77.07    598.00     24.45
 77.17    611.13     24.72
 77.27    523.00     22.87
 77.37    544.01     23.32
 77.47    517.57     22.75
 77.57    558.00     23.62
 77.67    530.07     23.02
 77.77    526.00     22.93
 77.87    504.00     22.45
 77.97    529.00     23.00
 78.07    572.26     23.92
 78.17    524.00     22.89
 78.27    503.00     22.43
 78.37    545.00     23.35
 78.47    531.00     23.04
 78.57    512.65     22.64
 78.67    495.00     22.25
 78.77    494.50     22.24
 78.87    469.00     21.66
 78.97    523.00     22.87
 79.07    548.00     23.41
 79.17    501.00     22.38
 79.27    537.08     23.18
 79.37    514.82     22.69
 79.47    543.00     23.30
 79.57    541.00     23.26
 79.67    540.87     23.26
 79.77    575.00     23.98
 79.87    548.00     23.41
 79.97    551.00     23.47
 80.07    546.00     23.37
 80.17    579.00     24.06
 80.27    609.96     24.70
 80.37    541.73     23.28
 80.47    606.00     24.62
 80.57    593.00     24.35
 80.67    587.80     24.24
 80.77    685.41     26.18
 80.87    650.48     25.50
 80.97    678.00     26.04
 81.07    704.75     26.55
 81.17    743.47     27.27
 81.27    741.00     27.22
 81.37    816.00     28.57
 81.47    831.00     28.83
 81.57    749.00     27.37
 81.67    790.00     28.11
 81.77    791.00     28.12
 81.87    723.00     26.89
 81.97    659.26     25.68
 82.07    667.54     25.84
 82.17    697.59     26.41
 82.27    611.00     24.72
 82.37    615.00     24.80
 82.47    590.00     24.29
 82.57    596.00     24.41
 82.67    580.00     24.08
 82.77    572.00     23.92
 82.87    547.22     23.39
 82.97    551.00     23.47
 83.07    554.00     23.54
 83.17    562.00     23.71
 83.27    547.00     23.39
 83.37    548.00     23.41
 83.47    566.00     23.79
 83.57    526.00     22.93
 83.67    545.00     23.35
 83.77    605.79     24.61
 83.87    545.00     23.35
 83.97    547.00     23.39
 84.07    573.00     23.94
 84.17    535.91     23.15
 84.27    582.00     24.12
 84.37    538.00     23.19
 84.47    547.00     23.39
 84.57    557.00     23.60
 84.67    522.00     22.85
 84.77    537.00     23.17
 84.87    505.00     22.47
 84.97    506.64     22.51
 85.07    521.00     22.83
 85.17    519.00     22.78
 85.27    518.64     22.77
 85.37    547.44     23.40
 85.47    536.00     23.15
 85.57    536.00     23.15
 85.67    493.00     22.20
 85.77    517.56     22.75
 85.87    536.15     23.15
 85.97    560.00     23.66
 86.07    508.72     22.55
 86.17    513.00     22.65
 86.27    564.06     23.75
 86.37    518.00     22.76
 86.47    562.49     23.72
 86.57    525.00     22.91
 86.67    566.00     23.79
 86.77    605.86     24.61
 86.87    623.00     24.96
 86.97    606.23     24.62
 87.07    646.00     25.42
 87.17    676.00     26.00
 87.27    618.00     24.86
 87.37    610.00     24.70
 87.47    631.61     25.13
 87.57    672.00     25.92
 87.67    600.00     24.49
 87.77    626.00     25.02
 87.87    613.62     24.77
 87.97    604.00     24.58
 88.07    653.00     25.55
 88.17    565.36     23.78
 88.27    591.00     24.31
 88.37    597.38     24.44
 88.47    588.00     24.25
 88.57    528.00     22.98
 88.67    554.00     23.54
 88.77    571.73     23.91
 88.87    568.24     23.84
 88.97    604.00     24.58
 89.07    605.00     24.60
 89.17    638.41     25.27
 89.27    640.00     25.30
 89.37    636.69     25.23
 89.47    653.00     25.55
 89.57    603.48     24.57
 89.67    611.35     24.73
 89.77    579.00     24.06
 89.87    563.31     23.73
 89.97    579.65     24.08
 90.07    505.00     22.47
 90.17    557.00     23.60
 90.27    485.00     22.02
 90.37    503.04     22.43
 90.47    510.54     22.60
 90.57    588.00     24.25
 90.67    494.00     22.23
 90.77    512.09     22.63
 90.87    543.45     23.31
 90.97    523.00     22.87
 91.07    550.00     23.45
 91.17    497.74     22.31
 91.27    494.00     22.23
 91.37    500.00     22.36
 91.47    542.04     23.28
 91.57    578.00     24.04
 91.67    529.60     23.01
 91.77    553.11     23.52
 91.87    577.00     24.02
 91.97    533.00     23.09
 92.07    572.00     23.92
 92.17    534.00     23.11
 92.27    584.00     24.17
 92.37    625.00     25.00
 92.47    607.00     24.64
 92.57    580.00     24.08
 92.67    636.00     25.22
 92.77    638.00     25.26
 92.87    712.00     26.68
 92.97    748.39     27.36
 93.07    777.34     27.88
 93.17    753.20     27.44
 93.27    780.00     27.93
 93.37    793.00     28.16
 93.47    797.00     28.23
 93.57    797.38     28.24
 93.67    832.94     28.86
 93.77    852.00     29.19
 93.87    870.00     29.50
 93.97    845.00     29.07
 94.07    881.54     29.69
 94.17    895.37     29.92
 94.27    825.00     28.72
 94.37    809.13     28.45
 94.47    916.00     30.27
 94.57    916.00     30.27
 94.67    893.00     29.88
 94.77    973.00     31.19
 94.87    894.12     29.90
 94.97    949.00     30.81
 95.07    832.26     28.85
 95.17    869.00     29.48
 95.27    864.00     29.39
 95.37    793.00     28.16
 95.47    776.00     27.86
 95.57    762.00     27.60
 95.67    684.89     26.17
 95.77    746.00     27.31
 95.87    689.00     26.25
 95.97    670.12     25.89
 96.07    716.00     26.76
 96.17    703.38     26.52
 96.27    691.56     26.30
 96.37    761.00     27.59
 96.47    773.50     27.81
 96.57    792.00     28.14
 96.67    911.00     30.18
 96.77    964.26     31.05
 96.87   1093.00     33.06
 96.97   1125.00     33.54
 97.07   1169.00     34.19
 97.17   1296.00     36.00
 97.27   1346.16     36.69
 97.37   1411.53     37.57
 97.47   1469.00     38.33
 97.57   1490.00     38.60
 97.67   1427.00     37.78
 97.77   1384.00     37.20
 97.87   1343.00     36.65
 97.97   1293.96     35.97
 98.07   1207.00     34.74
 98.17   1113.67     33.37
 98.27   1107.33     33.28
 98.37   1038.76     32.23
 98.47    906.58     30.11
 98.57    895.00     29.92
 98.67    844.00     29.05
 98.77    768.00     27.71
 98.87    840.00     28.98
 98.97    805.00     28.37
 99.07    827.00     28.76
 99.17    942.00     30.69
 99.27    894.00     29.90
 99.37    920.41     30.34
 99.47    966.00     31.08
 99.57   1103.46     33.22
 99.67   1214.00     34.84
 99.77   1292.00     35.94
 99.87   1371.00     37.03
 99.97   1564.15     39.55
100.07   1635.00     40.44
100.17   1730.00     41.59
100.27   1901.00     43.60
100.37   1961.00     44.28
100.47   2086.00     45.67
100.57   2120.00     46.04
100.67   2121.00     46.05
100.77   2108.00     45.91
100.87   2064.00     45.43
100.97   1991.00     44.62
101.07   1974.97     44.44
101.17   1853.00     43.05
101.27   1716.00     41.42
101.37   1673.00     40.90
101.47   1674.00     40.91
101.57   1547.85     39.34
101.67   1486.83     38.56
101.77   1378.00     37.12
101.87   1326.00     36.41
101.97   1227.00     35.03
102.07   1175.48     34.29
102.17   1185.00     34.42
102.27   1158.00     34.03
102.37   1143.00     33.81
102.47   1082.00     32.89
102.57   1038.98     32.23
102.67   1014.00     31.84
102.77   1044.00     32.31
102.87   1060.00     32.56
102.97    932.00     30.53
103.07    907.00     30.12
103.17    859.00     29.31
103.27    837.69     28.94
103.37    810.00     28.46
103.47    786.00     28.04
103.57    730.00     27.02
103.67    742.82     27.25
103.77    633.64     25.17
103.87    599.00     24.47
103.97    615.70     24.81
104.07    590.41     24.30
104.17    613.07     24.76
104.27    584.00     24.17
104.37    552.55     23.51
104.47    532.00     23.07
104.57    572.00     23.92
104.67    551.00     23.47
104.77    525.00     22.91
104.87    504.80     22.47
104.97    536.57     23.16
105.07    525.83     22.93
105.17    587.00     24.23
105.27    537.85     23.19
105.37    538.96     23.22
105.47    574.00     23.96
105.57    537.00     23.17
105.67    545.00     23.35
105.77    559.00     23.64
105.87    538.00     23.19
105.97    535.84     23.15
106.07    561.10     23.69
106.17    622.83     24.96
106.27    582.00     24.12
106.37    559.00     23.64
106.47    576.00     24.00
106.57    578.00     24.04
106.67    617.00     24.84
106.77    598.00     24.45
106.87    644.00     25.38
106.97    717.70     26.79
107.07    661.00     25.71
107.17    681.91     26.11
107.27    695.46     26.37
107.37    672.00     25.92
107.47    680.00     26.08
107.57    704.31     26.54
107.67    698.00     26.42
107.77    658.06     25.65
107.87    661.86     25.73
107.97    661.12     25.71
108.07    663.00     25.75
108.17    670.00     25.88
108.27    665.00     25.79
108.37    711.09     26.67
108.47    722.00     26.87
108.57    660.00     25.69
108.67    692.00     26.31
108.77    722.00     26.87
108.87    735.96     27.13
108.97    658.92     25.67
109.07    666.17     25.81
109.17    693.33     26.33
109.27    688.00     26.23
109.37    672.00     25.92
109.47    643.71     25.37
109.57    663.00     25.75
109.67    621.61     24.93
109.77    588.00     24.25
109.87    618.00     24.86
109.97    601.00     24.52
110.07    587.00     24.23
110.17    536.00     23.15
110.27    567.00     23.81
110.37    545.00     23.35
110.47    547.52     23.40
110.57    507.85     22.54
110.67    514.00     22.67
110.77    551.00     23.47
110.87    548.00     23.41
110.97    547.00     23.39
111.07    492.67     22.20
111.17    575.00     23.98
111.27    537.46     23.18
111.37    519.40     22.79
111.47    543.00     23.30
111.57    549.00     23.43
111.67    534.00     23.11
111.77    587.45     24.24
111.87    547.68     23.40
111.97    564.00     23.75
112.07    559.88     23.66
112.17    586.06     24.21
112.27    566.56     23.80
112.37    570.00     23.87
112.47    615.93     24.82
112.57    566.00     23.79
112.67    626.88     25.04
112.77    644.99     25.40
112.87    647.20     25.44
112.97    626.00     25.02
113.07    696.00     26.38
113.17    712.65     26.70
113.27    669.00     25.87
113.37    751.74     27.42
113.47    784.00     28.00
113.57    869.00     29.48
113.67    773.00     27.80
113.77    892.00     29.87
113.87    945.00     30.74
113.97    933.00     30.55
114.07    978.00     31.27
114.17   1044.57     32.32
114.27   1094.00     33.08
114.37   1161.00     34.07
114.47   1250.26     35.36
114.57   1415.00     37.62
114.67   1584.63     39.81
114.77   1605.26     40.07
114.87   1853.00     43.05
114.97   2141.00     46.27
115.07   2352.00     48.50
115.17   2557.00     50.57
115.27   2828.00     53.18
115.37   3054.00     55.26
115.47   3442.00     58.67
115.57   3755.00     61.28
115.67   4139.00     64.34
115.77   4474.00     66.89
115.87   4815.69     69.40
115.97   5258.00     72.51
116.07   5672.00     75.31
116.17   6063.59     77.87
116.27   6184.00     78.64
116.37   6488.60     80.55
116.47   6682.00     81.74
116.57   6849.82     82.76
116.67   7028.30     83.83
116.77   6753.00     82.18
116.87   7029.00     83.84
116.97   6572.00     81.07
117.07   6302.91     79.39
117.17   6175.64     78.59
117.27   5801.83     76.17
117.37   5329.00     73.00
117.47   5032.25     70.94
117.57   4606.00     67.87
117.67   4390.00     66.26
117.77   3920.00     62.61
117.87   3597.00     59.97
117.97   3346.00     57.84
118.07   2854.00     53.42
118.17   2505.00     50.05
118.27   2284.43     47.80
118.37   2061.86     45.41
118.47   1777.00     42.15
118.57   1536.00     39.19
118.67   1353.00     36.78
118.77   1227.00     35.03
118.87   1125.90     33.55
118.97   1048.00     32.37
119.07    948.00     30.79
119.17    869.00     29.48
119.27    942.00     30.69
119.37    780.00     27.93
119.47    787.00     28.05
119.57    696.00     26.38
119.67    692.00     26.31
119.77    642.51     25.35
119.87    622.00     24.94
119.97    648.00     25.46
120.07    635.00     25.20
120.17    579.00     24.06
120.27    590.00     24.29
120.37    561.00     23.69
120.47    575.00     23.98
120.57    594.70     24.39
120.67    557.00     23.60
120.77    566.00     23.79
120.87    579.00     24.06
120.97    548.10     23.41
121.07    612.00     24.74
121.17    582.59     24.14
121.27    576.00     24.00
121.37    523.00     22.87
121.47    559.00     23.64
121.57    609.00     24.68
121.67    615.00     24.80
121.77    642.61     25.35
121.87    629.00     25.08
121.97    585.00     24.19
122.07    582.84     24.14
122.17    573.80     23.95
122.27    588.87     24.27
122.37    614.00     24.78
122.47    672.00     25.92
122.57    608.00     24.66
122.67    645.00     25.40
122.77    656.61     25.62
122.87    658.00     25.65
122.97    597.00     24.43
123.07    640.00     25.30
123.17    630.00     25.10
123.27    698.00     26.42
123.37    658.00     25.65
123.47    649.20     25.48
123.57    606.65     24.63
123.67    663.00     25.75
123.77    626.00     25.02
123.87    682.00     26.12
123.97    625.00     25.00
124.07    607.00     24.64
124.17    598.00     24.45
124.27    576.00     24.00
124.37    585.79     24.20
124.47    581.82     24.12
124.57    660.00     25.69
124.67    584.89     24.18
124.77    572.95     23.94
124.87    618.00     24.86
124.97    590.51     24.30
