XYDATA



INTER 1.0 1.0 0 0
TEMP 1074.0
  9.97    611.00     24.72
 10.07    614.59     24.79
 10.17    564.00     23.75
 10.27    634.00     25.18
 10.37    609.00     24.68
 10.47    584.15     24.17
 10.57    584.00     24.17
 10.67    562.00     23.71
 10.77    573.00     23.94
 10.87    603.00     24.56
 10.97    613.00     24.76
 11.07    590.00     24.29
 11.17    595.23     24.40
 11.27    599.97     24.49
 11.37    577.00     24.02
 11.47    589.68     24.28
 11.57    600.00     24.49
 11.67    619.00     24.88
 11.77    615.00     24.80
 11.87    584.00     24.17
 11.97    673.24     25.95
 12.07    701.61     26.49
 12.17    701.00     26.48
 12.27    679.00     26.06
 12.37    661.00     25.71
 12.47    612.00     24.74
 12.57    641.10     25.32
 12.67    559.00     23.64
 12.77    551.00     23.47
 12.87    563.00     23.73
 12.97    621.69     24.93
 13.07    609.00     24.68
 13.17    587.48     24.24
 13.27    540.00     23.24
 13.37    540.00     23.24
 13.47    613.71     24.77
 13.57    578.00     24.04
 13.67    592.00     24.33
 13.77    548.66     23.42
 13.87    553.98     23.54
 13.97    566.00     23.79
 14.07    583.00     24.15
 14.17    589.00     24.27
 14.27    577.00     24.02
 14.37    582.36     24.13
 14.47    571.00     23.90
 14.57    576.00     24.00
 14.67    550.00     23.45
 14.77    589.00     24.27
 14.87    577.63     24.03
 14.97    563.02     23.73
 15.07    572.82     23.93
 15.17    539.43     23.23
 15.27    583.62     24.16
 15.37    546.00     23.37
 15.47    525.31     22.92
 15.57    579.00     24.06
 15.67    562.00     23.71
 15.77    541.58     23.27
 15.87    577.00     24.02
 15.97    543.89     23.32
 16.07    537.53     23.18
 16.17    530.00     23.02
 16.27    581.00     24.10
 16.37    613.25     24.76
 16.47    521.00     22.83
 16.57    588.17     24.25
 16.67    527.00     22.96
 16.77    581.00     24.10
 16.87    557.00     23.60
 16.97    554.43     23.55
 17.07    568.00     23.83
 17.17    583.00     24.15
 17.27    542.81     23.30
 17.37    563.00     23.73
 17.47    561.30     23.69
 17.57    551.00     23.47
 17.67    599.00     24.47
 17.77    528.00     22.98
 17.87    553.00     23.52
 17.97    544.00     23.32
 18.07    591.00     24.31
 18.17    546.40     23.38
 18.27    587.17     24.23
 18.37    560.00     23.66
 18.47    551.00     23.47
 18.57    581.62     24.12
 18.67    560.00     23.66
 18.77    547.00     23.39
 18.87    569.97     23.87
 18.97    555.00     23.56
 19.07    534.75     23.12
 19.17    592.00     24.33
 19.27    616.00     24.82
 19.37    537.00     23.17
 19.47    546.00     23.37
 19.57    529.86     23.02
 19.67    519.43     22.79
 19.77    574.00     23.96
 19.87    528.03     22.98
 19.97    567.00     23.81
 20.07    519.72     22.80
 20.17    540.65     23.25
 20.27    528.11     22.98
 20.37    600.00     24.49
 20.47    556.00     23.58
 20.57    523.00     22.87
 20.67    584.04     24.17
 20.77    557.03     23.60
 20.87    577.12     24.02
 20.97    550.00     23.45
 21.07    540.00     23.24
 21.17    590.00     24.29
 21.27    550.00     23.45
 21.37    564.07     23.75
 21.47    544.53     23.34
 21.57    570.00     23.87
 21.67    536.00     23.15
 21.77    532.00     23.07
 21.87    552.00     23.49
 21.97    528.86     23.00
 22.07    571.00     23.90
 22.17    569.00     23.85
 22.27    544.00     23.32
 22.37    561.00     23.69
 22.47    519.00     22.78
 22.57    550.00     23.45
 22.67    553.00     23.52
 22.77    577.00     24.02
 22.87    529.00     23.00
 22.97    579.94     24.08
 23.07    589.07     24.27
 23.17    531.00     23.04
 23.27    545.42     23.35
 23.37    526.47     22.94
 23.47    583.00     24.15
 23.57    551.00     23.47
 23.67    525.00     22.91
 23.77    550.00     23.45
 23.87    528.00     22.98
 23.97    590.00     24.29
 24.07    503.78     22.45
 24.17    579.00     24.06
 24.27    615.00     24.80
 24.37    557.79     23.62
 24.47    586.00     24.21
 24.57    622.00     24.94
 24.67    661.37     25.72
 24.77    640.00     25.30
 24.87    623.00     24.96
 24.97    561.77     23.70
 25.07    563.91     23.75
 25.17    588.00     24.25
 25.27    525.63     22.93
 25.37    564.00     23.75
 25.47    512.38     22.64
 25.57    548.00     23.41
 25.67    534.00     23.11
 25.77    568.56     23.84
 25.87    564.35     23.76
 25.97    578.00     24.04
 26.07    554.87     23.56
 26.17    554.00     23.54
 26.27    518.00     22.76
 26.37    561.16     23.69
 26.47    559.00     23.64
 26.57    518.00     22.76
 26.67    520.28     22.81
 26.77    516.02     22.72
 26.87    579.00     24.06
 26.97    515.00     22.69
 27.07    520.04     22.80
 27.17    497.32     22.30
 27.27    522.00     22.85
 27.37    577.56     24.03
 27.47    580.00     24.08
 27.57    561.00     23.69
 27.67    572.00     23.92
 27.77    586.00     24.21
 27.87    578.00     24.04
 27.97    626.32     25.03
 28.07    755.00     27.48
 28.17    865.00     29.41
 28.27    954.26     30.89
 28.37    922.00     30.36
 28.47    841.00     29.00
 28.57    751.88     27.42
 28.67    695.24     26.37
 28.77    750.00     27.39
 28.87    866.16     29.43
 28.97    807.71     28.42
 29.07    763.00     27.62
 29.17    773.49     27.81
 29.27    694.08     26.35
 29.37    590.00     24.29
 29.47    572.00     23.92
 29.57    578.00     24.04
 29.67    565.00     23.77
 29.77    561.00     23.69
 29.87    582.00     24.12
 29.97    631.00     25.12
 30.07    511.08     22.61
 30.17    575.39     23.99
 30.27    499.55     22.35
 30.37    549.00     23.43
 30.47    537.00     23.17
 30.57    562.00     23.71
 30.67    586.45     24.22
 30.77    550.64     23.47
 30.87    582.00     24.12
 30.97    585.00     24.19
 31.07    585.71     24.20
 31.17    609.00     24.68
 31.27    508.00     22.54
 31.37    534.00     23.11
 31.47    533.00     23.09
 31.57    518.00     22.76
 31.67    515.00     22.69
 31.77    495.15     22.25
 31.87    533.00     23.09
 31.97    523.13     22.87
 32.07    525.00     22.91
 32.17    502.15     22.41
 32.27    518.00     22.76
 32.37    509.00     22.56
 32.47    585.00     24.19
 32.57    553.00     23.52
 32.67    560.00     23.66
 32.77    494.58     22.24
 32.87    542.00     23.28
 32.97    572.91     23.94
 33.07    551.00     23.47
 33.17    543.45     23.31
 33.27    551.00     23.47
 33.37    551.00     23.47
 33.47    554.00     23.54
 33.57    580.00     24.08
 33.67    680.54     26.09
 33.77    776.00     27.86
 33.87    888.87     29.81
 33.97   1058.00     32.53
 34.07   1105.00     33.24
 34.17    994.00     31.53
 34.27    879.00     29.65
 34.37    776.00     27.86
 34.47    627.42     25.05
 34.57    565.17     23.77
 34.67    600.47     24.50
 34.77    553.91     23.54
 34.87    538.00     23.19
 34.97    507.73     22.53
 35.07    550.00     23.45
 35.17    498.77     22.33
 35.27    521.00     22.83
 35.37    516.00     22.72
 35.47    528.00     22.98
 35.57    525.71     22.93
 35.67    540.00     23.24
 35.77    504.30     22.46
 35.87    496.00     22.27
 35.97    488.00     22.09
 36.07    532.00     23.07
 36.17    490.00     22.14
 36.27    486.00     22.05
 36.37    508.00     22.54
 36.47    499.59     22.35
 36.57    493.73     22.22
 36.67    544.00     23.32
 36.77    530.00     23.02
 36.87    519.83     22.80
 36.97    517.00     22.74
 37.07    490.00     22.14
 37.17    526.00     22.93
 37.27    491.00     22.16
 37.37    540.18     23.24
 37.47    544.00     23.32
 37.57    518.00     22.76
 37.67    493.00     22.20
 37.77    519.00     22.78
 37.87    511.00     22.61
 37.97    540.00     23.24
 38.07    549.85     23.45
 38.17    492.90     22.20
 38.27    527.00     22.96
 38.37    515.00     22.69
 38.47    537.83     23.19
 38.57    486.00     22.05
 38.67    530.38     23.03
 38.77    547.00     23.39
 38.87    556.00     23.58
 38.97    499.00     22.34
 39.07    483.00     21.98
 39.17    450.00     21.21
 39.27    476.00     21.82
 39.37    496.00     22.27
 39.47    515.00     22.69
 39.57    505.00     22.47
 39.67    471.00     21.70
 39.77    494.00     22.23
 39.87    509.00     22.56
 39.97    490.75     22.15
 40.07    487.00     22.07
 40.17    453.00     21.28
 40.27    503.00     22.43
 40.37    526.26     22.94
 40.47    516.00     22.72
 40.57    496.82     22.29
 40.67    521.00     22.83
 40.77    474.00     21.77
 40.87    547.97     23.41
 40.97    495.92     22.27
 41.07    489.00     22.11
 41.17    507.47     22.53
 41.27    512.00     22.63
 41.37    501.00     22.38
 41.47    514.00     22.67
 41.57    501.00     22.38
 41.67    540.00     23.24
 41.77    505.59     22.49
 41.87    469.00     21.66
 41.97    484.10     22.00
 42.07    536.00     23.15
 42.17    560.00     23.66
 42.27    544.00     23.32
 42.37    531.50     23.05
 42.47    630.29     25.11
 42.57    579.17     24.07
 42.67    610.52     24.71
 42.77    589.00     24.27
 42.87    592.00     24.33
 42.97    525.00     22.91
 43.07    558.00     23.62
 43.17    539.00     23.22
 43.27    523.00     22.87
 43.37    534.00     23.11
 43.47    492.00     22.18
 43.57    449.00     21.19
 43.67    550.00     23.45
 43.77    516.00     22.72
 43.87    502.00     22.41
 43.97    485.00     22.02
 44.07    477.00     21.84
 44.17    504.00     22.45
 44.27    507.00     22.52
 44.37    534.18     23.11
 44.47    482.00     21.95
 44.57    480.26     21.91
 44.67    533.00     23.09
 44.77    507.21     22.52
 44.87    484.00     22.00
 44.97    458.76     21.42
 45.07    476.00     21.82
 45.17    495.00     22.25
 45.27    505.00     22.47
 45.37    467.00     21.61
 45.47    495.00     22.25
 45.57    534.00     23.11
 45.67    476.87     21.84
 45.77    526.00     22.93
 45.87    502.00     22.41
 45.97    505.00     22.47
 46.07    504.64     22.46
 46.17    530.00     23.02
 46.27    508.00     22.54
 46.37    486.00     22.05
 46.47    520.00     22.80
 46.57    521.00     22.83
 46.67    504.00     22.45
 46.77    542.66     23.30
 46.87    507.00     22.52
 46.97    528.64     22.99
 47.07    506.00     22.49
 47.17    485.40     22.03
 47.27    513.00     22.65
 47.37    551.17     23.48
 47.47    515.46     22.70
 47.57    542.00     23.28
 47.67    558.53     23.63
 47.77    580.40     24.09
 47.87    605.00     24.60
 47.97    566.00     23.79
 48.07    583.00     24.15
 48.17    609.00     24.68
 48.27    563.00     23.73
 48.37    499.00     22.34
 48.47    527.00     22.96
 48.57    537.00     23.17
 48.67    490.00     22.14
 48.77    509.70     22.58
 48.87    547.00     23.39
 48.97    511.19     22.61
 49.07    584.00     24.17
 49.17    633.44     25.17
 49.27    623.52     24.97
 49.37    638.00     25.26
 49.47    678.42     26.05
 49.57    804.00     28.35
 49.67    879.95     29.66
 49.77   1122.00     33.50
 49.87   1488.00     38.57
 49.97   1806.00     42.50
 50.07   2239.42     47.32
 50.17   2496.68     49.97
 50.27   2424.00     49.23
 50.37   2341.00     48.38
 50.47   1965.18     44.33
 50.57   1532.09     39.14
 50.67   1142.65     33.80
 50.77    869.47     29.49
 50.87    709.00     26.63
 50.97    679.00     26.06
 51.07    600.97     24.51
 51.17    584.76     24.18
 51.27    655.00     25.59
 51.37    556.00     23.58
 51.47    566.00     23.79
 51.57    592.09     24.33
 51.67    540.00     23.24
 51.77    522.00     22.85
 51.87    554.00     23.54
 51.97    548.00     23.41
 52.07    531.00     23.04
 52.17    522.88     22.87
 52.27    570.77     23.89
 52.37    547.95     23.41
 52.47    533.39     23.10
 52.57    573.00     23.94
 52.67    591.00     24.31
 52.77    595.00     24.39
 52.87    660.00     25.69
 52.97    730.00     27.02
 53.07    774.00     27.82
 53.17    910.00     30.17
 53.27    971.00     31.16
 53.37   1151.00     33.93
 53.47   1156.00     34.00
 53.57   1170.00     34.21
 53.67   1099.00     33.15
 53.77    922.00     30.36
 53.87    872.00     29.53
 53.97    776.62     27.87
 54.07    659.00     25.67
 54.17    614.00     24.78
 54.27    590.00     24.29
 54.37    564.00     23.75
 54.47    503.83     22.45
 54.57    546.00     23.37
 54.67    532.24     23.07
 54.77    555.00     23.56
 54.87    502.41     22.41
 54.97    558.00     23.62
 55.07    514.96     22.69
 55.17    549.00     23.43
 55.27    575.25     23.98
 55.37    585.74     24.20
 55.47    598.00     24.45
 55.57    590.74     24.31
 55.67    554.00     23.54
 55.77    600.84     24.51
 55.87    585.00     24.19
 55.97    592.62     24.34
 56.07    702.15     26.50
 56.17    746.46     27.32
 56.27    947.52     30.78
 56.37   1082.00     32.89
 56.47   1502.05     38.76
 56.57   1704.00     41.28
 56.67   2196.00     46.86
 56.77   2433.00     49.33
 56.87   2642.00     51.40
 56.97   2535.38     50.35
 57.07   2365.99     48.64
 57.17   2039.00     45.16
 57.27   1689.00     41.10
 57.37   1239.29     35.20
 57.47   1072.00     32.74
 57.57    879.00     29.65
 57.67    725.76     26.94
 57.77    713.00     26.70
 57.87    717.00     26.78
 57.97    694.00     26.34
 58.07    663.00     25.75
 58.17    670.00     25.88
 58.27    778.00     27.89
 58.37    886.66     29.78
 58.47    993.00     31.51
 58.57   1143.00     33.81
 58.67   1334.70     36.53
 58.77   1408.00     37.52
 58.87   1536.00     39.19
 58.97   1527.56     39.08
 59.07   1636.00     40.45
 59.17   1521.00     39.00
 59.27   1494.00     38.65
 59.37   1410.31     37.55
 59.47   1310.72     36.20
 59.57   1207.31     34.75
 59.67   1091.56     33.04
 59.77   1166.87     34.16
 59.87   1234.00     35.13
 59.97   1327.00     36.43
 60.07   1493.00     38.64
 60.17   1568.00     39.60
 60.27   1597.00     39.96
 60.37   1502.00     38.76
 60.47   1464.00     38.26
 60.57   1250.00     35.36
 60.67   1095.00     33.09
 60.77    876.48     29.61
 60.87    821.00     28.65
 60.97    658.00     25.65
 61.07    644.00     25.38
 61.17    626.70     25.03
 61.27    613.08     24.76
 61.37    635.00     25.20
 61.47    704.71     26.55
 61.57    724.00     26.91
 61.67    858.00     29.29
 61.77    950.76     30.83
 61.87   1131.87     33.64
 61.97   1197.00     34.60
 62.07   1345.00     36.67
 62.17   1422.00     37.71
 62.27   1378.00     37.12
 62.37   1407.72     37.52
 62.47   1160.00     34.06
 62.57   1102.55     33.20
 62.67    884.00     29.73
 62.77    707.00     26.59
 62.87    668.00     25.85
 62.97    603.00     24.56
 63.07    604.00     24.58
 63.17    603.26     24.56
 63.27    553.43     23.53
 63.37    519.77     22.80
 63.47    579.00     24.06
 63.57    616.00     24.82
 63.67    573.00     23.94
 63.77    578.25     24.05
 63.87    632.00     25.14
 63.97    671.00     25.90
 64.07    672.00     25.92
 64.17    751.65     27.42
 64.27    855.63     29.25
 64.37    881.00     29.68
 64.47    967.83     31.11
 64.57   1010.39     31.79
 64.67   1061.00     32.57
 64.77   1058.00     32.53
 64.87   1013.00     31.83
 64.97    905.56     30.09
 65.07    878.00     29.63
 65.17    794.39     28.18
 65.27    722.00     26.87
 65.37    676.00     26.00
 65.47    609.86     24.70
 65.57    668.00     25.85
 65.67    620.00     24.90
 65.77    578.00     24.04
 65.87    567.92     23.83
 65.97    579.61     24.08
 66.07    539.00     23.22
 66.17    540.00     23.24
 66.27    542.92     23.30
 66.37    542.00     23.28
 66.47    606.45     24.63
 66.57    544.00     23.32
 66.67    596.00     24.41
 66.77    549.00     23.43
 66.87    577.00     24.02
 66.97    566.00     23.79
 67.07    636.77     25.23
 67.17    691.27     26.29
 67.27    779.02     27.91
 67.37    848.00     29.12
 67.47   1071.00     32.73
 67.57   1302.22     36.09
 67.67   1460.91     38.22
 67.77   1757.00     41.92
 67.87   2081.95     45.63
 67.97   2281.00     47.76
 68.07   2387.00     48.86
 68.17   2365.53     48.64
 68.27   2237.00     47.30
 68.37   1962.39     44.30
 68.47   1744.02     41.76
 68.57   1454.79     38.14
 68.67   1279.00     35.76
 68.77   1003.00     31.67
 68.87    902.00     30.03
 68.97    794.00     28.18
 69.07    687.00     26.21
 69.17    668.00     25.85
 69.27    641.14     25.32
 69.37    621.30     24.93
 69.47    616.00     24.82
 69.57    622.00     24.94
 69.67    564.26     23.75
 69.77    598.00     24.45
 69.87    583.00     24.15
 69.97    594.00     24.37
 70.07    582.00     24.12
 70.17    576.70     24.01
 70.27    578.00     24.04
 70.37    548.00     23.41
 70.47    534.85     23.13
 70.57    565.84     23.79
 70.67    568.00     23.83
 70.77    592.00     24.33
 70.87    596.45     24.42
 70.97    597.91     24.45
 71.07    634.00     25.18
 71.17    699.00     26.44
 71.27    816.00     28.57
 71.37    937.00     30.61
 71.47   1123.25     33.51
 71.57   1313.11     36.24
 71.67   1513.14     38.90
 71.77   1544.00     39.29
 71.87   1718.00     41.45
 71.97   1919.00     43.81
 72.07   1938.20     44.03
 72.17   1857.00     43.09
 72.27   1792.79     42.34
 72.37   1666.75     40.83
 72.47   1528.54     39.10
 72.57   1299.74     36.05
 72.67   1151.00     33.93
 72.77   1166.77     34.16
 72.87   1000.00     31.62
 72.97    981.37     31.33
 73.07    904.21     30.07
 73.17    752.00     27.42
 73.27    739.41     27.19
 73.37    694.62     26.36
 73.47    666.00     25.81
 73.57    647.00     25.44
 73.67    610.00     24.70
 73.77    596.00     24.41
 73.87    582.00     24.12
 73.97    610.32     24.70
 74.07    552.45     23.50
 74.17    586.84     24.22
 74.27    629.00     25.08
 74.37    615.74     24.81
 74.47    673.00     25.94
 74.57    636.00     25.22
 74.67    557.27     23.61
 74.77    665.00     25.79
 74.87    653.00     25.55
 74.97    540.53     23.25
 75.07    529.00     23.00
 75.17    521.69     22.84
 75.27    597.00     24.43
 75.37    572.83     23.93
 75.47    557.02     23.60
 75.57    567.00     23.81
 75.67    605.00     24.60
 75.77    599.06     24.48
 75.87    568.00     23.83
 75.97    620.05     24.90
 76.07    602.27     24.54
 76.17    647.00     25.44
 76.27    699.00     26.44
 76.37    663.00     25.75
 76.47    730.00     27.02
 76.57    679.12     26.06
 76.67    661.00     25.71
 76.77    664.00     25.77
 76.87    625.99     25.02
 76.97    667.00     25.83
 77.07    638.00     25.26
 77.17    607.00     24.64
 77.27    580.00     24.08
 77.37    581.22     24.11
 77.47    521.00     22.83
 77.57    588.49     24.26
 77.67    515.00     22.69
 77.77    538.47     23.20
 77.87    532.00     23.07
 77.97    536.00     23.15
 78.07    567.81     23.83
 78.17    515.51     22.70
 78.27    537.00     23.17
 78.37    535.00     23.13
 78.47    524.00     22.89
 78.57    510.00     22.58
 78.67    568.40     23.84
 78.77    504.00     22.45
 78.87    531.00     23.04
 78.97    566.93     23.81
 79.07    534.00     23.11
 79.17    510.00     22.58
 79.27    495.49     22.26
 79.37    521.00     22.83
 79.47    515.00     22.69
 79.57    511.18     22.61
 79.67    520.00     22.80
 79.77    554.00     23.54
 79.87    587.93     24.25
 79.97    523.00     22.87
 80.07    517.91     22.76
 80.17    558.44     23.63
 80.27    579.00     24.06
 80.37    546.00     23.37
 80.47    563.00     23.73
 80.57    581.00     24.10
 80.67    619.00     24.88
 80.77    675.00     25.98
 80.87    640.00     25.30
 80.97    694.00     26.34
 81.07    760.79     27.58
 81.17    775.00     27.84
 81.27    711.00     26.66
 81.37    704.29     26.54
 81.47    768.00     27.71
 81.57    747.00     27.33
 81.67    703.23     26.52
 81.77    754.00     27.46
 81.87    730.00     27.02
 81.97    692.00     26.31
 82.07    646.00     25.42
 82.17    671.00     25.90
 82.27    643.00     25.36
 82.37    574.99     23.98
 82.47    620.00     24.90
 82.57    567.29     23.82
 82.67    591.52     24.32
 82.77    577.00     24.02
 82.87    566.00     23.79
 82.97    571.00     23.90
 83.07    577.00     24.02
 83.17    580.00     24.08
 83.27    558.00     23.62
 83.37    558.00     23.62
 83.47    527.00     22.96
 83.57    569.00     23.85
 83.67    562.00     23.71
 83.77    535.02     23.13
 83.87    601.00     24.52
 83.97    611.65     24.73
 84.07    622.44     24.95
 84.17    563.00     23.73
 84.27    533.00     23.09
 84.37    552.00     23.49
 84.47    589.00     24.27
 84.57    537.00     23.17
 84.67    510.63     22.60
 84.77    588.15     24.25
 84.87    487.00     22.07
 84.97    534.00     23.11
 85.07    492.00     22.18
 85.17    526.00     22.93
 85.27    556.58     23.59
 85.37    555.00     23.56
 85.47    529.00     23.00
 85.57    541.00     23.26
 85.67    485.00     22.02
 85.77    513.00     22.65
 85.87    530.00     23.02
 85.97    527.00     22.96
 86.07    498.84     22.33
 86.17    491.90     22.18
 86.27    545.00     23.35
 86.37    531.79     23.06
 86.47    530.00     23.02
 86.57    573.00     23.94
 86.67    544.00     23.32
 86.77    581.00     24.10
 86.87    590.23     24.29
 86.97    582.00     24.12
 87.07    583.29     24.15
 87.17    634.00     25.18
 87.27    656.76     25.63
 87.37    566.00     23.79
 87.47    607.25     24.64
 87.57    654.00     25.57
 87.67    659.00     25.67
 87.77    680.00     26.08
 87.87    637.00     25.24
 87.97    605.00     24.60
 88.07    545.00     23.35
 88.17    606.78     24.63
 88.27    596.00     24.41
 88.37    568.00     23.83
 88.47    557.00     23.60
 88.57    579.00     24.06
 88.67    553.00     23.52
 88.77    600.00     24.49
 88.87    604.00     24.58
 88.97    612.00     24.74
 89.07    569.00     23.85
 89.17    617.64     24.85
 89.27    579.00     24.06
 89.37    595.00     24.39
 89.47    633.39     25.17
 89.57    634.38     25.19
 89.67    610.67     24.71
 89.77    588.00     24.25
 89.87    520.00     22.80
 89.97    561.61     23.70
 90.07    608.96     24.68
 90.17    585.71     24.20
 90.27    486.00     22.05
 90.37    578.05     24.04
 90.47    506.26     22.50
 90.57    529.75     23.02
 90.67    531.00     23.04
 90.77    548.00     23.41
 90.87    494.00     22.23
 90.97    486.74     22.06
 91.07    505.30     22.48
 91.17    522.21     22.85
 91.27    505.00     22.47
 91.37    551.93     23.49
 91.47    546.81     23.38
 91.57    548.00     23.41
 91.67    533.97     23.11
 91.77    537.00     23.17
 91.87    560.00     23.66
 91.97    529.13     23.00
 92.07    557.00     23.60
 92.17    611.71     24.73
 92.27    583.00     24.15
 92.37    594.00     24.37
 92.47    636.00     25.22
 92.57    676.00     26.00
 92.67    659.00     25.67
 92.77    714.00     26.72
 92.87    716.00     26.76
 92.97    764.69     27.65
 93.07    747.00     27.33
 93.17    724.72     26.92
 93.27    791.00     28.12
 93.37    779.00     27.91
 93.47    809.00     28.44
 93.57    831.00     28.83
 93.67    782.26     27.97
 93.77    883.00     29.72
 93.87    774.89     27.84
 93.97    860.00     29.33
 94.07    869.00     29.48
 94.17    850.00     29.15
 94.27    878.00     29.63
 94.37    847.32     29.11
 94.47    864.69     29.41
 94.57    894.33     29.91
 94.67    915.00     30.25
 94.77    944.00     30.72
 94.87    848.69     29.13
 94.97    935.00     30.58
 95.07    893.00     29.88
 95.17    821.00     28.65
 95.27    843.00     29.03
 95.37    826.00     28.74
 95.47    761.00     27.59
 95.57    775.00     27.84
 95.67    662.20     25.73
 95.77    705.77     26.57
 95.87    695.00     26.36
 95.97    718.00     26.80
 96.07    635.69     25.21
 96.17    697.85     26.42
 96.27    730.00     27.02
 96.37    754.00     27.46
 96.47    816.00     28.57
 96.57    834.00     28.88
 96.67    892.00     29.87
 96.77    975.00     31.22
 96.87   1087.23     32.97
 96.97   1175.68     34.29
 97.07   1241.00     35.23
 97.17   1300.33     36.06
 97.27   1393.27     37.33
 97.37   1407.70     37.52
 97.47   1390.92     37.29
 97.57   1436.00     37.89
 97.67   1452.91     38.12
 97.77   1432.00     37.84
 97.87   1268.18     35.61
 97.97   1280.89     35.79
 98.07   1184.95     34.42
 98.17   1154.00     33.97
 98.27   1115.02     33.39
 98.37   1004.00     31.69
 98.47    919.00     30.32
 98.57    865.46     29.42
 98.67    888.00     29.80
 98.77    820.36     28.64
 98.87    818.00     28.60
 98.97    838.32     28.95
 99.07    769.47     27.74
 99.17    848.00     29.12
 99.27    825.00     28.72
 99.37    962.65     31.03
 99.47   1001.00     31.64
 99.57   1110.45     33.32
 99.67   1218.00     34.90
 99.77   1273.49     35.69
 99.87   1325.44     36.41
 99.97   1520.62     39.00
100.07   1640.00     40.50
100.17   1812.00     42.57
100.27   1814.00     42.59
100.37   1953.50     44.20
100.47   2028.00     45.03
100.57   2051.00     45.29
100.67   2030.00     45.06
100.77   2210.00     47.01
100.87   2146.00     46.32
100.97   2062.00     45.41
101.07   2007.15     44.80
101.17   1896.27     43.55
101.27   1891.91     43.50
101.37   1727.00     41.56
101.47   1629.00     40.36
101.57   1510.00     38.86
101.67   1480.84     38.48
101.77   1334.00     36.52
101.87   1322.00     36.36
101.97   1213.00     34.83
102.07   1188.00     34.47
102.17   1184.09     34.41
102.27   1123.62     33.52
102.37   1069.00     32.70
102.47   1098.00     33.14
102.57   1021.00     31.95
102.67   1038.00     32.22
102.77   1078.00     32.83
102.87    997.00     31.58
102.97    906.60     30.11
103.07    921.00     30.35
103.17    857.44     29.28
103.27    857.00     29.27
103.37    844.00     29.05
103.47    749.97     27.39
103.57    772.00     27.78
103.67    662.00     25.73
103.77    643.37     25.36
103.87    681.00     26.10
103.97    604.00     24.58
104.07    627.10     25.04
104.17    536.67     23.17
104.27    527.47     22.97
104.37    601.00     24.52
104.47    590.00     24.29
104.57    566.68     23.81
104.67    505.01     22.47
104.77    547.00     23.39
104.87    539.00     23.22
104.97    558.00     23.62
105.07    488.43     22.10
105.17    558.00     23.62
105.27    543.37     23.31
105.37    542.09     23.28
105.47    489.15     22.12
105.57    565.00     23.77
105.67    585.86     24.20
105.77    583.00     24.15
105.87    566.67     23.80
105.97    597.00     24.43
106.07    544.00     23.32
106.17    589.11     24.27
106.27    608.00     24.66
106.37    563.41     23.74
106.47    641.00     25.32
106.57    576.00     24.00
106.67    618.00     24.86
106.77    652.59     25.55
106.87    648.00     25.46
106.97    626.00     25.02
107.07    681.43     26.10
107.17    691.00     26.29
107.27    670.00     25.88
107.37    656.00     25.61
107.47    708.71     26.62
107.57    692.63     26.32
107.67    676.00     26.00
107.77    666.00     25.81
107.87    740.86     27.22
107.97    666.00     25.81
108.07    724.00     26.91
108.17    666.38     25.81
108.27    738.00     27.17
108.37    673.00     25.94
108.47    696.43     26.39
108.57    727.91     26.98
108.67    673.59     25.95
108.77    723.21     26.89
108.87    652.00     25.53
108.97    728.82     27.00
109.07    679.21     26.06
109.17    661.00     25.71
109.27    674.21     25.97
109.37    615.00     24.80
109.47    640.00     25.30
109.57    676.00     26.00
109.67    606.00     24.62
109.77    594.86     24.39
109.87    567.45     23.82
109.97    540.40     23.25
110.07    606.00     24.62
110.17    603.00     24.56
110.27    572.00     23.92
110.37    512.01     22.63
110.47    534.00     23.11
110.57    567.00     23.81
110.67    573.00     23.94
110.77    541.12     23.26
110.87    502.00     22.41
110.97    572.55     23.93
111.07    551.83     23.49
111.17    509.33     22.57
111.27    539.15     23.22
111.37    552.00     23.49
111.47    547.00     23.39
111.57    572.32     23.92
111.67    535.00     23.13
111.77    546.00     23.37
111.87    598.24     24.46
111.97    587.00     24.23
112.07    548.00     23.41
112.17    596.34     24.42
112.27    552.00     23.49
112.37    571.00     23.90
112.47    615.00     24.80
112.57    635.00     25.20
112.67    624.00     24.98
112.77    636.51     25.23
112.87    654.00     25.57
112.97    700.13     26.46
113.07    710.71     26.66
113.17    684.00     26.15
113.27    741.00     27.22
113.37    814.41     28.54
113.47    748.32     27.36
113.57    829.99     28.81
113.67    902.00     30.03
113.77    918.00     30.30
113.87    955.00     30.90
113.97    944.00     30.72
114.07   1027.00     32.05
114.17   1068.00     32.68
114.27   1126.37     33.56
114.37   1218.28     34.90
114.47   1431.00     37.83
114.57   1481.00     38.48
114.67   1669.00     40.85
114.77   1744.00     41.76
114.87   1920.00     43.82
114.97   2177.00     46.66
115.07   2251.22     47.45
115.17   2628.28     51.27
115.27   2801.00     52.92
115.37   3068.00     55.39
115.47   3461.90     58.84
115.57   3834.88     61.93
115.67   4198.86     64.80
115.77   4582.95     67.70
115.87   4662.00     68.28
115.97   5290.00     72.73
116.07   5469.00     73.95
116.17   5879.00     76.67
116.27   6230.00     78.93
116.37   6629.54     81.42
116.47   6681.46     81.74
116.57   7005.00     83.70
116.67   7003.00     83.68
116.77   7077.00     84.12
116.87   6828.00     82.63
116.97   6706.00     81.89
117.07   6461.25     80.38
117.17   6139.00     78.35
117.27   5854.80     76.52
117.37   5495.17     74.13
117.47   4915.00     70.11
117.57   4603.00     67.85
117.67   4451.00     66.72
117.77   3924.46     62.65
117.87   3600.00     60.00
117.97   3037.48     55.11
118.07   2870.00     53.57
118.17   2446.80     49.47
118.27   2236.00     47.29
118.37   1994.00     44.65
118.47   1732.99     41.63
118.57   1527.00     39.08
118.67   1325.91     36.41
118.77   1214.00     34.84
118.87   1134.97     33.69
118.97    995.00     31.54
119.07    925.00     30.41
119.17    916.00     30.27
119.27    778.69     27.91
119.37    764.71     27.65
119.47    770.00     27.75
119.57    732.35     27.06
119.67    718.92     26.81
119.77    664.88     25.79
119.87    623.83     24.98
119.97    628.00     25.06
120.07    595.20     24.40
120.17    627.00     25.04
120.27    640.25     25.30
120.37    588.16     24.25
120.47    566.00     23.79
120.57    552.38     23.50
120.67    569.00     23.85
120.77    618.95     24.88
120.87    582.00     24.12
120.97    580.00     24.08
121.07    580.74     24.10
121.17    558.00     23.62
121.27    543.00     23.30
121.37    632.00     25.14
121.47    568.00     23.83
121.57    605.00     24.60
121.67    584.00     24.17
121.77    573.03     23.94
121.87    624.61     24.99
121.97    568.00     23.83
122.07    589.00     24.27
122.17    633.00     25.16
122.27    630.00     25.10
122.37    626.00     25.02
122.47    583.04     24.15
122.57    607.87     24.65
122.67    608.00     24.66
122.77    643.00     25.36
122.87    638.49     25.27
122.97    616.00     24.82
123.07    640.00     25.30
123.17    626.98     25.04
123.27    623.00     24.96
123.37    641.29     25.32
123.47    672.12     25.93
123.57    623.00     24.96
123.67    596.26     24.42
123.77    678.00     26.04
123.87    638.00     25.26
123.97    658.00     25.65
124.07    603.00     24.56
124.17    654.00     25.57
124.27    610.00     24.70
124.37    601.00     24.52
124.47    639.00     25.28
124.57    618.00     24.86
124.67    621.00     24.92
124.77    534.00     23.11
124.87    548.94     23.43
124.97    595.00     24.39
