XYDATA



INTER 1.0 1.0 0 0
TEMP 1074.0
  9.97    614.00     24.78
 10.07    573.00     23.94
 10.17    563.86     23.75
 10.27    624.10     24.98
 10.37    583.00     24.15
 10.47    571.17     23.90
 10.57    599.34     24.48
 10.67    566.00     23.79
 10.77    575.00     23.98
 10.87    592.00     24.33
 10.97    599.19     24.48
 11.07    605.00     24.60
 11.17    562.00     23.71
 11.27    574.00     23.96
 11.37    605.00     24.60
 11.47    565.99     23.79
 11.57    635.00     25.20
 11.67    608.00     24.66
 11.77    617.00     24.84
 11.87    626.00     25.02
 11.97    686.00     26.19
 12.07    651.00     25.51
 12.17    695.00     26.36
 12.27    680.78     26.09
 12.37    696.00     26.38
 12.47    636.00     25.22
 12.57    638.52     25.27
 12.67    563.97     23.75
 12.77    579.00     24.06
 12.87    565.00     23.77
 12.97    552.00     23.49
 13.07    572.00     23.92
 13.17    545.00     23.35
 13.27    563.00     23.73
 13.37    529.00     23.00
 13.47    620.00     24.90
 13.57    590.00     24.29
 13.67    582.00     24.12
 13.77    535.98     23.15
 13.87    547.15     23.39
 13.97    587.76     24.24
 14.07    541.03     23.26
 14.17    614.37     24.79
 14.27    561.00     23.69
 14.37    593.75     24.37
 14.47    511.00     22.61
 14.57    538.00     23.19
 14.67    577.00     24.02
 14.77    595.00     24.39
 14.87    539.00     23.22
 14.97    605.00     24.60
 15.07    559.00     23.64
 15.17    562.00     23.71
 15.27    538.05     23.20
 15.37    612.73     24.75
 15.47    586.00     24.21
 15.57    530.00     23.02
 15.67    573.79     23.95
 15.77    619.00     24.88
 15.87    584.56     24.18
 15.97    587.42     24.24
 16.07    561.00     23.69
 16.17    551.71     23.49
 16.27    560.00     23.66
 16.37    562.20     23.71
 16.47    597.00     24.43
 16.57    536.00     23.15
 16.67    542.00     23.28
 16.77    564.49     23.76
 16.87    586.91     24.23
 16.97    526.23     22.94
 17.07    574.00     23.96
 17.17    542.00     23.28
 17.27    604.32     24.58
 17.37    548.00     23.41
 17.47    533.00     23.09
 17.57    602.97     24.56
 17.67    582.00     24.12
 17.77    555.00     23.56
 17.87    533.52     23.10
 17.97    580.00     24.08
 18.07    560.72     23.68
 18.17    562.00     23.71
 18.27    572.00     23.92
 18.37    593.00     24.35
 18.47    566.00     23.79
 18.57    574.00     23.96
 18.67    529.00     23.00
 18.77    524.04     22.89
 18.87    542.00     23.28
 18.97    600.59     24.51
 19.07    580.00     24.08
 19.17    586.00     24.21
 19.27    578.33     24.05
 19.37    529.00     23.00
 19.47    570.32     23.88
 19.57    562.00     23.71
 19.67    538.00     23.19
 19.77    545.00     23.35
 19.87    528.04     22.98
 19.97    517.00     22.74
 20.07    555.40     23.57
 20.17    576.00     24.00
 20.27    581.00     24.10
 20.37    571.00     23.90
 20.47    591.67     24.32
 20.57    598.80     24.47
 20.67    596.52     24.42
 20.77    522.00     22.85
 20.87    542.00     23.28
 20.97    590.00     24.29
 21.07    531.00     23.04
 21.17    562.00     23.71
 21.27    542.57     23.29
 21.37    537.81     23.19
 21.47    549.00     23.43
 21.57    556.00     23.58
 21.67    553.00     23.52
 21.77    551.00     23.47
 21.87    587.00     24.23
 21.97    524.00     22.89
 22.07    506.00     22.49
 22.17    505.00     22.47
 22.27    547.67     23.40
 22.37    581.24     24.11
 22.47    554.00     23.54
 22.57    587.40     24.24
 22.67    542.00     23.28
 22.77    582.62     24.14
 22.87    574.00     23.96
 22.97    536.00     23.15
 23.07    594.66     24.39
 23.17    514.00     22.67
 23.27    560.00     23.66
 23.37    585.47     24.20
 23.47    545.97     23.37
 23.57    593.07     24.35
 23.67    559.00     23.64
 23.77    550.44     23.46
 23.87    537.00     23.17
 23.97    543.78     23.32
 24.07    507.64     22.53
 24.17    535.87     23.15
 24.27    565.00     23.77
 24.37    587.00     24.23
 24.47    570.32     23.88
 24.57    569.71     23.87
 24.67    592.00     24.33
 24.77    634.82     25.20
 24.87    634.00     25.18
 24.97    640.00     25.30
 25.07    584.00     24.17
 25.17    624.00     24.98
 25.27    564.26     23.75
 25.37    582.00     24.12
 25.47    590.00     24.29
 25.57    600.00     24.49
 25.67    547.73     23.40
 25.77    510.50     22.59
 25.87    525.00     22.91
 25.97    529.80     23.02
 26.07    609.00     24.68
 26.17    535.00     23.13
 26.27    571.00     23.90
 26.37    536.00     23.15
 26.47    569.00     23.85
 26.57    566.00     23.79
 26.67    552.00     23.49
 26.77    551.30     23.48
 26.87    561.00     23.69
 26.97    579.70     24.08
 27.07    568.00     23.83
 27.17    551.00     23.47
 27.27    564.00     23.75
 27.37    604.00     24.58
 27.47    534.00     23.11
 27.57    556.43     23.59
 27.67    550.79     23.47
 27.77    538.63     23.21
 27.87    599.00     24.47
 27.97    691.00     26.29
 28.07    767.00     27.69
 28.17    881.00     29.68
 28.27    959.00     30.97
 28.37    881.00     29.68
 28.47    827.00     28.76
 28.57    748.33     27.36
 28.67    707.00     26.59
 28.77    736.28     27.13
 28.87    809.00     28.44
 28.97    889.14     29.82
 29.07    756.51     27.50
 29.17    743.00     27.26
 29.27    628.00     25.06
 29.37    595.00     24.39
 29.47    597.00     24.43
 29.57    585.00     24.19
 29.67    622.00     24.94
 29.77    530.90     23.04
 29.87    586.00     24.21
 29.97    549.00     23.43
 30.07    525.10     22.91
 30.17    582.00     24.12
 30.27    577.91     24.04
 30.37    533.75     23.10
 30.47    505.64     22.49
 30.57    575.00     23.98
 30.67    574.01     23.96
 30.77    563.98     23.75
 30.87    618.00     24.86
 30.97    570.25     23.88
 31.07    599.26     24.48
 31.17    579.00     24.06
 31.27    555.00     23.56
 31.37    563.00     23.73
 31.47    554.58     23.55
 31.57    502.56     22.42
 31.67    568.53     23.84
 31.77    505.19     22.48
 31.87    492.78     22.20
 31.97    524.25     22.90
 32.07    528.00     22.98
 32.17    486.24     22.05
 32.27    515.38     22.70
 32.37    572.00     23.92
 32.47    530.34     23.03
 32.57    561.00     23.69
 32.67    509.00     22.56
 32.77    566.00     23.79
 32.87    495.00     22.25
 32.97    509.00     22.56
 33.07    576.00     24.00
 33.17    562.00     23.71
 33.27    575.45     23.99
 33.37    537.41     23.18
 33.47    579.00     24.06
 33.57    574.00     23.96
 33.67    675.88     26.00
 33.77    735.79     27.13
 33.87    888.90     29.81
 33.97   1031.55     32.12
 34.07   1086.00     32.95
 34.17    995.00     31.54
 34.27    847.56     29.11
 34.37    756.88     27.51
 34.47    617.00     24.84
 34.57    574.47     23.97
 34.67    529.13     23.00
 34.77    546.00     23.37
 34.87    561.00     23.69
 34.97    568.00     23.83
 35.07    533.00     23.09
 35.17    496.53     22.28
 35.27    535.00     23.13
 35.37    531.00     23.04
 35.47    502.58     22.42
 35.57    537.00     23.17
 35.67    509.00     22.56
 35.77    513.85     22.67
 35.87    544.00     23.32
 35.97    509.89     22.58
 36.07    502.00     22.41
 36.17    519.00     22.78
 36.27    485.14     22.03
 36.37    498.00     22.32
 36.47    485.00     22.02
 36.57    501.00     22.38
 36.67    538.91     23.21
 36.77    520.00     22.80
 36.87    533.00     23.09
 36.97    507.00     22.52
 37.07    534.00     23.11
 37.17    486.00     22.05
 37.27    478.26     21.87
 37.37    497.54     22.31
 37.47    560.00     23.66
 37.57    489.16     22.12
 37.67    495.00     22.25
 37.77    519.25     22.79
 37.87    541.17     23.26
 37.97    532.00     23.07
 38.07    496.00     22.27
 38.17    483.98     22.00
 38.27    516.20     22.72
 38.37    482.00     21.95
 38.47    501.00     22.38
 38.57    524.26     22.90
 38.67    497.00     22.29
 38.77    483.36     21.99
 38.87    479.00     21.89
 38.97    510.00     22.58
 39.07    501.00     22.38
 39.17    494.00     22.23
 39.27    534.46     23.12
 39.37    503.00     22.43
 39.47    508.00     22.54
 39.57    533.50     23.10
 39.67    498.00     22.32
 39.77    547.00     23.39
 39.87    484.21     22.00
 39.97    503.00     22.43
 40.07    499.00     22.34
 40.17    511.00     22.61
 40.27    547.20     23.39
 40.37    454.00     21.31
 40.47    511.00     22.61
 40.57    551.90     23.49
 40.67    502.00     22.41
 40.77    533.00     23.09
 40.87    512.00     22.63
 40.97    482.00     21.95
 41.07    474.24     21.78
 41.17    503.00     22.43
 41.27    526.88     22.95
 41.37    522.00     22.85
 41.47    527.00     22.96
 41.57    516.00     22.72
 41.67    511.00     22.61
 41.77    551.36     23.48
 41.87    527.00     22.96
 41.97    512.00     22.63
 42.07    505.00     22.47
 42.17    525.00     22.91
 42.27    509.00     22.56
 42.37    573.00     23.94
 42.47    592.00     24.33
 42.57    592.00     24.33
 42.67    631.76     25.13
 42.77    634.61     25.19
 42.87    597.00     24.43
 42.97    545.72     23.36
 43.07    512.77     22.64
 43.17    539.52     23.23
 43.27    490.00     22.14
 43.37    508.00     22.54
 43.47    471.27     21.71
 43.57    489.53     22.13
 43.67    455.00     21.33
 43.77    532.14     23.07
 43.87    470.00     21.68
 43.97    519.00     22.78
 44.07    532.00     23.07
 44.17    501.00     22.38
 44.27    487.00     22.07
 44.37    505.00     22.47
 44.47    509.00     22.56
 44.57    503.99     22.45
 44.67    515.00     22.69
 44.77    494.00     22.23
 44.87    524.54     22.90
 44.97    500.00     22.36
 45.07    490.00     22.14
 45.17    498.00     22.32
 45.27    468.70     21.65
 45.37    499.00     22.34
 45.47    508.00     22.54
 45.57    467.11     21.61
 45.67    541.89     23.28
 45.77    511.00     22.61
 45.87    548.45     23.42
 45.97    467.00     21.61
 46.07    505.00     22.47
 46.17    519.00     22.78
 46.27    481.00     21.93
 46.37    502.84     22.42
 46.47    486.00     22.05
 46.57    529.00     23.00
 46.67    467.00     21.61
 46.77    504.00     22.45
 46.87    478.83     21.88
 46.97    509.00     22.56
 47.07    524.00     22.89
 47.17    515.00     22.69
 47.27    507.00     22.52
 47.37    553.00     23.52
 47.47    535.55     23.14
 47.57    582.00     24.12
 47.67    611.60     24.73
 47.77    606.00     24.62
 47.87    550.18     23.46
 47.97    581.00     24.10
 48.07    604.24     24.58
 48.17    563.00     23.73
 48.27    564.00     23.75
 48.37    534.00     23.11
 48.47    525.00     22.91
 48.57    562.56     23.72
 48.67    518.00     22.76
 48.77    511.00     22.61
 48.87    530.00     23.02
 48.97    523.00     22.87
 49.07    553.00     23.52
 49.17    569.24     23.86
 49.27    588.29     24.25
 49.37    623.56     24.97
 49.47    675.00     25.98
 49.57    778.00     27.89
 49.67    933.09     30.55
 49.77   1162.00     34.09
 49.87   1445.00     38.01
 49.97   1945.00     44.10
 50.07   2283.00     47.78
 50.17   2469.00     49.69
 50.27   2576.00     50.75
 50.37   2322.00     48.19
 50.47   1911.00     43.71
 50.57   1524.38     39.04
 50.67   1176.19     34.30
 50.77    854.33     29.23
 50.87    712.00     26.68
 50.97    638.49     25.27
 51.07    648.00     25.46
 51.17    641.00     25.32
 51.27    592.00     24.33
 51.37    558.00     23.62
 51.47    615.00     24.80
 51.57    587.00     24.23
 51.67    541.60     23.27
 51.77    512.00     22.63
 51.87    553.00     23.52
 51.97    556.06     23.58
 52.07    576.00     24.00
 52.17    558.00     23.62
 52.27    519.00     22.78
 52.37    546.78     23.38
 52.47    580.00     24.08
 52.57    551.00     23.47
 52.67    562.95     23.73
 52.77    621.00     24.92
 52.87    628.00     25.06
 52.97    666.08     25.81
 53.07    858.00     29.29
 53.17    863.55     29.39
 53.27   1025.59     32.02
 53.37   1179.00     34.34
 53.47   1229.00     35.06
 53.57   1183.00     34.39
 53.67   1174.90     34.28
 53.77    965.00     31.06
 53.87    933.24     30.55
 53.97    733.04     27.07
 54.07    717.16     26.78
 54.17    600.00     24.49
 54.27    606.52     24.63
 54.37    568.66     23.85
 54.47    597.00     24.43
 54.57    558.38     23.63
 54.67    530.24     23.03
 54.77    584.00     24.17
 54.87    586.00     24.21
 54.97    586.00     24.21
 55.07    556.95     23.60
 55.17    571.26     23.90
 55.27    535.00     23.13
 55.37    566.00     23.79
 55.47    573.65     23.95
 55.57    558.00     23.62
 55.67    580.67     24.10
 55.77    616.17     24.82
 55.87    623.31     24.97
 55.97    636.54     25.23
 56.07    730.53     27.03
 56.17    711.00     26.66
 56.27    919.77     30.33
 56.37   1105.00     33.24
 56.47   1346.00     36.69
 56.57   1877.68     43.33
 56.67   2136.00     46.22
 56.77   2488.00     49.88
 56.87   2583.00     50.82
 56.97   2627.00     51.25
 57.07   2330.19     48.27
 57.17   2095.00     45.77
 57.27   1688.32     41.09
 57.37   1303.00     36.10
 57.47   1074.00     32.77
 57.57    856.00     29.26
 57.67    807.00     28.41
 57.77    669.00     25.87
 57.87    657.00     25.63
 57.97    694.00     26.34
 58.07    654.00     25.57
 58.17    685.00     26.17
 58.27    751.00     27.40
 58.37    873.00     29.55
 58.47    991.69     31.49
 58.57   1076.78     32.81
 58.67   1207.10     34.74
 58.77   1317.55     36.30
 58.87   1531.00     39.13
 58.97   1550.00     39.37
 59.07   1557.00     39.46
 59.17   1485.99     38.55
 59.27   1432.00     37.84
 59.37   1285.13     35.85
 59.47   1247.00     35.31
 59.57   1172.00     34.23
 59.67   1124.49     33.53
 59.77   1170.64     34.21
 59.87   1206.00     34.73
 59.97   1355.00     36.81
 60.07   1457.00     38.17
 60.17   1596.00     39.95
 60.27   1658.00     40.72
 60.37   1474.71     38.40
 60.47   1376.00     37.09
 60.57   1221.00     34.94
 60.67   1157.00     34.01
 60.77    934.00     30.56
 60.87    799.00     28.27
 60.97    751.37     27.41
 61.07    657.00     25.63
 61.17    648.48     25.47
 61.27    647.00     25.44
 61.37    640.00     25.30
 61.47    761.00     27.59
 61.57    718.00     26.80
 61.67    863.00     29.38
 61.77    975.00     31.22
 61.87   1074.17     32.77
 61.97   1241.00     35.23
 62.07   1360.11     36.88
 62.17   1422.00     37.71
 62.27   1461.69     38.23
 62.37   1348.00     36.72
 62.47   1191.00     34.51
 62.57   1054.00     32.47
 62.67    937.00     30.61
 62.77    800.22     28.29
 62.87    726.00     26.94
 62.97    650.00     25.50
 63.07    571.00     23.90
 63.17    574.00     23.96
 63.27    554.00     23.54
 63.37    597.00     24.43
 63.47    524.00     22.89
 63.57    605.00     24.60
 63.67    590.00     24.29
 63.77    550.88     23.47
 63.87    615.56     24.81
 63.97    668.03     25.85
 64.07    717.79     26.79
 64.17    709.47     26.64
 64.27    839.00     28.97
 64.37    907.00     30.12
 64.47    907.00     30.12
 64.57    954.06     30.89
 64.67   1081.00     32.88
 64.77   1035.88     32.19
 64.87   1013.67     31.84
 64.97    942.00     30.69
 65.07    841.00     29.00
 65.17    769.00     27.73
 65.27    756.00     27.50
 65.37    664.26     25.77
 65.47    630.00     25.10
 65.57    618.45     24.87
 65.67    635.00     25.20
 65.77    629.58     25.09
 65.87    547.00     23.39
 65.97    553.00     23.52
 66.07    559.00     23.64
 66.17    605.32     24.60
 66.27    560.00     23.66
 66.37    567.00     23.81
 66.47    547.00     23.39
 66.57    573.00     23.94
 66.67    546.00     23.37
 66.77    561.00     23.69
 66.87    551.00     23.47
 66.97    635.71     25.21
 67.07    619.00     24.88
 67.17    679.00     26.06
 67.27    741.00     27.22
 67.37    923.66     30.39
 67.47   1070.00     32.71
 67.57   1301.30     36.07
 67.67   1492.00     38.63
 67.77   1782.00     42.21
 67.87   2069.00     45.49
 67.97   2335.00     48.32
 68.07   2499.00     49.99
 68.17   2521.00     50.21
 68.27   2299.72     47.96
 68.37   2123.00     46.08
 68.47   1817.00     42.63
 68.57   1592.00     39.90
 68.67   1265.00     35.57
 68.77   1008.00     31.75
 68.87    884.00     29.73
 68.97    759.42     27.56
 69.07    739.69     27.20
 69.17    639.00     25.28
 69.27    680.00     26.08
 69.37    625.00     25.00
 69.47    579.00     24.06
 69.57    613.00     24.76
 69.67    617.00     24.84
 69.77    585.00     24.19
 69.87    608.00     24.66
 69.97    516.00     22.72
 70.07    594.49     24.38
 70.17    545.16     23.35
 70.27    592.00     24.33
 70.37    602.05     24.54
 70.47    612.00     24.74
 70.57    529.28     23.01
 70.67    605.17     24.60
 70.77    597.14     24.44
 70.87    554.00     23.54
 70.97    604.00     24.58
 71.07    721.00     26.85
 71.17    760.00     27.57
 71.27    777.00     27.87
 71.37    947.14     30.78
 71.47   1120.00     33.47
 71.57   1226.00     35.01
 71.67   1355.00     36.81
 71.77   1678.68     40.97
 71.87   1802.00     42.45
 71.97   1831.55     42.80
 72.07   1911.00     43.71
 72.17   1925.00     43.87
 72.27   1830.64     42.79
 72.37   1651.01     40.63
 72.47   1406.19     37.50
 72.57   1345.00     36.67
 72.67   1151.00     33.93
 72.77   1046.00     32.34
 72.87    968.00     31.11
 72.97    879.00     29.65
 73.07    863.64     29.39
 73.17    749.00     27.37
 73.27    730.99     27.04
 73.37    698.00     26.42
 73.47    602.00     24.54
 73.57    602.00     24.54
 73.67    615.46     24.81
 73.77    638.00     25.26
 73.87    598.26     24.46
 73.97    625.00     25.00
 74.07    601.00     24.52
 74.17    533.55     23.10
 74.27    604.00     24.58
 74.37    591.80     24.33
 74.47    602.00     24.54
 74.57    624.00     24.98
 74.67    539.10     23.22
 74.77    622.00     24.94
 74.87    623.00     24.96
 74.97    521.89     22.84
 75.07    542.08     23.28
 75.17    580.64     24.10
 75.27    556.76     23.60
 75.37    553.44     23.53
 75.47    554.00     23.54
 75.57    535.39     23.14
 75.67    566.00     23.79
 75.77    565.00     23.77
 75.87    564.00     23.75
 75.97    640.00     25.30
 76.07    629.00     25.08
 76.17    639.29     25.28
 76.27    676.00     26.00
 76.37    672.00     25.92
 76.47    675.00     25.98
 76.57    705.00     26.55
 76.67    663.27     25.75
 76.77    684.00     26.15
 76.87    706.55     26.58
 76.97    664.16     25.77
 77.07    653.35     25.56
 77.17    570.92     23.89
 77.27    561.00     23.69
 77.37    569.00     23.85
 77.47    554.00     23.54
 77.57    537.00     23.17
 77.67    590.00     24.29
 77.77    536.51     23.16
 77.87    574.00     23.96
 77.97    517.00     22.74
 78.07    500.17     22.36
 78.17    507.00     22.52
 78.27    483.00     21.98
 78.37    528.00     22.98
 78.47    572.60     23.93
 78.57    506.00     22.49
 78.67    570.13     23.88
 78.77    560.00     23.66
 78.87    528.00     22.98
 78.97    492.00     22.18
 79.07    546.20     23.37
 79.17    525.00     22.91
 79.27    549.06     23.43
 79.37    537.00     23.17
 79.47    527.00     22.96
 79.57    532.00     23.07
 79.67    500.70     22.38
 79.77    551.33     23.48
 79.87    538.00     23.19
 79.97    543.00     23.30
 80.07    584.77     24.18
 80.17    565.58     23.78
 80.27    566.00     23.79
 80.37    580.29     24.09
 80.47    565.09     23.77
 80.57    669.00     25.87
 80.67    616.00     24.82
 80.77    663.00     25.75
 80.87    710.71     26.66
 80.97    689.45     26.26
 81.07    730.00     27.02
 81.17    782.79     27.98
 81.27    751.00     27.40
 81.37    747.00     27.33
 81.47    782.54     27.97
 81.57    704.10     26.53
 81.67    767.00     27.69
 81.77    738.00     27.17
 81.87    723.00     26.89
 81.97    721.00     26.85
 82.07    636.00     25.22
 82.17    629.83     25.10
 82.27    686.00     26.19
 82.37    638.00     25.26
 82.47    640.10     25.30
 82.57    547.00     23.39
 82.67    631.00     25.12
 82.77    573.84     23.95
 82.87    578.20     24.05
 82.97    574.00     23.96
 83.07    564.92     23.77
 83.17    566.00     23.79
 83.27    536.00     23.15
 83.37    542.00     23.28
 83.47    534.00     23.11
 83.57    588.33     24.26
 83.67    584.79     24.18
 83.77    536.00     23.15
 83.87    572.00     23.92
 83.97    561.42     23.69
 84.07    577.00     24.02
 84.17    558.95     23.64
 84.27    569.00     23.85
 84.37    599.75     24.49
 84.47    564.42     23.76
 84.57    564.43     23.76
 84.67    531.69     23.06
 84.77    579.00     24.06
 84.87    555.00     23.56
 84.97    500.82     22.38
 85.07    496.40     22.28
 85.17    528.00     22.98
 85.27    535.71     23.15
 85.37    528.00     22.98
 85.47    544.06     23.33
 85.57    528.59     22.99
 85.67    517.00     22.74
 85.77    542.00     23.28
 85.87    532.00     23.07
 85.97    550.00     23.45
 86.07    571.00     23.90
 86.17    538.00     23.19
 86.27    548.00     23.41
 86.37    584.34     24.17
 86.47    527.00     22.96
 86.57    564.00     23.75
 86.67    588.00     24.25
 86.77    595.00     24.39
 86.87    572.00     23.92
 86.97    637.00     25.24
 87.07    677.00     26.02
 87.17    646.00     25.42
 87.27    647.00     25.44
 87.37    628.00     25.06
 87.47    647.07     25.44
 87.57    664.20     25.77
 87.67    585.61     24.20
 87.77    660.00     25.69
 87.87    602.00     24.54
 87.97    612.00     24.74
 88.07    546.12     23.37
 88.17    593.13     24.35
 88.27    584.00     24.17
 88.37    597.00     24.43
 88.47    593.00     24.35
 88.57    589.00     24.27
 88.67    608.57     24.67
 88.77    565.00     23.77
 88.87    614.00     24.78
 88.97    561.00     23.69
 89.07    591.19     24.31
 89.17    596.00     24.41
 89.27    592.00     24.33
 89.37    632.00     25.14
 89.47    563.51     23.74
 89.57    625.97     25.02
 89.67    597.00     24.43
 89.77    555.57     23.57
 89.87    590.63     24.30
 89.97    605.85     24.61
 90.07    580.00     24.08
 90.17    540.71     23.25
 90.27    558.41     23.63
 90.37    502.26     22.41
 90.47    539.00     23.22
 90.57    571.56     23.91
 90.67    577.00     24.02
 90.77    491.99     22.18
 90.87    484.00     22.00
 90.97    500.00     22.36
 91.07    522.00     22.85
 91.17    542.94     23.30
 91.27    539.00     23.22
 91.37    489.19     22.12
 91.47    520.01     22.80
 91.57    489.00     22.11
 91.67    562.43     23.72
 91.77    538.03     23.20
 91.87    533.77     23.10
 91.97    564.00     23.75
 92.07    541.00     23.26
 92.17    610.70     24.71
 92.27    585.00     24.19
 92.37    623.00     24.96
 92.47    598.41     24.46
 92.57    643.74     25.37
 92.67    642.00     25.34
 92.77    695.00     26.36
 92.87    726.00     26.94
 92.97    757.00     27.51
 93.07    716.94     26.78
 93.17    768.00     27.71
 93.27    837.00     28.93
 93.37    774.72     27.83
 93.47    773.00     27.80
 93.57    825.00     28.72
 93.67    864.98     29.41
 93.77    850.95     29.17
 93.87    809.31     28.45
 93.97    852.00     29.19
 94.07    836.00     28.91
 94.17    848.20     29.12
 94.27    857.00     29.27
 94.37    908.00     30.13
 94.47    914.00     30.23
 94.57    918.00     30.30
 94.67    897.00     29.95
 94.77    890.00     29.83
 94.87    907.00     30.12
 94.97    848.00     29.12
 95.07    836.21     28.92
 95.17    858.00     29.29
 95.27    884.00     29.73
 95.37    826.16     28.74
 95.47    795.25     28.20
 95.57    722.14     26.87
 95.67    697.00     26.40
 95.77    693.00     26.32
 95.87    715.00     26.74
 95.97    689.00     26.25
 96.07    727.90     26.98
 96.17    687.00     26.21
 96.27    691.31     26.29
 96.37    764.00     27.64
 96.47    803.00     28.34
 96.57    823.60     28.70
 96.67    953.64     30.88
 96.77    939.90     30.66
 96.87   1052.00     32.43
 96.97   1121.77     33.49
 97.07   1222.00     34.96
 97.17   1279.00     35.76
 97.27   1379.00     37.13
 97.37   1424.00     37.74
 97.47   1355.00     36.81
 97.57   1411.00     37.56
 97.67   1432.00     37.84
 97.77   1323.42     36.38
 97.87   1304.10     36.11
 97.97   1290.12     35.92
 98.07   1180.13     34.35
 98.17   1183.00     34.39
 98.27   1089.00     33.00
 98.37   1040.82     32.26
 98.47    905.00     30.08
 98.57    912.00     30.20
 98.67    854.00     29.22
 98.77    860.04     29.33
 98.87    772.00     27.78
 98.97    795.90     28.21
 99.07    808.00     28.43
 99.17    890.65     29.84
 99.27    833.78     28.88
 99.37    942.00     30.69
 99.47    968.72     31.12
 99.57   1023.86     32.00
 99.67   1190.00     34.50
 99.77   1282.00     35.81
 99.87   1431.07     37.83
 99.97   1499.00     38.72
100.07   1633.00     40.41
100.17   1693.00     41.15
100.27   1744.15     41.76
100.37   1905.00     43.65
100.47   2009.00     44.82
100.57   2084.00     45.65
100.67   2004.06     44.77
100.77   2064.06     45.43
100.87   2075.00     45.55
100.97   1960.76     44.28
101.07   2006.00     44.79
101.17   1943.00     44.08
101.27   1811.00     42.56
101.37   1771.87     42.09
101.47   1620.00     40.25
101.57   1528.00     39.09
101.67   1408.00     37.52
101.77   1361.00     36.89
101.87   1277.57     35.74
101.97   1190.91     34.51
102.07   1218.00     34.90
102.17   1203.89     34.70
102.27   1067.00     32.66
102.37   1116.86     33.42
102.47   1132.00     33.65
102.57   1065.38     32.64
102.67   1045.00     32.33
102.77   1075.22     32.79
102.87    961.00     31.00
102.97    954.52     30.90
103.07    910.00     30.17
103.17    847.38     29.11
103.27    848.00     29.12
103.37    803.00     28.34
103.47    728.95     27.00
103.57    737.00     27.15
103.67    729.00     27.00
103.77    667.00     25.83
103.87    635.00     25.20
103.97    656.00     25.61
104.07    605.00     24.60
104.17    536.22     23.16
104.27    577.00     24.02
104.37    548.00     23.41
104.47    519.30     22.79
104.57    561.00     23.69
104.67    528.02     22.98
104.77    507.73     22.53
104.87    497.85     22.31
104.97    580.00     24.08
105.07    517.54     22.75
105.17    515.67     22.71
105.27    565.00     23.77
105.37    530.00     23.02
105.47    518.00     22.76
105.57    532.00     23.07
105.67    535.60     23.14
105.77    557.98     23.62
105.87    566.00     23.79
105.97    582.00     24.12
106.07    598.00     24.45
106.17    572.00     23.92
106.27    567.00     23.81
106.37    581.00     24.10
106.47    594.59     24.38
106.57    609.00     24.68
106.67    625.00     25.00
106.77    634.00     25.18
106.87    616.00     24.82
106.97    688.78     26.24
107.07    722.77     26.88
107.17    685.00     26.17
107.27    740.00     27.20
107.37    680.37     26.08
107.47    663.00     25.75
107.57    653.00     25.55
107.67    685.00     26.17
107.77    722.49     26.88
107.87    722.42     26.88
107.97    698.00     26.42
108.07    697.00     26.40
108.17    668.00     25.85
108.27    632.00     25.14
108.37    681.00     26.10
108.47    715.19     26.74
108.57    649.83     25.49
108.67    693.00     26.32
108.77    709.11     26.63
108.87    666.00     25.81
108.97    726.81     26.96
109.07    639.30     25.28
109.17    680.00     26.08
109.27    687.00     26.21
109.37    643.00     25.36
109.47    661.00     25.71
109.57    660.97     25.71
109.67    573.00     23.94
109.77    629.00     25.08
109.87    560.00     23.66
109.97    616.00     24.82
110.07    579.00     24.06
110.17    553.21     23.52
110.27    564.00     23.75
110.37    511.45     22.62
110.47    553.00     23.52
110.57    552.00     23.49
110.67    536.60     23.16
110.77    515.00     22.69
110.87    537.00     23.17
110.97    550.00     23.45
111.07    568.00     23.83
111.17    559.00     23.64
111.27    576.00     24.00
111.37    523.74     22.89
111.47    524.47     22.90
111.57    575.42     23.99
111.67    527.49     22.97
111.77    581.34     24.11
111.87    563.00     23.73
111.97    548.00     23.41
112.07    552.57     23.51
112.17    576.00     24.00
112.27    541.00     23.26
112.37    599.00     24.47
112.47    601.29     24.52
112.57    570.26     23.88
112.67    630.00     25.10
112.77    625.00     25.00
112.87    631.00     25.12
112.97    698.00     26.42
113.07    646.15     25.42
113.17    678.00     26.04
113.27    675.00     25.98
113.37    753.00     27.44
113.47    797.00     28.23
113.57    801.00     28.30
113.67    821.73     28.67
113.77    896.45     29.94
113.87    901.00     30.02
113.97    945.31     30.75
114.07    999.00     31.61
114.17   1083.33     32.91
114.27   1122.00     33.50
114.37   1195.00     34.57
114.47   1339.39     36.60
114.57   1368.14     36.99
114.67   1602.00     40.02
114.77   1703.00     41.27
114.87   1841.94     42.92
114.97   2164.00     46.52
115.07   2375.00     48.73
115.17   2568.00     50.68
115.27   2822.00     53.12
115.37   3107.00     55.74
115.47   3261.00     57.11
115.57   3778.00     61.47
115.67   4235.34     65.08
115.77   4526.00     67.28
115.87   4745.00     68.88
115.97   5302.00     72.81
116.07   5669.21     75.29
116.17   6019.00     77.58
116.27   6319.00     79.49
116.37   6680.14     81.73
116.47   6903.38     83.09
116.57   7001.00     83.67
116.67   7009.00     83.72
116.77   6891.30     83.01
116.87   6940.17     83.31
116.97   6739.00     82.09
117.07   6259.00     79.11
117.17   6081.00     77.98
117.27   5670.00     75.30
117.37   5251.00     72.46
117.47   5177.79     71.96
117.57   4607.00     67.87
117.67   4227.00     65.02
117.77   4028.00     63.47
117.87   3421.32     58.49
117.97   3261.31     57.11
118.07   2972.00     54.52
118.17   2638.00     51.36
118.27   2303.25     47.99
118.37   2070.00     45.50
118.47   1712.00     41.38
118.57   1582.00     39.77
118.67   1486.00     38.55
118.77   1271.00     35.65
118.87   1169.18     34.19
118.97   1052.00     32.43
119.07    944.31     30.73
119.17    905.78     30.10
119.27    820.96     28.65
119.37    820.00     28.64
119.47    768.00     27.71
119.57    661.02     25.71
119.67    686.94     26.21
119.77    667.35     25.83
119.87    635.00     25.20
119.97    616.20     24.82
120.07    609.00     24.68
120.17    616.00     24.82
120.27    593.71     24.37
120.37    550.00     23.45
120.47    582.00     24.12
120.57    603.81     24.57
120.67    605.00     24.60
120.77    593.40     24.36
120.87    602.63     24.55
120.97    622.00     24.94
121.07    590.49     24.30
121.17    584.51     24.18
121.27    618.74     24.87
121.37    566.00     23.79
121.47    584.12     24.17
121.57    613.00     24.76
121.67    565.00     23.77
121.77    599.00     24.47
121.87    580.00     24.08
121.97    637.00     25.24
122.07    573.00     23.94
122.17    637.00     25.24
122.27    618.01     24.86
122.37    635.00     25.20
122.47    631.00     25.12
122.57    609.59     24.69
122.67    671.93     25.92
122.77    595.96     24.41
122.87    641.00     25.32
122.97    670.59     25.90
123.07    585.00     24.19
123.17    650.00     25.50
123.27    649.00     25.48
123.37    625.00     25.00
123.47    619.82     24.90
123.57    616.97     24.84
123.67    616.54     24.83
123.77    641.00     25.32
123.87    568.00     23.83
123.97    597.00     24.43
124.07    605.00     24.60
124.17    604.00     24.58
124.27    613.00     24.76
124.37    573.55     23.95
124.47    583.93     24.16
124.57    565.63     23.78
124.67    583.00     24.15
124.77    613.18     24.76
124.87    601.82     24.53
124.97    624.00     24.98
