XYDATA



INTER 1.0 1.0 0 0
TEMP 639.162
  9.97    740.00     27.20
 10.07    734.00     27.09
 10.17    661.00     25.71
 10.27    701.00     26.48
 10.37    706.10     26.57
 10.47    712.00     26.68
 10.57    685.41     26.18
 10.67    675.00     25.98
 10.77    619.50     24.89
 10.87    650.12     25.50
 10.97    656.00     25.61
 11.07    626.86     25.04
 11.17    718.00     26.80
 11.27    701.00     26.48
 11.37    715.30     26.75
 11.47    703.00     26.51
 11.57    685.00     26.17
 11.67    715.00     26.74
 11.77    749.00     27.37
 11.87    682.95     26.13
 11.97    734.36     27.10
 12.07    706.72     26.58
 12.17    758.64     27.54
 12.27    845.00     29.07
 12.37    865.00     29.41
 12.47    809.00     28.44
 12.57    719.54     26.82
 12.67    717.00     26.78
 12.77    686.11     26.19
 12.87    648.00     25.46
 12.97    654.00     25.57
 13.07    610.55     24.71
 13.17    614.00     24.78
 13.27    652.00     25.53
 13.37    633.18     25.16
 13.47    623.00     24.96
 13.57    618.00     24.86
 13.67    611.00     24.72
 13.77    592.00     24.33
 13.87    616.00     24.82
 13.97    696.00     26.38
 14.07    690.55     26.28
 14.17    649.48     25.48
 14.27    644.00     25.38
 14.37    687.00     26.21
 14.47    639.00     25.28
 14.57    629.00     25.08
 14.67    677.00     26.02
 14.77    640.00     25.30
 14.87    596.57     24.42
 14.97    592.83     24.35
 15.07    668.07     25.85
 15.17    580.00     24.08
 15.27    593.98     24.37
 15.37    602.97     24.56
 15.47    642.35     25.34
 15.57    586.00     24.21
 15.67    627.18     25.04
 15.77    620.00     24.90
 15.87    532.00     23.07
 15.97    633.00     25.16
 16.07    624.00     24.98
 16.17    642.00     25.34
 16.27    665.00     25.79
 16.37    612.15     24.74
 16.47    612.31     24.74
 16.57    647.46     25.45
 16.67    631.00     25.12
 16.77    650.76     25.51
 16.87    631.89     25.14
 16.97    658.00     25.65
 17.07    639.00     25.28
 17.17    615.00     24.80
 17.27    619.00     24.88
 17.37    611.97     24.74
 17.47    659.19     25.67
 17.57    623.98     24.98
 17.67    623.00     24.96
 17.77    572.00     23.92
 17.87    608.00     24.66
 17.97    590.90     24.31
 18.07    623.00     24.96
 18.17    590.00     24.29
 18.27    590.00     24.29
 18.37    611.00     24.72
 18.47    571.00     23.90
 18.57    574.00     23.96
 18.67    643.21     25.36
 18.77    609.76     24.69
 18.87    634.00     25.18
 18.97    610.64     24.71
 19.07    655.00     25.59
 19.17    595.00     24.39
 19.27    635.46     25.21
 19.37    570.00     23.87
 19.47    662.00     25.73
 19.57    614.00     24.78
 19.67    587.00     24.23
 19.77    597.00     24.43
 19.87    603.00     24.56
 19.97    566.00     23.79
 20.07    618.13     24.86
 20.17    590.00     24.29
 20.27    590.00     24.29
 20.37    574.00     23.96
 20.47    582.00     24.12
 20.57    643.04     25.36
 20.67    641.53     25.33
 20.77    613.00     24.76
 20.87    587.77     24.24
 20.97    578.15     24.04
 21.07    623.00     24.96
 21.17    659.37     25.68
 21.27    637.71     25.25
 21.37    637.00     25.24
 21.47    612.06     24.74
 21.57    558.92     23.64
 21.67    587.00     24.23
 21.77    593.00     24.35
 21.87    578.00     24.04
 21.97    640.00     25.30
 22.07    610.12     24.70
 22.17    580.63     24.10
 22.27    567.00     23.81
 22.37    594.00     24.37
 22.47    570.23     23.88
 22.57    612.00     24.74
 22.67    598.00     24.45
 22.77    587.55     24.24
 22.87    556.43     23.59
 22.97    650.77     25.51
 23.07    581.00     24.10
 23.17    622.00     24.94
 23.27    626.69     25.03
 23.37    575.04     23.98
 23.47    570.75     23.89
 23.57    634.24     25.18
 23.67    629.48     25.09
 23.77    622.37     24.95
 23.87    577.00     24.02
 23.97    631.00     25.12
 24.07    593.00     24.35
 24.17    606.91     24.64
 24.27    635.00     25.20
 24.37    639.58     25.29
 24.47    618.00     24.86
 24.57    671.00     25.90
 24.67    649.59     25.49
 24.77    711.00     26.66
 24.87    697.00     26.40
 24.97    712.00     26.68
 25.07    736.28     27.13
 25.17    678.31     26.04
 25.27    664.00     25.77
 25.37    605.32     24.60
 25.47    643.00     25.36
 25.57    592.35     24.34
 25.67    600.00     24.49
 25.77    659.00     25.67
 25.87    578.69     24.06
 25.97    677.00     26.02
 26.07    636.00     25.22
 26.17    639.00     25.28
 26.27    646.00     25.42
 26.37    578.52     24.05
 26.47    662.58     25.74
 26.57    650.00     25.50
 26.67    616.27     24.82
 26.77    673.00     25.94
 26.87    610.64     24.71
 26.97    666.00     25.81
 27.07    666.00     25.81
 27.17    690.58     26.28
 27.27    669.95     25.88
 27.37    711.61     26.68
 27.47    694.72     26.36
 27.57    730.00     27.02
 27.67    790.68     28.12
 27.77    794.00     28.18
 27.87    924.00     30.40
 27.97   1253.00     35.40
 28.07   1922.48     43.85
 28.17   2903.67     53.89
 28.27   3996.00     63.21
 28.37   4821.00     69.43
 28.47   5131.00     71.63
 28.57   4067.90     63.78
 28.67   3265.82     57.15
 28.77   2452.68     49.52
 28.87   2360.00     48.58
 28.97   2629.89     51.28
 29.07   3032.00     55.06
 29.17   2909.87     53.94
 29.27   2446.69     49.46
 29.37   1889.98     43.47
 29.47   1357.17     36.84
 29.57   1037.00     32.20
 29.67    956.00     30.92
 29.77    867.00     29.44
 29.87    669.14     25.87
 29.97    716.00     26.76
 30.07    678.34     26.04
 30.17    677.00     26.02
 30.27    673.32     25.95
 30.37    659.00     25.67
 30.47    663.00     25.75
 30.57    637.16     25.24
 30.67    697.00     26.40
 30.77    687.00     26.21
 30.87    635.82     25.22
 30.97    735.08     27.11
 31.07    764.42     27.65
 31.17    732.00     27.06
 31.27    752.73     27.44
 31.37    632.13     25.14
 31.47    600.57     24.51
 31.57    634.00     25.18
 31.67    658.45     25.66
 31.77    627.05     25.04
 31.87    600.00     24.49
 31.97    627.00     25.04
 32.07    618.00     24.86
 32.17    569.70     23.87
 32.27    634.00     25.18
 32.37    552.91     23.51
 32.47    629.63     25.09
 32.57    601.00     24.52
 32.67    561.67     23.70
 32.77    582.00     24.12
 32.87    639.00     25.28
 32.97    612.64     24.75
 33.07    632.57     25.15
 33.17    618.00     24.86
 33.27    611.92     24.74
 33.37    633.27     25.16
 33.47    656.21     25.62
 33.57    570.00     23.87
 33.67    683.00     26.13
 33.77    717.00     26.78
 33.87    770.35     27.76
 33.97    862.00     29.36
 34.07    906.00     30.10
 34.17   1102.00     33.20
 34.27   1192.90     34.54
 34.37   1142.00     33.79
 34.47    971.00     31.16
 34.57    865.34     29.42
 34.67    774.00     27.82
 34.77    659.00     25.67
 34.87    599.96     24.49
 34.97    628.71     25.07
 35.07    599.27     24.48
 35.17    627.00     25.04
 35.27    618.00     24.86
 35.37    563.00     23.73
 35.47    605.00     24.60
 35.57    539.41     23.23
 35.67    595.00     24.39
 35.77    598.88     24.47
 35.87    548.09     23.41
 35.97    557.00     23.60
 36.07    541.00     23.26
 36.17    589.00     24.27
 36.27    573.00     23.94
 36.37    556.85     23.60
 36.47    598.00     24.45
 36.57    615.71     24.81
 36.67    534.00     23.11
 36.77    543.86     23.32
 36.87    570.00     23.87
 36.97    592.00     24.33
 37.07    598.10     24.46
 37.17    547.00     23.39
 37.27    585.00     24.19
 37.37    561.00     23.69
 37.47    565.00     23.77
 37.57    575.00     23.98
 37.67    609.09     24.68
 37.77    653.00     25.55
 37.87    601.00     24.52
 37.97    605.00     24.60
 38.07    649.00     25.48
 38.17    693.41     26.33
 38.27    683.00     26.13
 38.37    688.64     26.24
 38.47    670.00     25.88
 38.57    681.26     26.10
 38.67    637.00     25.24
 38.77    567.74     23.83
 38.87    570.82     23.89
 38.97    531.53     23.05
 39.07    589.08     24.27
 39.17    569.00     23.85
 39.27    565.09     23.77
 39.37    553.92     23.54
 39.47    526.09     22.94
 39.57    548.00     23.41
 39.67    546.57     23.38
 39.77    518.74     22.78
 39.87    546.00     23.37
 39.97    561.55     23.70
 40.07    517.33     22.74
 40.17    553.00     23.52
 40.27    534.00     23.11
 40.37    593.70     24.37
 40.47    522.00     22.85
 40.57    547.00     23.39
 40.67    529.00     23.00
 40.77    537.00     23.17
 40.87    531.00     23.04
 40.97    512.00     22.63
 41.07    569.61     23.87
 41.17    553.00     23.52
 41.27    585.28     24.19
 41.37    576.00     24.00
 41.47    589.91     24.29
 41.57    580.00     24.08
 41.67    567.00     23.81
 41.77    592.62     24.34
 41.87    602.62     24.55
 41.97    539.00     23.22
 42.07    609.94     24.70
 42.17    540.00     23.24
 42.27    555.22     23.56
 42.37    620.16     24.90
 42.47    568.00     23.83
 42.57    610.00     24.70
 42.67    544.00     23.32
 42.77    615.36     24.81
 42.87    698.91     26.44
 42.97    707.42     26.60
 43.07    645.28     25.40
 43.17    642.00     25.34
 43.27    579.00     24.06
 43.37    623.00     24.96
 43.47    567.80     23.83
 43.57    593.44     24.36
 43.67    563.31     23.73
 43.77    571.00     23.90
 43.87    518.00     22.76
 43.97    556.31     23.59
 44.07    521.52     22.84
 44.17    557.00     23.60
 44.27    571.00     23.90
 44.37    640.00     25.30
 44.47    572.00     23.92
 44.57    589.00     24.27
 44.67    605.74     24.61
 44.77    613.00     24.76
 44.87    524.49     22.90
 44.97    568.94     23.85
 45.07    586.28     24.21
 45.17    556.00     23.58
 45.27    589.96     24.29
 45.37    573.00     23.94
 45.47    580.00     24.08
 45.57    529.68     23.01
 45.67    547.00     23.39
 45.77    544.00     23.32
 45.87    531.63     23.06
 45.97    573.00     23.94
 46.07    532.02     23.07
 46.17    524.27     22.90
 46.27    558.00     23.62
 46.37    590.00     24.29
 46.47    594.00     24.37
 46.57    602.79     24.55
 46.67    523.13     22.87
 46.77    566.00     23.79
 46.87    568.00     23.83
 46.97    585.00     24.19
 47.07    516.00     22.72
 47.17    573.00     23.94
 47.27    579.00     24.06
 47.37    588.00     24.25
 47.47    597.00     24.43
 47.57    542.94     23.30
 47.67    657.00     25.63
 47.77    594.96     24.39
 47.87    571.23     23.90
 47.97    668.00     25.85
 48.07    673.00     25.94
 48.17    586.00     24.21
 48.27    645.00     25.40
 48.37    680.51     26.09
 48.47    602.00     24.54
 48.57    593.00     24.35
 48.67    603.00     24.56
 48.77    611.17     24.72
 48.87    588.40     24.26
 48.97    649.00     25.48
 49.07    610.13     24.70
 49.17    610.00     24.70
 49.27    623.55     24.97
 49.37    638.47     25.27
 49.47    630.51     25.11
 49.57    659.00     25.67
 49.67    712.00     26.68
 49.77    744.00     27.28
 49.87    859.00     29.31
 49.97    982.00     31.34
 50.07   1354.00     36.80
 50.17   1721.00     41.48
 50.27   2247.28     47.41
 50.37   2522.00     50.22
 50.47   2804.00     52.95
 50.57   2697.00     51.93
 50.67   2536.00     50.36
 50.77   2086.00     45.67
 50.87   1675.00     40.93
 50.97   1298.00     36.03
 51.07    946.00     30.76
 51.17    885.00     29.75
 51.27    727.31     26.97
 51.37    726.00     26.94
 51.47    751.38     27.41
 51.57    754.00     27.46
 51.67    666.00     25.81
 51.77    685.00     26.17
 51.87    645.11     25.40
 51.97    671.00     25.90
 52.07    653.00     25.55
 52.17    581.43     24.11
 52.27    614.96     24.80
 52.37    638.00     25.26
 52.47    604.00     24.58
 52.57    605.00     24.60
 52.67    611.00     24.72
 52.77    644.52     25.39
 52.87    650.00     25.50
 52.97    683.00     26.13
 53.07    644.52     25.39
 53.17    698.00     26.42
 53.27    804.00     28.35
 53.37    843.00     29.03
 53.47    887.00     29.78
 53.57   1019.71     31.93
 53.67   1152.71     33.95
 53.77   1231.00     35.09
 53.87   1202.00     34.67
 53.97   1256.97     35.45
 54.07   1189.00     34.48
 54.17   1035.15     32.17
 54.27    943.00     30.71
 54.37    813.00     28.51
 54.47    761.00     27.59
 54.57    689.59     26.26
 54.67    660.48     25.70
 54.77    676.00     26.00
 54.87    629.00     25.08
 54.97    640.00     25.30
 55.07    640.00     25.30
 55.17    606.00     24.62
 55.27    660.00     25.69
 55.37    647.37     25.44
 55.47    682.41     26.12
 55.57    623.00     24.96
 55.67    664.79     25.78
 55.77    591.00     24.31
 55.87    659.14     25.67
 55.97    656.00     25.61
 56.07    668.22     25.85
 56.17    744.14     27.28
 56.27    707.00     26.59
 56.37    826.00     28.74
 56.47    855.00     29.24
 56.57   1032.00     32.12
 56.67   1221.40     34.95
 56.77   1410.00     37.55
 56.87   1749.00     41.82
 56.97   2212.00     47.03
 57.07   2498.00     49.98
 57.17   2630.00     51.28
 57.27   2520.97     50.21
 57.37   2512.00     50.12
 57.47   2208.00     46.99
 57.57   1936.00     44.00
 57.67   1569.00     39.61
 57.77   1242.00     35.24
 57.87   1061.19     32.58
 57.97    986.00     31.40
 58.07    836.00     28.91
 58.17    819.00     28.62
 58.27    803.00     28.34
 58.37    747.00     27.33
 58.47    791.00     28.12
 58.57    828.00     28.77
 58.67    852.66     29.20
 58.77    938.00     30.63
 58.87    999.25     31.61
 58.97   1112.00     33.35
 59.07   1160.36     34.06
 59.17   1261.00     35.51
 59.27   1322.12     36.36
 59.37   1326.39     36.42
 59.47   1313.00     36.24
 59.57   1321.35     36.35
 59.67   1240.00     35.21
 59.77   1172.32     34.24
 59.87   1199.39     34.63
 59.97   1172.00     34.23
 60.07   1233.00     35.11
 60.17   1234.43     35.13
 60.27   1269.09     35.62
 60.37   1502.00     38.76
 60.47   1519.00     38.97
 60.57   1605.52     40.07
 60.67   1572.26     39.65
 60.77   1550.29     39.37
 60.87   1410.00     37.55
 60.97   1220.37     34.93
 61.07   1116.00     33.41
 61.17    934.00     30.56
 61.27    877.00     29.61
 61.37    836.00     28.91
 61.47    743.70     27.27
 61.57    801.48     28.31
 61.67    745.00     27.29
 61.77    789.00     28.09
 61.87    889.00     29.82
 61.97    988.00     31.43
 62.07   1094.00     33.08
 62.17   1171.00     34.22
 62.27   1356.41     36.83
 62.37   1492.10     38.63
 62.47   1617.64     40.22
 62.57   1558.00     39.47
 62.67   1570.00     39.62
 62.77   1385.65     37.22
 62.87   1261.00     35.51
 62.97   1141.00     33.78
 63.07   1035.00     32.17
 63.17    885.00     29.75
 63.27    811.00     28.48
 63.37    732.25     27.06
 63.47    773.66     27.81
 63.57    733.00     27.07
 63.67    704.36     26.54
 63.77    628.64     25.07
 63.87    659.00     25.67
 63.97    700.00     26.46
 64.07    739.00     27.18
 64.17    701.00     26.48
 64.27    800.00     28.28
 64.37    762.29     27.61
 64.47    919.00     30.32
 64.57    979.00     31.29
 64.67   1057.85     32.52
 64.77   1092.33     33.05
 64.87   1189.01     34.48
 64.97   1253.82     35.41
 65.07   1332.81     36.51
 65.17   1362.00     36.91
 65.27   1286.00     35.86
 65.37   1254.00     35.41
 65.47   1159.00     34.04
 65.57   1034.00     32.16
 65.67    974.00     31.21
 65.77    887.00     29.78
 65.87    853.95     29.22
 65.97    837.69     28.94
 66.07    713.00     26.70
 66.17    727.00     26.96
 66.27    729.22     27.00
 66.37    612.00     24.74
 66.47    712.49     26.69
 66.57    611.80     24.73
 66.67    635.00     25.20
 66.77    601.00     24.52
 66.87    615.00     24.80
 66.97    658.00     25.65
 67.07    642.00     25.34
 67.17    664.00     25.77
 67.27    679.00     26.06
 67.37    679.00     26.06
 67.47    765.00     27.66
 67.57    816.00     28.57
 67.67    890.00     29.83
 67.77   1085.33     32.94
 67.87   1138.96     33.75
 67.97   1364.88     36.94
 68.07   1598.00     39.97
 68.17   1843.00     42.93
 68.27   2086.00     45.67
 68.37   2319.00     48.16
 68.47   2316.70     48.13
 68.57   2415.00     49.14
 68.67   2415.00     49.14
 68.77   2260.00     47.54
 68.87   2088.00     45.69
 68.97   1760.00     41.95
 69.07   1583.00     39.79
 69.17   1257.00     35.45
 69.27   1151.00     33.93
 69.37    951.00     30.84
 69.47    915.00     30.25
 69.57    843.00     29.03
 69.67    768.00     27.71
 69.77    746.00     27.31
 69.87    704.00     26.53
 69.97    693.64     26.34
 70.07    690.00     26.27
 70.17    645.64     25.41
 70.27    595.86     24.41
 70.37    645.00     25.40
 70.47    663.00     25.75
 70.57    672.00     25.92
 70.67    655.00     25.59
 70.77    644.00     25.38
 70.87    651.44     25.52
 70.97    673.00     25.94
 71.07    670.00     25.88
 71.17    707.72     26.60
 71.27    679.87     26.07
 71.37    709.80     26.64
 71.47    747.00     27.33
 71.57    864.32     29.40
 71.67    898.00     29.97
 71.77    982.00     31.34
 71.87   1049.66     32.40
 71.97   1324.34     36.39
 72.07   1390.00     37.28
 72.17   1643.82     40.54
 72.27   1656.00     40.69
 72.37   1904.00     43.63
 72.47   1952.90     44.19
 72.57   1941.00     44.06
 72.67   1879.97     43.36
 72.77   1790.00     42.31
 72.87   1668.59     40.85
 72.97   1476.00     38.42
 73.07   1242.00     35.24
 73.17   1119.00     33.45
 73.27    978.00     31.27
 73.37    872.00     29.53
 73.47    802.00     28.32
 73.57    792.54     28.15
 73.67    695.00     26.36
 73.77    693.00     26.32
 73.87    694.00     26.34
 73.97    660.00     25.69
 74.07    678.00     26.04
 74.17    666.00     25.81
 74.27    628.00     25.06
 74.37    658.00     25.65
 74.47    658.00     25.65
 74.57    631.00     25.12
 74.67    622.17     24.94
 74.77    670.75     25.90
 74.87    651.00     25.51
 74.97    725.00     26.93
 75.07    678.00     26.04
 75.17    656.00     25.61
 75.27    720.00     26.83
 75.37    680.00     26.08
 75.47    683.70     26.15
 75.57    659.00     25.67
 75.67    663.00     25.75
 75.77    679.00     26.06
 75.87    623.00     24.96
 75.97    626.00     25.02
 76.07    604.72     24.59
 76.17    592.00     24.33
 76.27    667.00     25.83
 76.37    733.71     27.09
 76.47    691.48     26.30
 76.57    799.00     28.27
 76.67    790.00     28.11
 76.77    788.00     28.07
 76.87    845.00     29.07
 76.97    880.00     29.66
 77.07    837.30     28.94
 77.17    841.50     29.01
 77.27    881.00     29.68
 77.37    801.00     28.30
 77.47    798.00     28.25
 77.57    699.00     26.44
 77.67    708.10     26.61
 77.77    705.21     26.56
 77.87    634.00     25.18
 77.97    644.00     25.38
 78.07    639.00     25.28
 78.17    613.00     24.76
 78.27    619.00     24.88
 78.37    561.00     23.69
 78.47    614.00     24.78
 78.57    659.00     25.67
 78.67    577.00     24.02
 78.77    570.00     23.87
 78.87    558.00     23.62
 78.97    564.00     23.75
 79.07    572.00     23.92
 79.17    571.00     23.90
 79.27    606.95     24.64
 79.37    548.10     23.41
 79.47    570.00     23.87
 79.57    609.97     24.70
 79.67    547.72     23.40
 79.77    574.00     23.96
 79.87    573.00     23.94
 79.97    645.93     25.42
 80.07    615.00     24.80
 80.17    637.81     25.25
 80.27    631.41     25.13
 80.37    595.00     24.39
 80.47    658.82     25.67
 80.57    653.85     25.57
 80.67    719.63     26.83
 80.77    681.56     26.11
 80.87    746.00     27.31
 80.97    851.82     29.19
 81.07    856.00     29.26
 81.17    954.50     30.89
 81.27    931.82     30.53
 81.37   1011.00     31.80
 81.47   1043.29     32.30
 81.57   1166.00     34.15
 81.67   1170.03     34.21
 81.77   1139.00     33.75
 81.87   1075.00     32.79
 81.97   1110.00     33.32
 82.07   1086.00     32.95
 82.17   1008.15     31.75
 82.27    999.84     31.62
 82.37    960.00     30.98
 82.47    847.00     29.10
 82.57    803.37     28.34
 82.67    781.00     27.95
 82.77    756.00     27.50
 82.87    778.00     27.89
 82.97    691.00     26.29
 83.07    687.00     26.21
 83.17    689.60     26.26
 83.27    619.00     24.88
 83.37    681.49     26.11
 83.47    638.00     25.26
 83.57    569.00     23.85
 83.67    631.44     25.13
 83.77    559.00     23.64
 83.87    585.05     24.19
 83.97    610.00     24.70
 84.07    600.00     24.49
 84.17    611.00     24.72
 84.27    604.00     24.58
 84.37    648.24     25.46
 84.47    595.00     24.39
 84.57    619.00     24.88
 84.67    591.00     24.31
 84.77    592.00     24.33
 84.87    598.16     24.46
 84.97    632.00     25.14
 85.07    649.14     25.48
 85.17    587.00     24.23
 85.27    650.28     25.50
 85.37    578.15     24.04
 85.47    580.00     24.08
 85.57    559.40     23.65
 85.67    570.00     23.87
 85.77    569.00     23.85
 85.87    564.82     23.77
 85.97    556.42     23.59
 86.07    530.34     23.03
 86.17    611.00     24.72
 86.27    602.13     24.54
 86.37    539.68     23.23
 86.47    568.89     23.85
 86.57    570.00     23.87
 86.67    597.00     24.43
 86.77    639.00     25.28
 86.87    612.00     24.74
 86.97    591.49     24.32
 87.07    652.49     25.54
 87.17    627.00     25.04
 87.27    603.72     24.57
 87.37    602.19     24.54
 87.47    682.00     26.12
 87.57    710.00     26.65
 87.67    668.00     25.85
 87.77    648.00     25.46
 87.87    675.00     25.98
 87.97    708.00     26.61
 88.07    662.00     25.73
 88.17    683.00     26.13
 88.27    662.00     25.73
 88.37    694.00     26.34
 88.47    653.50     25.56
 88.57    650.00     25.50
 88.67    691.00     26.29
 88.77    643.92     25.38
 88.87    644.00     25.38
 88.97    581.23     24.11
 89.07    620.04     24.90
 89.17    621.00     24.92
 89.27    632.00     25.14
 89.37    616.00     24.82
 89.47    606.00     24.62
 89.57    612.00     24.74
 89.67    655.00     25.59
 89.77    610.00     24.70
 89.87    643.00     25.36
 89.97    629.00     25.08
 90.07    637.00     25.24
 90.17    638.00     25.26
 90.27    676.13     26.00
 90.37    668.44     25.85
 90.47    658.57     25.66
 90.57    643.06     25.36
 90.67    595.00     24.39
 90.77    585.80     24.20
 90.87    605.00     24.60
 90.97    577.00     24.02
 91.07    531.77     23.06
 91.17    604.00     24.58
 91.27    588.98     24.27
 91.37    611.24     24.72
 91.47    603.10     24.56
 91.57    580.94     24.10
 91.67    584.57     24.18
 91.77    612.79     24.75
 91.87    577.00     24.02
 91.97    577.00     24.02
 92.07    567.82     23.83
 92.17    530.00     23.02
 92.27    574.54     23.97
 92.37    585.00     24.19
 92.47    577.00     24.02
 92.57    612.39     24.75
 92.67    548.14     23.41
 92.77    577.29     24.03
 92.87    625.00     25.00
 92.97    648.00     25.46
 93.07    631.00     25.12
 93.17    639.66     25.29
 93.27    682.00     26.12
 93.37    694.00     26.34
 93.47    717.00     26.78
 93.57    767.00     27.69
 93.67    715.88     26.76
 93.77    720.20     26.84
 93.87    748.00     27.35
 93.97    820.00     28.64
 94.07    877.00     29.61
 94.17    838.11     28.95
 94.27    852.00     29.19
 94.37    794.00     28.18
 94.47    900.00     30.00
 94.57    849.65     29.15
 94.67    851.37     29.18
 94.77    965.00     31.06
 94.87    910.00     30.17
 94.97    930.00     30.50
 95.07    949.00     30.81
 95.17    995.00     31.54
 95.27    985.51     31.39
 95.37    993.00     31.51
 95.47    971.00     31.16
 95.57    924.16     30.40
 95.67    929.00     30.48
 95.77    966.00     31.08
 95.87    953.00     30.87
 95.97    927.00     30.45
 96.07    875.00     29.58
 96.17    824.00     28.71
 96.27    777.13     27.88
 96.37    799.00     28.27
 96.47    840.00     28.98
 96.57    729.14     27.00
 96.67    764.00     27.64
 96.77    844.00     29.05
 96.87    783.00     27.98
 96.97    811.00     28.48
 97.07    873.36     29.55
 97.17    908.00     30.13
 97.27    894.50     29.91
 97.37   1065.31     32.64
 97.47   1131.00     33.63
 97.57   1177.00     34.31
 97.67   1315.00     36.26
 97.77   1302.00     36.08
 97.87   1372.67     37.05
 97.97   1460.00     38.21
 98.07   1523.00     39.03
 98.17   1497.00     38.69
 98.27   1573.00     39.66
 98.37   1540.47     39.25
 98.47   1458.00     38.18
 98.57   1416.09     37.63
 98.67   1468.79     38.32
 98.77   1343.00     36.65
 98.87   1257.00     35.45
 98.97   1282.00     35.81
 99.07   1157.85     34.03
 99.17   1139.00     33.75
 99.27   1129.10     33.60
 99.37    991.00     31.48
 99.47    931.00     30.51
 99.57    928.00     30.46
 99.67    994.00     31.53
 99.77    991.34     31.49
 99.87    989.00     31.45
 99.97    976.97     31.26
100.07   1098.00     33.14
100.17   1139.22     33.75
100.27   1206.39     34.73
100.37   1186.87     34.45
100.47   1307.33     36.16
100.57   1476.00     38.42
100.67   1555.00     39.43
100.77   1628.00     40.35
100.87   1762.00     41.98
100.97   1842.00     42.92
101.07   1976.00     44.45
101.17   1978.91     44.48
101.27   1999.00     44.71
101.37   1987.00     44.58
101.47   2032.13     45.08
101.57   2002.59     44.75
101.67   2118.00     46.02
101.77   1993.80     44.65
101.87   1985.00     44.55
101.97   1996.00     44.68
102.07   1905.00     43.65
102.17   1850.13     43.01
102.27   1810.38     42.55
102.37   1679.00     40.98
102.47   1646.00     40.57
102.57   1523.00     39.03
102.67   1378.00     37.12
102.77   1356.67     36.83
102.87   1228.00     35.04
102.97   1305.00     36.12
103.07   1319.04     36.32
103.17   1124.00     33.53
103.27   1160.00     34.06
103.37   1196.00     34.58
103.47   1165.00     34.13
103.57   1171.89     34.23
103.67   1145.00     33.84
103.77   1046.59     32.35
103.87   1107.72     33.28
103.97    967.65     31.11
104.07    902.00     30.03
104.17    882.12     29.70
104.27    919.72     30.33
104.37    896.00     29.93
104.47    786.00     28.04
104.57    799.00     28.27
104.67    704.00     26.53
104.77    653.10     25.56
104.87    752.00     27.42
104.97    689.00     26.25
105.07    658.00     25.65
105.17    649.21     25.48
105.27    644.00     25.38
105.37    674.00     25.96
105.47    583.00     24.15
105.57    593.27     24.36
105.67    625.00     25.00
105.77    590.46     24.30
105.87    564.45     23.76
105.97    546.00     23.37
106.07    536.61     23.16
106.17    545.25     23.35
106.27    601.54     24.53
106.37    592.00     24.33
106.47    620.00     24.90
106.57    626.00     25.02
106.67    611.00     24.72
106.77    617.00     24.84
106.87    666.00     25.81
106.97    576.84     24.02
107.07    656.60     25.62
107.17    627.00     25.04
107.27    627.15     25.04
107.37    695.00     26.36
107.47    656.00     25.61
107.57    718.00     26.80
107.67    676.29     26.01
107.77    718.00     26.80
107.87    744.00     27.28
107.97    785.04     28.02
108.07    727.00     26.96
108.17    732.00     27.06
108.27    747.99     27.35
108.37    751.45     27.41
108.47    730.48     27.03
108.57    730.55     27.03
108.67    759.00     27.55
108.77    729.00     27.00
108.87    689.00     26.25
108.97    760.13     27.57
109.07    703.18     26.52
109.17    736.00     27.13
109.27    695.00     26.36
109.37    726.00     26.94
109.47    798.00     28.25
109.57    721.48     26.86
109.67    787.00     28.05
109.77    762.00     27.60
109.87    761.00     27.59
109.97    752.74     27.44
110.07    749.00     27.37
110.17    690.00     26.27
110.27    683.22     26.14
110.37    744.00     27.28
110.47    664.00     25.77
110.57    664.46     25.78
110.67    668.54     25.86
110.77    707.00     26.59
110.87    666.91     25.82
110.97    660.00     25.69
111.07    600.00     24.49
111.17    618.44     24.87
111.27    618.00     24.86
111.37    620.00     24.90
111.47    592.28     24.34
111.57    557.68     23.62
111.67    596.00     24.41
111.77    604.00     24.58
111.87    555.97     23.58
111.97    598.00     24.45
112.07    579.00     24.06
112.17    602.69     24.55
112.27    589.00     24.27
112.37    574.00     23.96
112.47    601.00     24.52
112.57    557.00     23.60
112.67    551.00     23.47
112.77    572.00     23.92
112.87    566.00     23.79
112.97    553.00     23.52
113.07    619.47     24.89
113.17    561.00     23.69
113.27    582.00     24.12
113.37    576.00     24.00
113.47    651.00     25.51
113.57    591.00     24.31
113.67    639.47     25.29
113.77    655.87     25.61
113.87    615.00     24.80
113.97    635.00     25.20
114.07    618.00     24.86
114.17    638.00     25.26
114.27    622.00     24.94
114.37    642.91     25.36
114.47    695.00     26.36
114.57    642.00     25.34
114.67    739.00     27.18
114.77    817.00     28.58
114.87    793.33     28.17
114.97    849.00     29.14
115.07    945.31     30.75
115.17    976.00     31.24
115.27   1057.66     32.52
115.37   1172.85     34.25
115.47   1300.00     36.06
115.57   1545.00     39.31
115.67   1695.23     41.17
115.77   1857.00     43.09
115.87   2108.89     45.92
115.97   2323.00     48.20
116.07   2650.00     51.48
116.17   2877.00     53.64
116.27   3268.00     57.17
116.37   3621.00     60.17
116.47   4031.62     63.50
116.57   4261.00     65.28
116.67   4689.00     68.48
116.77   4956.00     70.40
116.87   5393.00     73.44
116.97   5824.00     76.32
117.07   6178.00     78.60
117.17   6675.03     81.70
117.27   6909.00     83.12
117.37   7243.00     85.11
117.47   7226.00     85.01
117.57   7248.00     85.14
117.67   7394.00     85.99
117.77   7250.00     85.15
117.87   7277.00     85.31
117.97   7114.24     84.35
118.07   6870.84     82.89
118.17   6407.00     80.04
118.27   6034.00     77.68
118.37   5956.89     77.18
118.47   5378.00     73.33
118.57   5099.61     71.41
118.67   4675.48     68.38
118.77   4324.17     65.76
118.87   3840.47     61.97
118.97   3737.00     61.13
119.07   3259.00     57.09
119.17   3030.00     55.05
119.27   2679.00     51.76
119.37   2469.00     49.69
119.47   2276.00     47.71
119.57   2009.00     44.82
119.67   1839.97     42.89
119.77   1725.00     41.53
119.87   1546.00     39.32
119.97   1374.02     37.07
120.07   1280.00     35.78
120.17   1088.00     32.98
120.27   1093.00     33.06
120.37    973.73     31.20
120.47    923.00     30.38
120.57    832.70     28.86
120.67    895.00     29.92
120.77    779.00     27.91
120.87    855.00     29.24
120.97    806.00     28.39
121.07    804.04     28.36
121.17    691.00     26.29
121.27    696.00     26.38
121.37    702.55     26.51
121.47    639.00     25.28
121.57    630.00     25.10
121.67    687.00     26.21
121.77    671.00     25.90
121.87    668.00     25.85
121.97    679.00     26.06
122.07    622.39     24.95
122.17    645.00     25.40
122.27    647.00     25.44
122.37    659.00     25.67
122.47    636.00     25.22
122.57    670.00     25.88
122.67    682.82     26.13
122.77    644.00     25.38
122.87    720.10     26.83
122.97    660.34     25.70
123.07    664.00     25.77
123.17    674.19     25.97
123.27    709.00     26.63
123.37    717.00     26.78
123.47    694.89     26.36
123.57    698.00     26.42
123.67    724.00     26.91
123.77    763.00     27.62
123.87    728.26     26.99
123.97    702.00     26.50
124.07    706.00     26.57
124.17    761.00     27.59
124.27    749.00     27.37
124.37    715.00     26.74
124.47    685.69     26.19
124.57    675.51     25.99
124.67    764.64     27.65
124.77    700.00     26.46
124.87    692.00     26.31
124.97    733.00     27.07
