XYDATA



INTER 1.0 1.0 0 0
TEMP 1074.0
  9.97    571.26     23.90
 10.07    535.31     23.14
 10.17    596.00     24.41
 10.27    591.00     24.31
 10.37    563.06     23.73
 10.47    585.00     24.19
 10.57    568.50     23.84
 10.67    597.00     24.43
 10.77    568.00     23.83
 10.87    551.00     23.47
 10.97    577.00     24.02
 11.07    615.00     24.80
 11.17    583.18     24.15
 11.27    600.00     24.49
 11.37    601.00     24.52
 11.47    615.00     24.80
 11.57    578.41     24.05
 11.67    650.00     25.50
 11.77    617.00     24.84
 11.87    654.00     25.57
 11.97    631.00     25.12
 12.07    713.00     26.70
 12.17    682.00     26.12
 12.27    695.00     26.36
 12.37    605.00     24.60
 12.47    676.98     26.02
 12.57    595.00     24.39
 12.67    575.00     23.98
 12.77    596.00     24.41
 12.87    572.00     23.92
 12.97    581.00     24.10
 13.07    565.00     23.77
 13.17    538.15     23.20
 13.27    598.00     24.45
 13.37    600.00     24.49
 13.47    557.00     23.60
 13.57    550.71     23.47
 13.67    553.00     23.52
 13.77    556.00     23.58
 13.87    585.00     24.19
 13.97    553.00     23.52
 14.07    522.00     22.85
 14.17    517.00     22.74
 14.27    566.15     23.79
 14.37    578.00     24.04
 14.47    538.00     23.19
 14.57    546.00     23.37
 14.67    603.02     24.56
 14.77    595.00     24.39
 14.87    563.00     23.73
 14.97    592.00     24.33
 15.07    548.34     23.42
 15.17    554.00     23.54
 15.27    542.00     23.28
 15.37    566.00     23.79
 15.47    555.62     23.57
 15.57    600.97     24.51
 15.67    567.00     23.81
 15.77    591.00     24.31
 15.87    513.00     22.65
 15.97    622.00     24.94
 16.07    606.37     24.62
 16.17    527.00     22.96
 16.27    519.15     22.78
 16.37    574.00     23.96
 16.47    565.54     23.78
 16.57    537.00     23.17
 16.67    509.00     22.56
 16.77    539.00     23.22
 16.87    504.00     22.45
 16.97    587.44     24.24
 17.07    608.72     24.67
 17.17    573.00     23.94
 17.27    556.16     23.58
 17.37    583.00     24.15
 17.47    578.00     24.04
 17.57    549.33     23.44
 17.67    579.00     24.06
 17.77    558.00     23.62
 17.87    591.00     24.31
 17.97    542.00     23.28
 18.07    546.00     23.37
 18.17    577.00     24.02
 18.27    515.00     22.69
 18.37    538.97     23.22
 18.47    549.00     23.43
 18.57    557.00     23.60
 18.67    586.49     24.22
 18.77    543.00     23.30
 18.87    585.11     24.19
 18.97    588.00     24.25
 19.07    570.00     23.87
 19.17    595.69     24.41
 19.27    549.00     23.43
 19.37    561.00     23.69
 19.47    573.42     23.95
 19.57    588.00     24.25
 19.67    554.55     23.55
 19.77    531.06     23.04
 19.87    528.00     22.98
 19.97    531.00     23.04
 20.07    528.37     22.99
 20.17    594.44     24.38
 20.27    551.00     23.47
 20.37    519.11     22.78
 20.47    569.00     23.85
 20.57    587.73     24.24
 20.67    541.81     23.28
 20.77    553.00     23.52
 20.87    520.00     22.80
 20.97    547.00     23.39
 21.07    573.90     23.96
 21.17    544.59     23.34
 21.27    580.00     24.08
 21.37    550.00     23.45
 21.47    525.10     22.92
 21.57    585.00     24.19
 21.67    542.00     23.28
 21.77    574.63     23.97
 21.87    576.45     24.01
 21.97    543.00     23.30
 22.07    592.00     24.33
 22.17    578.00     24.04
 22.27    584.28     24.17
 22.37    512.81     22.65
 22.47    582.00     24.12
 22.57    544.05     23.32
 22.67    509.00     22.56
 22.77    598.00     24.45
 22.87    571.00     23.90
 22.97    521.00     22.83
 23.07    538.00     23.19
 23.17    573.00     23.94
 23.27    529.00     23.00
 23.37    542.00     23.28
 23.47    537.00     23.17
 23.57    510.00     22.58
 23.67    507.81     22.53
 23.77    568.00     23.83
 23.87    541.00     23.26
 23.97    591.49     24.32
 24.07    565.00     23.77
 24.17    558.00     23.62
 24.27    505.10     22.47
 24.37    580.00     24.08
 24.47    534.37     23.12
 24.57    615.00     24.80
 24.67    629.00     25.08
 24.77    680.29     26.08
 24.87    626.00     25.02
 24.97    563.64     23.74
 25.07    564.34     23.76
 25.17    591.35     24.32
 25.27    569.00     23.85
 25.37    568.00     23.83
 25.47    535.31     23.14
 25.57    543.00     23.30
 25.67    536.00     23.15
 25.77    511.13     22.61
 25.87    537.00     23.17
 25.97    537.00     23.17
 26.07    550.00     23.45
 26.17    537.00     23.17
 26.27    539.00     23.22
 26.37    527.00     22.96
 26.47    492.42     22.19
 26.57    522.00     22.85
 26.67    537.00     23.17
 26.77    557.00     23.60
 26.87    529.72     23.02
 26.97    603.00     24.56
 27.07    550.74     23.47
 27.17    504.35     22.46
 27.27    561.00     23.69
 27.37    546.00     23.37
 27.47    546.00     23.37
 27.57    547.74     23.40
 27.67    553.05     23.52
 27.77    527.56     22.97
 27.87    612.51     24.75
 27.97    672.00     25.92
 28.07    746.57     27.32
 28.17    885.00     29.75
 28.27    998.20     31.59
 28.37    888.19     29.80
 28.47    840.90     29.00
 28.57    716.00     26.76
 28.67    707.00     26.59
 28.77    686.49     26.20
 28.87    760.00     27.57
 28.97    824.55     28.71
 29.07    747.27     27.34
 29.17    756.61     27.51
 29.27    603.65     24.57
 29.37    643.85     25.37
 29.47    604.00     24.58
 29.57    554.14     23.54
 29.67    635.00     25.20
 29.77    597.00     24.43
 29.87    569.71     23.87
 29.97    603.00     24.56
 30.07    557.00     23.60
 30.17    522.00     22.85
 30.27    497.15     22.30
 30.37    561.00     23.69
 30.47    542.00     23.28
 30.57    551.00     23.47
 30.67    613.00     24.76
 30.77    589.00     24.27
 30.87    583.00     24.15
 30.97    636.00     25.22
 31.07    590.00     24.29
 31.17    560.77     23.68
 31.27    609.00     24.68
 31.37    488.00     22.09
 31.47    605.00     24.60
 31.57    532.00     23.07
 31.67    546.97     23.39
 31.77    544.00     23.32
 31.87    551.06     23.47
 31.97    510.66     22.60
 32.07    497.56     22.31
 32.17    549.63     23.44
 32.27    535.00     23.13
 32.37    551.00     23.47
 32.47    539.00     23.22
 32.57    574.00     23.96
 32.67    525.00     22.91
 32.77    535.00     23.13
 32.87    574.00     23.96
 32.97    504.00     22.45
 33.07    533.00     23.09
 33.17    494.91     22.25
 33.27    520.00     22.80
 33.37    600.00     24.49
 33.47    553.25     23.52
 33.57    586.00     24.21
 33.67    599.36     24.48
 33.77    679.80     26.07
 33.87    848.00     29.12
 33.97   1055.28     32.49
 34.07   1124.00     33.53
 34.17   1000.00     31.62
 34.27    925.00     30.41
 34.37    764.00     27.64
 34.47    621.47     24.93
 34.57    562.78     23.72
 34.67    582.16     24.13
 34.77    548.00     23.41
 34.87    544.21     23.33
 34.97    574.59     23.97
 35.07    497.00     22.29
 35.17    535.36     23.14
 35.27    542.26     23.29
 35.37    543.00     23.30
 35.47    523.00     22.87
 35.57    524.00     22.89
 35.67    485.00     22.02
 35.77    546.00     23.37
 35.87    511.00     22.61
 35.97    514.13     22.67
 36.07    551.47     23.48
 36.17    548.74     23.43
 36.27    479.04     21.89
 36.37    496.00     22.27
 36.47    504.06     22.45
 36.57    548.05     23.41
 36.67    488.00     22.09
 36.77    483.00     21.98
 36.87    481.00     21.93
 36.97    489.00     22.11
 37.07    488.56     22.10
 37.17    536.00     23.15
 37.27    514.00     22.67
 37.37    469.82     21.68
 37.47    493.00     22.20
 37.57    549.79     23.45
 37.67    501.00     22.38
 37.77    517.00     22.74
 37.87    502.61     22.42
 37.97    522.00     22.85
 38.07    525.00     22.91
 38.17    551.45     23.48
 38.27    514.60     22.68
 38.37    501.00     22.38
 38.47    526.00     22.93
 38.57    480.85     21.93
 38.67    503.00     22.43
 38.77    542.86     23.30
 38.87    497.00     22.29
 38.97    483.00     21.98
 39.07    484.00     22.00
 39.17    499.00     22.34
 39.27    524.00     22.89
 39.37    489.41     22.12
 39.47    501.46     22.39
 39.57    497.00     22.29
 39.67    511.00     22.61
 39.77    516.00     22.72
 39.87    480.00     21.91
 39.97    478.23     21.87
 40.07    529.60     23.01
 40.17    507.00     22.52
 40.27    518.38     22.77
 40.37    504.53     22.46
 40.47    500.00     22.36
 40.57    530.00     23.02
 40.67    477.00     21.84
 40.77    549.74     23.45
 40.87    479.74     21.90
 40.97    542.66     23.29
 41.07    460.00     21.45
 41.17    509.50     22.57
 41.27    479.63     21.90
 41.37    524.62     22.90
 41.47    535.06     23.13
 41.57    542.40     23.29
 41.67    510.00     22.58
 41.77    522.83     22.87
 41.87    463.68     21.53
 41.97    498.00     22.32
 42.07    514.00     22.67
 42.17    482.70     21.97
 42.27    516.00     22.72
 42.37    546.32     23.37
 42.47    576.25     24.01
 42.57    597.90     24.45
 42.67    644.84     25.39
 42.77    575.00     23.98
 42.87    595.00     24.39
 42.97    564.00     23.75
 43.07    571.70     23.91
 43.17    535.00     23.13
 43.27    513.00     22.65
 43.37    467.76     21.63
 43.47    540.78     23.25
 43.57    494.00     22.23
 43.67    505.00     22.47
 43.77    478.66     21.88
 43.87    473.24     21.75
 43.97    534.13     23.11
 44.07    497.85     22.31
 44.17    494.29     22.23
 44.27    467.00     21.61
 44.37    495.68     22.26
 44.47    466.00     21.59
 44.57    496.64     22.29
 44.67    463.00     21.52
 44.77    524.00     22.89
 44.87    501.00     22.38
 44.97    504.12     22.45
 45.07    532.00     23.07
 45.17    524.00     22.89
 45.27    502.65     22.42
 45.37    543.51     23.31
 45.47    537.00     23.17
 45.57    479.00     21.89
 45.67    506.00     22.49
 45.77    531.01     23.04
 45.87    517.80     22.76
 45.97    447.00     21.14
 46.07    465.17     21.57
 46.17    489.17     22.12
 46.27    490.00     22.14
 46.37    516.00     22.72
 46.47    516.00     22.72
 46.57    505.85     22.49
 46.67    518.00     22.76
 46.77    490.29     22.14
 46.87    533.08     23.09
 46.97    505.12     22.47
 47.07    509.00     22.56
 47.17    516.75     22.73
 47.27    575.00     23.98
 47.37    526.00     22.93
 47.47    568.26     23.84
 47.57    573.00     23.94
 47.67    613.23     24.76
 47.77    615.76     24.81
 47.87    621.00     24.92
 47.97    658.00     25.65
 48.07    596.00     24.41
 48.17    594.45     24.38
 48.27    537.00     23.17
 48.37    562.44     23.72
 48.47    507.00     22.52
 48.57    515.99     22.72
 48.67    533.82     23.10
 48.77    563.59     23.74
 48.87    558.00     23.62
 48.97    564.00     23.75
 49.07    585.00     24.19
 49.17    608.00     24.66
 49.27    617.00     24.84
 49.37    674.00     25.96
 49.47    708.00     26.61
 49.57    799.00     28.27
 49.67    878.20     29.63
 49.77   1136.26     33.71
 49.87   1457.00     38.17
 49.97   1890.77     43.48
 50.07   2284.00     47.79
 50.17   2470.00     49.70
 50.27   2580.78     50.80
 50.37   2336.65     48.34
 50.47   1935.00     43.99
 50.57   1429.00     37.80
 50.67   1114.00     33.38
 50.77    838.00     28.95
 50.87    702.00     26.50
 50.97    710.28     26.65
 51.07    678.33     26.04
 51.17    596.04     24.41
 51.27    606.00     24.62
 51.37    563.00     23.73
 51.47    538.72     23.21
 51.57    544.61     23.34
 51.67    622.00     24.94
 51.77    577.00     24.02
 51.87    502.00     22.41
 51.97    549.16     23.43
 52.07    559.61     23.66
 52.17    593.00     24.35
 52.27    509.62     22.57
 52.37    508.58     22.55
 52.47    554.82     23.55
 52.57    530.40     23.03
 52.67    549.00     23.43
 52.77    628.00     25.06
 52.87    628.55     25.07
 52.97    711.00     26.66
 53.07    744.00     27.28
 53.17    924.00     30.40
 53.27   1010.00     31.78
 53.37   1145.00     33.84
 53.47   1128.00     33.59
 53.57   1161.23     34.08
 53.67   1075.00     32.79
 53.77    981.00     31.32
 53.87    890.82     29.85
 53.97    831.00     28.83
 54.07    670.00     25.88
 54.17    628.00     25.06
 54.27    557.00     23.60
 54.37    534.00     23.11
 54.47    564.00     23.75
 54.57    497.23     22.30
 54.67    557.00     23.60
 54.77    537.00     23.17
 54.87    596.00     24.41
 54.97    569.00     23.85
 55.07    543.86     23.32
 55.17    549.00     23.43
 55.27    537.00     23.17
 55.37    571.00     23.90
 55.47    586.36     24.21
 55.57    554.42     23.55
 55.67    568.00     23.83
 55.77    621.84     24.94
 55.87    572.57     23.93
 55.97    585.29     24.19
 56.07    657.00     25.63
 56.17    729.08     27.00
 56.27    864.00     29.39
 56.37   1144.54     33.83
 56.47   1478.18     38.45
 56.57   1860.13     43.13
 56.67   2264.44     47.59
 56.77   2570.57     50.70
 56.87   2653.03     51.51
 56.97   2631.00     51.29
 57.07   2366.67     48.65
 57.17   2182.00     46.71
 57.27   1653.00     40.66
 57.37   1290.00     35.92
 57.47   1049.00     32.39
 57.57    883.41     29.72
 57.67    744.87     27.29
 57.77    718.00     26.80
 57.87    673.58     25.95
 57.97    668.00     25.85
 58.07    692.00     26.31
 58.17    757.00     27.51
 58.27    766.00     27.68
 58.37    895.00     29.92
 58.47    979.00     31.29
 58.57   1116.00     33.41
 58.67   1205.00     34.71
 58.77   1366.00     36.96
 58.87   1501.00     38.74
 58.97   1538.00     39.22
 59.07   1624.00     40.30
 59.17   1516.00     38.94
 59.27   1414.00     37.60
 59.37   1322.79     36.37
 59.47   1310.00     36.19
 59.57   1165.09     34.13
 59.67   1075.37     32.79
 59.77   1167.00     34.16
 59.87   1232.00     35.10
 59.97   1286.00     35.86
 60.07   1420.00     37.68
 60.17   1495.03     38.67
 60.27   1664.00     40.79
 60.37   1571.00     39.64
 60.47   1364.35     36.94
 60.57   1249.00     35.34
 60.67   1101.00     33.18
 60.77    900.00     30.00
 60.87    772.73     27.80
 60.97    765.58     27.67
 61.07    644.00     25.38
 61.17    643.31     25.36
 61.27    624.00     24.98
 61.37    619.00     24.88
 61.47    659.17     25.67
 61.57    759.00     27.55
 61.67    829.00     28.79
 61.77    991.00     31.48
 61.87   1093.00     33.06
 61.97   1293.00     35.96
 62.07   1460.44     38.22
 62.17   1438.00     37.92
 62.27   1368.00     36.99
 62.37   1313.59     36.24
 62.47   1245.99     35.30
 62.57   1072.00     32.74
 62.67    904.00     30.07
 62.77    810.00     28.46
 62.87    697.00     26.40
 62.97    617.36     24.85
 63.07    641.00     25.32
 63.17    571.67     23.91
 63.27    530.19     23.03
 63.37    606.67     24.63
 63.47    619.00     24.88
 63.57    545.00     23.35
 63.67    619.00     24.88
 63.77    615.00     24.80
 63.87    644.00     25.38
 63.97    625.79     25.02
 64.07    727.83     26.98
 64.17    783.00     27.98
 64.27    832.00     28.84
 64.37    882.00     29.70
 64.47    936.00     30.59
 64.57   1034.00     32.16
 64.67   1016.08     31.88
 64.77   1056.16     32.50
 64.87   1018.00     31.91
 64.97    928.00     30.46
 65.07    866.12     29.43
 65.17    756.00     27.50
 65.27    754.00     27.46
 65.37    693.21     26.33
 65.47    623.00     24.96
 65.57    572.00     23.92
 65.67    589.00     24.27
 65.77    601.00     24.52
 65.87    559.00     23.64
 65.97    537.80     23.19
 66.07    559.15     23.65
 66.17    559.00     23.64
 66.27    569.00     23.85
 66.37    502.00     22.41
 66.47    528.29     22.98
 66.57    537.80     23.19
 66.67    567.00     23.81
 66.77    586.49     24.22
 66.87    618.00     24.86
 66.97    592.00     24.33
 67.07    608.00     24.66
 67.17    682.00     26.12
 67.27    819.64     28.63
 67.37    869.55     29.49
 67.47   1068.00     32.68
 67.57   1273.00     35.68
 67.67   1498.00     38.70
 67.77   1858.00     43.10
 67.87   2090.00     45.72
 67.97   2196.00     46.86
 68.07   2476.84     49.77
 68.17   2499.00     49.99
 68.27   2296.00     47.92
 68.37   2095.00     45.77
 68.47   1769.00     42.06
 68.57   1522.00     39.01
 68.67   1297.00     36.01
 68.77   1083.00     32.91
 68.87    885.00     29.75
 68.97    722.00     26.87
 69.07    649.00     25.48
 69.17    609.00     24.68
 69.27    650.00     25.50
 69.37    651.00     25.51
 69.47    601.00     24.52
 69.57    594.86     24.39
 69.67    531.00     23.04
 69.77    545.69     23.36
 69.87    549.49     23.44
 69.97    585.00     24.19
 70.07    548.30     23.42
 70.17    575.00     23.98
 70.27    556.00     23.58
 70.37    584.00     24.17
 70.47    555.36     23.57
 70.57    582.18     24.13
 70.67    578.00     24.04
 70.77    624.34     24.99
 70.87    630.51     25.11
 70.97    654.48     25.58
 71.07    702.63     26.51
 71.17    709.00     26.63
 71.27    842.36     29.02
 71.37    983.00     31.35
 71.47   1042.00     32.28
 71.57   1258.00     35.47
 71.67   1417.70     37.65
 71.77   1575.63     39.69
 71.87   1849.00     43.00
 71.97   1870.00     43.24
 72.07   1893.00     43.51
 72.17   1808.50     42.53
 72.27   1703.48     41.27
 72.37   1693.00     41.15
 72.47   1480.00     38.47
 72.57   1302.00     36.08
 72.67   1140.00     33.76
 72.77   1054.00     32.47
 72.87    969.00     31.13
 72.97    857.73     29.29
 73.07    798.00     28.25
 73.17    758.00     27.53
 73.27    764.83     27.66
 73.37    685.00     26.17
 73.47    668.00     25.85
 73.57    629.00     25.08
 73.67    599.61     24.49
 73.77    614.00     24.78
 73.87    585.00     24.19
 73.97    517.00     22.74
 74.07    595.39     24.40
 74.17    600.00     24.49
 74.27    584.25     24.17
 74.37    627.00     25.04
 74.47    615.00     24.80
 74.57    648.00     25.46
 74.67    609.00     24.68
 74.77    627.00     25.04
 74.87    610.00     24.70
 74.97    521.07     22.83
 75.07    525.46     22.92
 75.17    573.90     23.96
 75.27    557.00     23.60
 75.37    568.55     23.84
 75.47    579.00     24.06
 75.57    565.00     23.77
 75.67    606.64     24.63
 75.77    582.92     24.14
 75.87    611.00     24.72
 75.97    609.00     24.68
 76.07    586.00     24.21
 76.17    637.00     25.24
 76.27    641.00     25.32
 76.37    677.50     26.03
 76.47    700.82     26.47
 76.57    730.00     27.02
 76.67    704.00     26.53
 76.77    641.00     25.32
 76.87    652.14     25.54
 76.97    608.69     24.67
 77.07    587.00     24.23
 77.17    596.03     24.41
 77.27    560.00     23.66
 77.37    554.00     23.54
 77.47    566.00     23.79
 77.57    544.21     23.33
 77.67    501.00     22.38
 77.77    570.59     23.89
 77.87    549.00     23.43
 77.97    517.00     22.74
 78.07    546.41     23.38
 78.17    486.00     22.05
 78.27    504.00     22.45
 78.37    523.00     22.87
 78.47    560.00     23.66
 78.57    535.00     23.13
 78.67    499.85     22.36
 78.77    515.75     22.71
 78.87    549.00     23.43
 78.97    564.00     23.75
 79.07    506.66     22.51
 79.17    504.00     22.45
 79.27    504.00     22.45
 79.37    547.00     23.39
 79.47    531.00     23.04
 79.57    569.99     23.87
 79.67    539.00     23.22
 79.77    537.16     23.18
 79.87    582.91     24.14
 79.97    559.65     23.66
 80.07    524.00     22.89
 80.17    533.00     23.09
 80.27    537.00     23.17
 80.37    593.00     24.35
 80.47    548.25     23.41
 80.57    634.00     25.18
 80.67    611.05     24.72
 80.77    672.00     25.92
 80.87    691.70     26.30
 80.97    682.43     26.12
 81.07    686.60     26.20
 81.17    754.91     27.48
 81.27    753.00     27.44
 81.37    706.31     26.58
 81.47    755.00     27.48
 81.57    775.98     27.86
 81.67    750.64     27.40
 81.77    750.00     27.39
 81.87    699.00     26.44
 81.97    642.47     25.35
 82.07    698.76     26.43
 82.17    599.04     24.48
 82.27    578.00     24.04
 82.37    614.43     24.79
 82.47    593.62     24.36
 82.57    569.06     23.85
 82.67    573.00     23.94
 82.77    556.39     23.59
 82.87    533.09     23.09
 82.97    532.09     23.07
 83.07    523.00     22.87
 83.17    591.05     24.31
 83.27    531.00     23.04
 83.37    525.27     22.92
 83.47    533.10     23.09
 83.57    564.00     23.75
 83.67    550.00     23.45
 83.77    579.32     24.07
 83.87    543.00     23.30
 83.97    583.00     24.15
 84.07    613.00     24.76
 84.17    627.23     25.04
 84.27    553.00     23.52
 84.37    532.06     23.07
 84.47    567.00     23.81
 84.57    536.76     23.17
 84.67    549.29     23.44
 84.77    507.93     22.54
 84.87    524.00     22.89
 84.97    498.72     22.33
 85.07    489.20     22.12
 85.17    526.00     22.93
 85.27    537.00     23.17
 85.37    538.00     23.19
 85.47    557.00     23.60
 85.57    545.43     23.35
 85.67    507.75     22.53
 85.77    547.00     23.39
 85.87    509.00     22.56
 85.97    524.93     22.91
 86.07    555.00     23.56
 86.17    554.00     23.54
 86.27    511.00     22.61
 86.37    529.00     23.00
 86.47    511.00     22.61
 86.57    617.00     24.84
 86.67    562.00     23.71
 86.77    571.00     23.90
 86.87    580.72     24.10
 86.97    627.93     25.06
 87.07    685.00     26.17
 87.17    633.57     25.17
 87.27    604.78     24.59
 87.37    621.00     24.92
 87.47    591.10     24.31
 87.57    637.00     25.24
 87.67    648.00     25.46
 87.77    622.09     24.94
 87.87    669.00     25.87
 87.97    636.10     25.22
 88.07    606.00     24.62
 88.17    609.00     24.68
 88.27    635.00     25.20
 88.37    581.00     24.10
 88.47    578.00     24.04
 88.57    561.00     23.69
 88.67    626.00     25.02
 88.77    618.00     24.86
 88.87    601.52     24.53
 88.97    616.00     24.82
 89.07    615.00     24.80
 89.17    583.00     24.15
 89.27    618.00     24.86
 89.37    597.00     24.43
 89.47    593.56     24.36
 89.57    591.00     24.31
 89.67    560.00     23.66
 89.77    575.34     23.99
 89.87    552.00     23.49
 89.97    539.00     23.22
 90.07    548.78     23.43
 90.17    551.00     23.47
 90.27    522.00     22.85
 90.37    555.00     23.56
 90.47    573.91     23.96
 90.57    528.00     22.98
 90.67    517.00     22.74
 90.77    514.00     22.67
 90.87    510.00     22.58
 90.97    524.10     22.89
 91.07    498.00     22.32
 91.17    563.07     23.73
 91.27    500.00     22.36
 91.37    487.14     22.07
 91.47    555.00     23.56
 91.57    557.00     23.60
 91.67    501.26     22.39
 91.77    544.31     23.33
 91.87    535.73     23.15
 91.97    577.00     24.02
 92.07    548.75     23.43
 92.17    520.00     22.80
 92.27    610.00     24.70
 92.37    546.00     23.37
 92.47    664.00     25.77
 92.57    645.00     25.40
 92.67    659.00     25.67
 92.77    706.00     26.57
 92.87    672.09     25.92
 92.97    729.00     27.00
 93.07    777.00     27.87
 93.17    805.00     28.37
 93.27    806.86     28.41
 93.37    788.00     28.07
 93.47    834.26     28.88
 93.57    840.00     28.98
 93.67    821.72     28.67
 93.77    835.00     28.90
 93.87    845.00     29.07
 93.97    875.00     29.58
 94.07    843.00     29.03
 94.17    858.00     29.29
 94.27    837.00     28.93
 94.37    862.39     29.37
 94.47    883.31     29.72
 94.57    879.00     29.65
 94.67    949.00     30.81
 94.77    913.00     30.22
 94.87    876.35     29.60
 94.97    888.00     29.80
 95.07    946.00     30.76
 95.17    827.70     28.77
 95.27    791.44     28.13
 95.37    818.00     28.60
 95.47    783.00     27.98
 95.57    783.00     27.98
 95.67    713.00     26.70
 95.77    723.00     26.89
 95.87    739.17     27.19
 95.97    693.00     26.32
 96.07    749.00     27.37
 96.17    721.79     26.87
 96.27    697.00     26.40
 96.37    714.53     26.73
 96.47    840.00     28.98
 96.57    840.29     28.99
 96.67    951.00     30.84
 96.77    988.53     31.44
 96.87   1002.68     31.67
 96.97   1123.00     33.51
 97.07   1164.54     34.13
 97.17   1285.09     35.85
 97.27   1338.71     36.59
 97.37   1394.86     37.35
 97.47   1458.24     38.19
 97.57   1400.88     37.43
 97.67   1499.00     38.72
 97.77   1331.00     36.48
 97.87   1396.00     37.36
 97.97   1315.26     36.27
 98.07   1195.00     34.57
 98.17   1158.00     34.03
 98.27   1098.00     33.14
 98.37    986.19     31.40
 98.47    944.30     30.73
 98.57    859.00     29.31
 98.67    867.16     29.45
 98.77    806.29     28.40
 98.87    862.75     29.37
 98.97    828.00     28.77
 99.07    809.58     28.45
 99.17    835.00     28.90
 99.27    891.00     29.85
 99.37    987.00     31.42
 99.47   1007.00     31.73
 99.57   1039.00     32.23
 99.67   1156.00     34.00
 99.77   1225.00     35.00
 99.87   1351.00     36.76
 99.97   1474.00     38.39
100.07   1686.90     41.07
100.17   1793.00     42.34
100.27   1854.00     43.06
100.37   1915.00     43.76
100.47   2041.00     45.18
100.57   1958.38     44.25
100.67   2114.00     45.98
100.77   2091.00     45.73
100.87   2107.00     45.90
100.97   2076.00     45.56
101.07   1907.45     43.67
101.17   1923.00     43.85
101.27   1863.00     43.16
101.37   1707.00     41.32
101.47   1616.74     40.21
101.57   1566.00     39.57
101.67   1494.80     38.66
101.77   1405.45     37.49
101.87   1295.00     35.99
101.97   1251.00     35.37
102.07   1154.00     33.97
102.17   1147.00     33.87
102.27   1167.67     34.17
102.37   1164.00     34.12
102.47   1077.00     32.82
102.57   1102.00     33.20
102.67   1057.25     32.52
102.77   1026.00     32.03
102.87    987.71     31.43
102.97    933.00     30.55
103.07    929.00     30.48
103.17    940.24     30.66
103.27    890.87     29.85
103.37    773.88     27.82
103.47    743.00     27.26
103.57    737.00     27.15
103.67    703.00     26.51
103.77    695.00     26.36
103.87    669.00     25.87
103.97    596.00     24.41
104.07    592.00     24.33
104.17    543.10     23.30
104.27    586.00     24.21
104.37    531.00     23.04
104.47    570.00     23.87
104.57    546.00     23.37
104.67    544.84     23.34
104.77    561.00     23.69
104.87    581.70     24.12
104.97    545.00     23.35
105.07    528.00     22.98
105.17    500.29     22.37
105.27    522.61     22.86
105.37    515.52     22.70
105.47    600.00     24.49
105.57    521.00     22.83
105.67    540.00     23.24
105.77    578.00     24.04
105.87    607.63     24.65
105.97    604.00     24.58
106.07    565.00     23.77
106.17    545.00     23.35
106.27    590.00     24.29
106.37    650.00     25.50
106.47    595.37     24.40
106.57    576.00     24.00
106.67    622.00     24.94
106.77    636.00     25.22
106.87    637.82     25.26
106.97    654.00     25.57
107.07    657.00     25.63
107.17    699.00     26.44
107.27    678.00     26.04
107.37    755.37     27.48
107.47    662.00     25.73
107.57    688.00     26.23
107.67    709.00     26.63
107.77    690.00     26.27
107.87    687.00     26.21
107.97    732.98     27.07
108.07    677.41     26.03
108.17    696.00     26.38
108.27    659.00     25.67
108.37    715.00     26.74
108.47    652.77     25.55
108.57    700.14     26.46
108.67    736.32     27.14
108.77    732.50     27.06
108.87    718.00     26.80
108.97    654.00     25.57
109.07    654.00     25.57
109.17    671.06     25.90
109.27    657.00     25.63
109.37    649.84     25.49
109.47    655.00     25.59
109.57    638.00     25.26
109.67    633.00     25.16
109.77    643.00     25.36
109.87    623.00     24.96
109.97    613.78     24.77
110.07    648.00     25.46
110.17    603.00     24.56
110.27    583.00     24.15
110.37    574.80     23.98
110.47    557.00     23.60
110.57    527.00     22.96
110.67    554.00     23.54
110.77    511.00     22.61
110.87    533.27     23.09
110.97    563.00     23.73
111.07    584.89     24.18
111.17    567.00     23.81
111.27    590.00     24.29
111.37    544.00     23.32
111.47    582.00     24.12
111.57    539.00     23.22
111.67    535.27     23.14
111.77    602.00     24.54
111.87    517.83     22.76
111.97    564.68     23.76
112.07    602.00     24.54
112.17    555.00     23.56
112.27    552.74     23.51
112.37    590.41     24.30
112.47    551.00     23.47
112.57    598.00     24.45
112.67    575.00     23.98
112.77    605.00     24.60
112.87    650.00     25.50
112.97    648.00     25.46
113.07    668.81     25.86
113.17    723.00     26.89
113.27    728.00     26.98
113.37    765.00     27.66
113.47    756.13     27.50
113.57    790.00     28.11
113.67    818.24     28.60
113.77    876.00     29.60
113.87    944.00     30.72
113.97    932.95     30.54
114.07   1038.00     32.22
114.17   1095.00     33.09
114.27   1224.84     35.00
114.37   1247.53     35.32
114.47   1287.00     35.87
114.57   1422.00     37.71
114.67   1555.00     39.43
114.77   1703.00     41.27
114.87   1852.26     43.04
114.97   1966.11     44.34
115.07   2384.00     48.83
115.17   2554.00     50.54
115.27   2853.70     53.42
115.37   3054.00     55.26
115.47   3332.00     57.72
115.57   3699.00     60.82
115.67   4115.97     64.16
115.77   4528.83     67.30
115.87   4990.35     70.64
115.97   5407.10     73.53
116.07   5539.00     74.42
116.17   6006.00     77.50
116.27   6176.00     78.59
116.37   6633.00     81.44
116.47   6866.00     82.86
116.57   7054.00     83.99
116.67   6793.82     82.42
116.77   7010.00     83.73
116.87   6922.00     83.20
116.97   6736.00     82.07
117.07   6232.00     78.94
117.17   6255.53     79.09
117.27   5670.00     75.30
117.37   5436.00     73.73
117.47   4964.85     70.46
117.57   4633.00     68.07
117.67   4365.00     66.07
117.77   4020.00     63.40
117.87   3689.00     60.74
117.97   3152.98     56.15
118.07   2847.58     53.36
118.17   2559.00     50.59
118.27   2203.61     46.94
118.37   2042.00     45.19
118.47   1738.23     41.69
118.57   1570.00     39.62
118.67   1335.00     36.54
118.77   1206.17     34.73
118.87   1194.24     34.56
118.97   1068.00     32.68
119.07    927.00     30.45
119.17    879.00     29.65
119.27    868.88     29.48
119.37    827.00     28.76
119.47    685.00     26.17
119.57    763.48     27.63
119.67    651.67     25.53
119.77    604.00     24.58
119.87    637.00     25.24
119.97    610.00     24.70
120.07    652.00     25.53
120.17    614.52     24.79
120.27    579.00     24.06
120.37    603.77     24.57
120.47    622.59     24.95
120.57    562.00     23.71
120.67    529.61     23.01
120.77    530.26     23.03
120.87    555.00     23.56
120.97    605.62     24.61
121.07    603.00     24.56
121.17    563.00     23.73
121.27    551.31     23.48
121.37    602.00     24.54
121.47    547.00     23.39
121.57    597.00     24.43
121.67    567.18     23.82
121.77    619.27     24.89
121.87    624.65     24.99
121.97    608.00     24.66
122.07    559.00     23.64
122.17    653.00     25.55
122.27    622.00     24.94
122.37    663.15     25.75
122.47    634.34     25.19
122.57    609.67     24.69
122.67    628.00     25.06
122.77    636.91     25.24
122.87    670.25     25.89
122.97    623.00     24.96
123.07    676.00     26.00
123.17    589.00     24.27
123.27    650.00     25.50
123.37    662.00     25.73
123.47    629.00     25.08
123.57    631.00     25.12
123.67    641.00     25.32
123.77    625.00     25.00
123.87    639.00     25.28
123.97    636.22     25.22
124.07    629.00     25.08
124.17    590.33     24.30
124.27    569.14     23.86
124.37    564.00     23.75
124.47    606.00     24.62
124.57    607.00     24.64
124.67    617.00     24.84
124.77    600.00     24.49
124.87    587.00     24.23
124.97    607.77     24.65
