XYDATA



INTER 1.0 1.0 0 0
TEMP 667.055
  9.97    676.53     26.01
 10.07    678.21     26.04
 10.17    663.49     25.76
 10.27    671.17     25.91
 10.37    717.00     26.78
 10.47    669.00     25.87
 10.57    686.07     26.19
 10.67    657.00     25.63
 10.77    686.60     26.20
 10.87    655.89     25.61
 10.97    653.00     25.55
 11.07    678.08     26.04
 11.17    617.00     24.84
 11.27    630.25     25.10
 11.37    720.00     26.83
 11.47    622.72     24.95
 11.57    624.00     24.98
 11.67    686.00     26.19
 11.77    683.00     26.13
 11.87    620.64     24.91
 11.97    793.00     28.16
 12.07    797.00     28.23
 12.17    753.93     27.46
 12.27    814.00     28.53
 12.37    773.07     27.80
 12.47    753.80     27.46
 12.57    698.88     26.44
 12.67    644.00     25.38
 12.77    652.00     25.53
 12.87    597.00     24.43
 12.97    632.00     25.14
 13.07    645.00     25.40
 13.17    646.00     25.42
 13.27    663.44     25.76
 13.37    669.00     25.87
 13.47    625.00     25.00
 13.57    589.00     24.27
 13.67    633.00     25.16
 13.77    628.00     25.06
 13.87    640.00     25.30
 13.97    599.00     24.47
 14.07    600.03     24.50
 14.17    605.00     24.60
 14.27    641.00     25.32
 14.37    678.00     26.04
 14.47    658.00     25.65
 14.57    598.00     24.45
 14.67    628.00     25.06
 14.77    590.00     24.29
 14.87    651.00     25.51
 14.97    627.33     25.05
 15.07    650.00     25.50
 15.17    682.21     26.12
 15.27    592.00     24.33
 15.37    621.00     24.92
 15.47    659.00     25.67
 15.57    601.00     24.52
 15.67    614.00     24.78
 15.77    603.00     24.56
 15.87    678.83     26.05
 15.97    638.74     25.27
 16.07    641.95     25.34
 16.17    612.00     24.74
 16.27    606.04     24.62
 16.37    661.00     25.71
 16.47    635.00     25.20
 16.57    645.00     25.40
 16.67    563.00     23.73
 16.77    633.00     25.16
 16.87    546.00     23.37
 16.97    631.00     25.12
 17.07    638.02     25.26
 17.17    556.00     23.58
 17.27    607.00     24.64
 17.37    589.00     24.27
 17.47    646.75     25.43
 17.57    602.00     24.54
 17.67    633.00     25.16
 17.77    657.04     25.63
 17.87    613.78     24.77
 17.97    572.00     23.92
 18.07    582.03     24.13
 18.17    620.00     24.90
 18.27    644.09     25.38
 18.37    663.90     25.77
 18.47    618.00     24.86
 18.57    624.00     24.98
 18.67    627.00     25.04
 18.77    604.83     24.59
 18.87    602.00     24.54
 18.97    616.98     24.84
 19.07    593.54     24.36
 19.17    581.00     24.10
 19.27    595.00     24.39
 19.37    587.00     24.23
 19.47    635.00     25.20
 19.57    559.00     23.64
 19.67    557.00     23.60
 19.77    616.00     24.82
 19.87    575.63     23.99
 19.97    569.00     23.85
 20.07    614.00     24.78
 20.17    584.00     24.17
 20.27    638.96     25.28
 20.37    623.00     24.96
 20.47    617.00     24.84
 20.57    614.15     24.78
 20.67    563.89     23.75
 20.77    612.00     24.74
 20.87    598.00     24.45
 20.97    623.00     24.96
 21.07    584.00     24.17
 21.17    553.96     23.54
 21.27    627.12     25.04
 21.37    576.00     24.00
 21.47    615.17     24.80
 21.57    588.00     24.25
 21.67    597.07     24.43
 21.77    562.25     23.71
 21.87    565.15     23.77
 21.97    604.00     24.58
 22.07    575.71     23.99
 22.17    546.00     23.37
 22.27    627.06     25.04
 22.37    577.42     24.03
 22.47    651.00     25.51
 22.57    551.95     23.49
 22.67    611.95     24.74
 22.77    641.36     25.33
 22.87    589.00     24.27
 22.97    598.00     24.45
 23.07    643.66     25.37
 23.17    595.00     24.39
 23.27    559.88     23.66
 23.37    630.64     25.11
 23.47    605.00     24.60
 23.57    605.00     24.60
 23.67    596.00     24.41
 23.77    559.76     23.66
 23.87    600.00     24.49
 23.97    596.00     24.41
 24.07    571.04     23.90
 24.17    597.00     24.43
 24.27    644.00     25.38
 24.37    645.00     25.40
 24.47    626.00     25.02
 24.57    614.00     24.78
 24.67    657.00     25.63
 24.77    654.00     25.57
 24.87    686.00     26.19
 24.97    699.50     26.45
 25.07    634.65     25.19
 25.17    675.00     25.98
 25.27    652.00     25.53
 25.37    676.00     26.00
 25.47    588.00     24.25
 25.57    631.00     25.12
 25.67    576.89     24.02
 25.77    641.00     25.32
 25.87    594.90     24.39
 25.97    576.03     24.00
 26.07    616.00     24.82
 26.17    629.00     25.08
 26.27    560.83     23.68
 26.37    587.43     24.24
 26.47    579.68     24.08
 26.57    584.00     24.17
 26.67    566.36     23.80
 26.77    668.00     25.85
 26.87    641.00     25.32
 26.97    616.62     24.83
 27.07    589.81     24.29
 27.17    697.00     26.40
 27.27    658.00     25.65
 27.37    687.41     26.22
 27.47    635.05     25.20
 27.57    697.00     26.40
 27.67    754.00     27.46
 27.77    791.00     28.12
 27.87    933.00     30.55
 27.97   1081.00     32.88
 28.07   1671.54     40.88
 28.17   2655.13     51.53
 28.27   3465.00     58.86
 28.37   4178.00     64.64
 28.47   4272.00     65.36
 28.57   3436.00     58.62
 28.67   2604.00     51.03
 28.77   2104.00     45.87
 28.87   1976.00     44.45
 28.97   2280.00     47.75
 29.07   2496.00     49.96
 29.17   2492.00     49.92
 29.27   2093.00     45.75
 29.37   1546.61     39.33
 29.47   1229.69     35.07
 29.57   1004.00     31.69
 29.67    888.00     29.80
 29.77    821.00     28.65
 29.87    738.31     27.17
 29.97    742.00     27.24
 30.07    608.57     24.67
 30.17    719.00     26.81
 30.27    585.90     24.21
 30.37    608.33     24.66
 30.47    687.00     26.21
 30.57    700.00     26.46
 30.67    670.01     25.88
 30.77    608.47     24.67
 30.87    710.57     26.66
 30.97    723.00     26.89
 31.07    682.00     26.12
 31.17    667.42     25.83
 31.27    689.00     26.25
 31.37    700.00     26.46
 31.47    655.00     25.59
 31.57    640.00     25.30
 31.67    636.00     25.22
 31.77    623.00     24.96
 31.87    585.00     24.19
 31.97    627.00     25.04
 32.07    629.45     25.09
 32.17    565.00     23.77
 32.27    600.00     24.49
 32.37    585.16     24.19
 32.47    624.77     25.00
 32.57    635.00     25.20
 32.67    628.00     25.06
 32.77    537.86     23.19
 32.87    612.00     24.74
 32.97    619.39     24.89
 33.07    619.53     24.89
 33.17    555.25     23.56
 33.27    639.00     25.28
 33.37    650.00     25.50
 33.47    606.00     24.62
 33.57    578.00     24.04
 33.67    607.35     24.64
 33.77    678.66     26.05
 33.87    807.00     28.41
 33.97    866.60     29.44
 34.07    989.00     31.45
 34.17   1102.00     33.20
 34.27   1105.00     33.24
 34.37   1125.70     33.55
 34.47    975.00     31.22
 34.57    883.02     29.72
 34.67    673.00     25.94
 34.77    633.00     25.16
 34.87    614.00     24.78
 34.97    631.00     25.12
 35.07    631.00     25.12
 35.17    578.29     24.05
 35.27    603.18     24.56
 35.37    595.91     24.41
 35.47    616.09     24.82
 35.57    621.83     24.94
 35.67    565.31     23.78
 35.77    543.00     23.30
 35.87    537.00     23.17
 35.97    543.00     23.30
 36.07    573.00     23.94
 36.17    564.00     23.75
 36.27    539.00     23.22
 36.37    551.00     23.47
 36.47    572.00     23.92
 36.57    531.21     23.05
 36.67    557.41     23.61
 36.77    558.00     23.62
 36.87    526.78     22.95
 36.97    546.00     23.37
 37.07    527.00     22.96
 37.17    546.00     23.37
 37.27    546.87     23.39
 37.37    549.00     23.43
 37.47    551.62     23.49
 37.57    573.00     23.94
 37.67    591.00     24.31
 37.77    618.00     24.86
 37.87    608.00     24.66
 37.97    603.88     24.57
 38.07    621.00     24.92
 38.17    664.00     25.77
 38.27    682.79     26.13
 38.37    624.00     24.98
 38.47    596.00     24.41
 38.57    578.93     24.06
 38.67    533.00     23.09
 38.77    555.00     23.56
 38.87    504.00     22.45
 38.97    551.00     23.47
 39.07    558.00     23.62
 39.17    532.00     23.07
 39.27    531.00     23.04
 39.37    574.94     23.98
 39.47    586.00     24.21
 39.57    591.00     24.31
 39.67    539.00     23.22
 39.77    521.00     22.83
 39.87    527.63     22.97
 39.97    512.00     22.63
 40.07    509.68     22.58
 40.17    570.00     23.87
 40.27    482.00     21.95
 40.37    540.00     23.24
 40.47    541.00     23.26
 40.57    559.62     23.66
 40.67    503.00     22.43
 40.77    528.00     22.98
 40.87    577.11     24.02
 40.97    582.94     24.14
 41.07    559.00     23.64
 41.17    586.28     24.21
 41.27    513.00     22.65
 41.37    508.00     22.54
 41.47    585.00     24.19
 41.57    566.84     23.81
 41.67    564.00     23.75
 41.77    527.63     22.97
 41.87    548.05     23.41
 41.97    515.00     22.69
 42.07    527.00     22.96
 42.17    530.84     23.04
 42.27    553.00     23.52
 42.37    544.00     23.32
 42.47    593.65     24.36
 42.57    569.00     23.85
 42.67    658.36     25.66
 42.77    590.69     24.30
 42.87    618.00     24.86
 42.97    640.76     25.31
 43.07    669.78     25.88
 43.17    642.00     25.34
 43.27    550.00     23.45
 43.37    563.00     23.73
 43.47    584.00     24.17
 43.57    538.00     23.19
 43.67    527.01     22.96
 43.77    579.00     24.06
 43.87    530.81     23.04
 43.97    576.00     24.00
 44.07    528.00     22.98
 44.17    602.00     24.54
 44.27    536.00     23.15
 44.37    585.04     24.19
 44.47    557.19     23.60
 44.57    525.00     22.91
 44.67    575.15     23.98
 44.77    569.00     23.85
 44.87    546.00     23.37
 44.97    553.00     23.52
 45.07    575.00     23.98
 45.17    509.00     22.56
 45.27    595.00     24.39
 45.37    601.00     24.52
 45.47    553.00     23.52
 45.57    536.88     23.17
 45.67    504.00     22.45
 45.77    500.12     22.36
 45.87    590.06     24.29
 45.97    567.00     23.81
 46.07    580.00     24.08
 46.17    587.59     24.24
 46.27    576.00     24.00
 46.37    595.00     24.39
 46.47    531.82     23.06
 46.57    512.00     22.63
 46.67    571.00     23.90
 46.77    565.00     23.77
 46.87    506.00     22.49
 46.97    571.61     23.91
 47.07    555.00     23.56
 47.17    563.11     23.73
 47.27    508.00     22.54
 47.37    589.70     24.28
 47.47    611.00     24.72
 47.57    561.00     23.69
 47.67    574.00     23.96
 47.77    589.72     24.28
 47.87    586.00     24.21
 47.97    586.17     24.21
 48.07    697.00     26.40
 48.17    635.00     25.20
 48.27    619.26     24.88
 48.37    617.70     24.85
 48.47    615.00     24.80
 48.57    560.32     23.67
 48.67    580.71     24.10
 48.77    578.00     24.04
 48.87    618.00     24.86
 48.97    607.28     24.64
 49.07    568.00     23.83
 49.17    548.00     23.41
 49.27    619.08     24.88
 49.37    607.00     24.64
 49.47    573.00     23.94
 49.57    646.00     25.42
 49.67    682.00     26.12
 49.77    717.00     26.78
 49.87    860.00     29.33
 49.97   1058.56     32.54
 50.07   1382.00     37.18
 50.17   1800.00     42.43
 50.27   2166.00     46.54
 50.37   2556.99     50.57
 50.47   2661.38     51.59
 50.57   2735.55     52.30
 50.67   2319.00     48.16
 50.77   1984.00     44.54
 50.87   1499.00     38.72
 50.97   1176.20     34.30
 51.07    966.00     31.08
 51.17    802.00     28.32
 51.27    784.55     28.01
 51.37    726.00     26.94
 51.47    715.50     26.75
 51.57    688.00     26.23
 51.67    703.00     26.51
 51.77    662.03     25.73
 51.87    656.00     25.61
 51.97    645.00     25.40
 52.07    652.54     25.54
 52.17    628.00     25.06
 52.27    652.00     25.53
 52.37    675.00     25.98
 52.47    608.46     24.67
 52.57    592.00     24.33
 52.67    643.00     25.36
 52.77    622.00     24.94
 52.87    586.00     24.21
 52.97    624.00     24.98
 53.07    707.96     26.61
 53.17    698.18     26.42
 53.27    806.80     28.40
 53.37    828.00     28.77
 53.47    938.00     30.63
 53.57    987.04     31.42
 53.67   1148.00     33.88
 53.77   1226.00     35.01
 53.87   1257.56     35.46
 53.97   1224.00     34.99
 54.07   1141.00     33.78
 54.17    987.01     31.42
 54.27    872.00     29.53
 54.37    814.00     28.53
 54.47    771.00     27.77
 54.57    692.00     26.31
 54.67    666.00     25.81
 54.77    642.00     25.34
 54.87    601.00     24.52
 54.97    642.00     25.34
 55.07    601.30     24.52
 55.17    643.00     25.36
 55.27    636.00     25.22
 55.37    652.30     25.54
 55.47    608.00     24.66
 55.57    593.00     24.35
 55.67    606.76     24.63
 55.77    604.00     24.58
 55.87    621.17     24.92
 55.97    621.00     24.92
 56.07    656.00     25.61
 56.17    702.01     26.50
 56.27    788.24     28.08
 56.37    812.35     28.50
 56.47    877.12     29.62
 56.57   1036.27     32.19
 56.67   1175.00     34.28
 56.77   1470.16     38.34
 56.87   1859.00     43.12
 56.97   2143.00     46.29
 57.07   2509.00     50.09
 57.17   2605.82     51.05
 57.27   2531.14     50.31
 57.37   2426.64     49.26
 57.47   2188.00     46.78
 57.57   1780.00     42.19
 57.67   1439.85     37.95
 57.77   1190.96     34.51
 57.87   1030.56     32.10
 57.97    902.00     30.03
 58.07    790.00     28.11
 58.17    717.96     26.79
 58.27    712.00     26.68
 58.37    802.00     28.32
 58.47    795.56     28.21
 58.57    739.00     27.18
 58.67    857.00     29.27
 58.77    981.00     31.32
 58.87   1001.62     31.65
 58.97   1091.00     33.03
 59.07   1219.00     34.91
 59.17   1172.84     34.25
 59.27   1317.00     36.29
 59.37   1297.00     36.01
 59.47   1316.00     36.28
 59.57   1264.08     35.55
 59.67   1252.00     35.38
 59.77   1177.00     34.31
 59.87   1221.00     34.94
 59.97   1216.96     34.88
 60.07   1210.00     34.79
 60.17   1313.00     36.24
 60.27   1306.00     36.14
 60.37   1465.00     38.28
 60.47   1602.00     40.02
 60.57   1689.00     41.10
 60.67   1515.78     38.93
 60.77   1372.16     37.04
 60.87   1292.03     35.94
 60.97   1198.00     34.61
 61.07   1133.00     33.66
 61.17    985.00     31.38
 61.27    868.00     29.46
 61.37    809.00     28.44
 61.47    713.29     26.71
 61.57    826.00     28.74
 61.67    781.00     27.95
 61.77    768.00     27.71
 61.87    858.27     29.30
 61.97    933.00     30.55
 62.07   1007.00     31.73
 62.17   1147.54     33.88
 62.27   1344.00     36.66
 62.37   1484.00     38.52
 62.47   1542.87     39.28
 62.57   1421.00     37.70
 62.67   1443.62     37.99
 62.77   1400.91     37.43
 62.87   1216.00     34.87
 62.97   1109.00     33.30
 63.07    943.63     30.72
 63.17    862.36     29.37
 63.27    790.33     28.11
 63.37    681.00     26.10
 63.47    700.00     26.46
 63.57    655.35     25.60
 63.67    632.00     25.14
 63.77    654.00     25.57
 63.87    679.68     26.07
 63.97    657.38     25.64
 64.07    678.00     26.04
 64.17    705.00     26.55
 64.27    734.00     27.09
 64.37    787.00     28.05
 64.47    826.00     28.74
 64.57    993.00     31.51
 64.67   1061.00     32.57
 64.77   1114.00     33.38
 64.87   1226.00     35.01
 64.97   1207.00     34.74
 65.07   1178.09     34.32
 65.17   1276.00     35.72
 65.27   1281.00     35.79
 65.37   1081.00     32.88
 65.47   1050.48     32.41
 65.57    928.09     30.46
 65.67    891.00     29.85
 65.77    882.39     29.71
 65.87    749.00     27.37
 65.97    671.00     25.90
 66.07    702.02     26.50
 66.17    722.17     26.87
 66.27    717.00     26.78
 66.37    629.00     25.08
 66.47    659.00     25.67
 66.57    637.00     25.24
 66.67    643.00     25.36
 66.77    682.25     26.12
 66.87    597.00     24.43
 66.97    656.00     25.61
 67.07    699.91     26.46
 67.17    671.06     25.90
 67.27    683.55     26.14
 67.37    735.40     27.12
 67.47    781.00     27.95
 67.57    801.00     28.30
 67.67    856.00     29.26
 67.77   1102.32     33.20
 67.87   1187.00     34.45
 67.97   1410.00     37.55
 68.07   1658.00     40.72
 68.17   1880.00     43.36
 68.27   2091.00     45.73
 68.37   2278.00     47.73
 68.47   2381.00     48.80
 68.57   2421.00     49.20
 68.67   2379.00     48.77
 68.77   2154.33     46.41
 68.87   1921.55     43.84
 68.97   1674.00     40.91
 69.07   1364.00     36.93
 69.17   1194.05     34.55
 69.27   1017.00     31.89
 69.37    889.00     29.82
 69.47    811.00     28.48
 69.57    751.00     27.40
 69.67    775.58     27.85
 69.77    680.13     26.08
 69.87    671.68     25.92
 69.97    675.00     25.98
 70.07    631.00     25.12
 70.17    610.00     24.70
 70.27    668.00     25.85
 70.37    647.00     25.44
 70.47    630.00     25.10
 70.57    640.00     25.30
 70.67    621.61     24.93
 70.77    588.50     24.26
 70.87    646.18     25.42
 70.97    644.00     25.38
 71.07    701.00     26.48
 71.17    623.00     24.96
 71.27    727.00     26.96
 71.37    731.00     27.04
 71.47    740.08     27.20
 71.57    822.40     28.68
 71.67    939.00     30.64
 71.77    972.00     31.18
 71.87   1173.00     34.25
 71.97   1261.00     35.51
 72.07   1414.00     37.60
 72.17   1597.00     39.96
 72.27   1831.00     42.79
 72.37   1854.00     43.06
 72.47   1868.89     43.23
 72.57   1921.00     43.83
 72.67   1766.00     42.02
 72.77   1687.01     41.07
 72.87   1504.21     38.78
 72.97   1356.00     36.82
 73.07   1181.90     34.38
 73.17   1037.00     32.20
 73.27    990.00     31.46
 73.37    825.19     28.73
 73.47    778.00     27.89
 73.57    693.39     26.33
 73.67    703.00     26.51
 73.77    684.54     26.16
 73.87    649.00     25.48
 73.97    657.00     25.63
 74.07    631.00     25.12
 74.17    628.00     25.06
 74.27    570.49     23.88
 74.37    638.00     25.26
 74.47    637.00     25.24
 74.57    608.00     24.66
 74.67    630.00     25.10
 74.77    638.00     25.26
 74.87    650.00     25.50
 74.97    685.00     26.17
 75.07    628.26     25.07
 75.17    691.00     26.29
 75.27    695.00     26.36
 75.37    675.00     25.98
 75.47    640.28     25.30
 75.57    660.00     25.69
 75.67    620.16     24.90
 75.77    553.09     23.52
 75.87    619.28     24.89
 75.97    620.00     24.90
 76.07    647.00     25.44
 76.17    647.00     25.44
 76.27    672.00     25.92
 76.37    644.62     25.39
 76.47    720.00     26.83
 76.57    743.00     27.26
 76.67    758.00     27.53
 76.77    787.00     28.05
 76.87    865.83     29.42
 76.97    820.00     28.64
 77.07    832.39     28.85
 77.17    870.10     29.50
 77.27    855.25     29.24
 77.37    748.00     27.35
 77.47    743.76     27.27
 77.57    755.42     27.48
 77.67    625.00     25.00
 77.77    682.06     26.12
 77.87    654.00     25.57
 77.97    654.39     25.58
 78.07    625.00     25.00
 78.17    547.00     23.39
 78.27    584.13     24.17
 78.37    533.00     23.09
 78.47    546.00     23.37
 78.57    579.00     24.06
 78.67    542.00     23.28
 78.77    535.00     23.13
 78.87    514.00     22.67
 78.97    542.00     23.28
 79.07    565.00     23.77
 79.17    533.00     23.09
 79.27    542.53     23.29
 79.37    539.00     23.22
 79.47    550.86     23.47
 79.57    575.50     23.99
 79.67    556.00     23.58
 79.77    581.98     24.12
 79.87    555.00     23.56
 79.97    614.00     24.78
 80.07    584.00     24.17
 80.17    601.57     24.53
 80.27    595.00     24.39
 80.37    645.00     25.40
 80.47    667.66     25.84
 80.57    663.27     25.75
 80.67    665.14     25.79
 80.77    736.93     27.15
 80.87    726.74     26.96
 80.97    806.00     28.39
 81.07    818.00     28.60
 81.17    869.98     29.50
 81.27    904.00     30.07
 81.37    917.88     30.30
 81.47   1048.82     32.39
 81.57   1074.00     32.77
 81.67   1003.00     31.67
 81.77   1022.26     31.97
 81.87   1009.96     31.78
 81.97    995.44     31.55
 82.07   1006.00     31.72
 82.17    965.63     31.07
 82.27    916.00     30.27
 82.37    916.05     30.27
 82.47    831.00     28.83
 82.57    729.63     27.01
 82.67    776.39     27.86
 82.77    773.12     27.81
 82.87    661.63     25.72
 82.97    641.00     25.32
 83.07    688.76     26.24
 83.17    607.00     24.64
 83.27    603.00     24.56
 83.37    577.00     24.02
 83.47    649.22     25.48
 83.57    568.00     23.83
 83.67    630.55     25.11
 83.77    602.00     24.54
 83.87    574.00     23.96
 83.97    659.21     25.68
 84.07    588.00     24.25
 84.17    610.83     24.72
 84.27    569.00     23.85
 84.37    608.39     24.67
 84.47    665.49     25.80
 84.57    590.10     24.29
 84.67    590.00     24.29
 84.77    606.58     24.63
 84.87    606.00     24.62
 84.97    593.00     24.35
 85.07    587.00     24.23
 85.17    576.00     24.00
 85.27    630.37     25.11
 85.37    590.00     24.29
 85.47    592.75     24.35
 85.57    566.09     23.79
 85.67    571.00     23.90
 85.77    523.00     22.87
 85.87    575.00     23.98
 85.97    542.52     23.29
 86.07    579.00     24.06
 86.17    597.00     24.43
 86.27    572.20     23.92
 86.37    552.00     23.49
 86.47    620.00     24.90
 86.57    566.00     23.79
 86.67    624.25     24.98
 86.77    620.00     24.90
 86.87    549.65     23.44
 86.97    681.00     26.10
 87.07    611.56     24.73
 87.17    663.00     25.75
 87.27    645.00     25.40
 87.37    639.00     25.28
 87.47    603.44     24.57
 87.57    700.00     26.46
 87.67    606.40     24.63
 87.77    688.00     26.23
 87.87    660.48     25.70
 87.97    679.00     26.06
 88.07    703.44     26.52
 88.17    616.95     24.84
 88.27    687.00     26.21
 88.37    610.63     24.71
 88.47    638.00     25.26
 88.57    650.60     25.51
 88.67    605.00     24.60
 88.77    669.63     25.88
 88.87    596.00     24.41
 88.97    595.00     24.39
 89.07    605.00     24.60
 89.17    578.96     24.06
 89.27    592.73     24.35
 89.37    602.00     24.54
 89.47    584.00     24.17
 89.57    657.00     25.63
 89.67    632.10     25.14
 89.77    653.00     25.55
 89.87    649.82     25.49
 89.97    632.00     25.14
 90.07    601.00     24.52
 90.17    628.00     25.06
 90.27    633.00     25.16
 90.37    612.00     24.74
 90.47    661.16     25.71
 90.57    634.00     25.18
 90.67    619.95     24.90
 90.77    619.60     24.89
 90.87    540.00     23.24
 90.97    563.00     23.73
 91.07    555.00     23.56
 91.17    566.75     23.81
 91.27    527.00     22.96
 91.37    571.00     23.90
 91.47    547.47     23.40
 91.57    516.00     22.72
 91.67    534.14     23.11
 91.77    566.00     23.79
 91.87    587.38     24.24
 91.97    527.00     22.96
 92.07    565.00     23.77
 92.17    586.00     24.21
 92.27    527.00     22.96
 92.37    550.00     23.45
 92.47    559.00     23.64
 92.57    545.00     23.35
 92.67    575.00     23.98
 92.77    631.67     25.13
 92.87    588.74     24.26
 92.97    634.00     25.18
 93.07    677.76     26.03
 93.17    615.00     24.80
 93.27    635.00     25.20
 93.37    696.22     26.39
 93.47    725.00     26.93
 93.57    711.00     26.66
 93.67    757.00     27.51
 93.77    789.54     28.10
 93.87    829.10     28.79
 93.97    776.00     27.86
 94.07    824.00     28.71
 94.17    827.00     28.76
 94.27    833.00     28.86
 94.37    820.11     28.64
 94.47    809.04     28.44
 94.57    930.19     30.50
 94.67    897.19     29.95
 94.77    899.00     29.98
 94.87    955.24     30.91
 94.97    954.00     30.89
 95.07    954.00     30.89
 95.17    968.00     31.11
 95.27    917.00     30.28
 95.37    939.00     30.64
 95.47    976.00     31.24
 95.57    935.00     30.58
 95.67    974.23     31.21
 95.77    928.33     30.47
 95.87    938.00     30.63
 95.97    896.96     29.95
 96.07    807.75     28.42
 96.17    808.00     28.43
 96.27    772.22     27.79
 96.37    719.78     26.83
 96.47    795.00     28.20
 96.57    775.22     27.84
 96.67    736.00     27.13
 96.77    777.00     27.87
 96.87    825.66     28.73
 96.97    897.00     29.95
 97.07    891.90     29.86
 97.17    915.00     30.25
 97.27    980.00     31.30
 97.37    992.01     31.50
 97.47   1055.44     32.49
 97.57   1167.70     34.17
 97.67   1311.60     36.22
 97.77   1386.13     37.23
 97.87   1446.76     38.04
 97.97   1476.00     38.42
 98.07   1564.20     39.55
 98.17   1549.00     39.36
 98.27   1521.00     39.00
 98.37   1550.00     39.37
 98.47   1450.00     38.08
 98.57   1377.00     37.11
 98.67   1398.00     37.39
 98.77   1292.00     35.94
 98.87   1251.00     35.37
 98.97   1203.44     34.69
 99.07   1178.00     34.32
 99.17   1025.23     32.02
 99.27   1010.00     31.78
 99.37    956.00     30.92
 99.47    959.00     30.97
 99.57    991.53     31.49
 99.67    972.92     31.19
 99.77    991.95     31.50
 99.87    974.00     31.21
 99.97   1086.00     32.95
100.07   1120.00     33.47
100.17   1112.00     33.35
100.27   1178.00     34.32
100.37   1328.84     36.45
100.47   1298.00     36.03
100.57   1457.54     38.18
100.67   1586.00     39.82
100.77   1592.00     39.90
100.87   1696.00     41.18
100.97   1840.00     42.90
101.07   1866.04     43.20
101.17   1888.12     43.45
101.27   1947.97     44.14
101.37   2053.00     45.31
101.47   2017.00     44.91
101.57   2136.52     46.22
101.67   2112.00     45.96
101.77   1949.00     44.15
101.87   1965.00     44.33
101.97   1906.00     43.66
102.07   1812.94     42.58
102.17   1830.69     42.79
102.27   1752.77     41.87
102.37   1560.00     39.50
102.47   1497.00     38.69
102.57   1386.00     37.23
102.67   1358.00     36.85
102.77   1308.00     36.17
102.87   1380.49     37.15
102.97   1253.00     35.40
103.07   1238.98     35.20
103.17   1160.16     34.06
103.27   1135.63     33.70
103.37   1128.00     33.59
103.47   1114.73     33.39
103.57   1070.00     32.71
103.67   1051.35     32.42
103.77    961.00     31.00
103.87    973.00     31.19
103.97    973.00     31.19
104.07    971.00     31.16
104.17    859.00     29.31
104.27    828.30     28.78
104.37    797.33     28.24
104.47    728.84     27.00
104.57    715.00     26.74
104.67    737.17     27.15
104.77    665.00     25.79
104.87    688.12     26.23
104.97    658.00     25.65
105.07    651.03     25.52
105.17    643.00     25.36
105.27    603.00     24.56
105.37    601.00     24.52
105.47    630.00     25.10
105.57    579.00     24.06
105.67    609.00     24.68
105.77    583.40     24.15
105.87    548.89     23.43
105.97    533.31     23.09
106.07    562.35     23.71
106.17    661.00     25.71
106.27    597.00     24.43
106.37    581.00     24.10
106.47    591.00     24.31
106.57    600.36     24.50
106.67    619.00     24.88
106.77    566.00     23.79
106.87    650.00     25.50
106.97    621.00     24.92
107.07    602.41     24.54
107.17    621.73     24.93
107.27    648.04     25.46
107.37    625.12     25.00
107.47    716.00     26.76
107.57    692.00     26.31
107.67    706.00     26.57
107.77    714.00     26.72
107.87    714.00     26.72
107.97    774.21     27.82
108.07    732.37     27.06
108.17    731.62     27.05
108.27    712.00     26.68
108.37    761.66     27.60
108.47    699.89     26.46
108.57    790.99     28.12
108.67    696.00     26.38
108.77    706.00     26.57
108.87    740.00     27.20
108.97    734.00     27.09
109.07    660.00     25.69
109.17    709.00     26.63
109.27    788.13     28.07
109.37    738.00     27.17
109.47    695.00     26.36
109.57    670.00     25.88
109.67    749.98     27.39
109.77    784.52     28.01
109.87    796.00     28.21
109.97    777.12     27.88
110.07    716.00     26.76
110.17    717.00     26.78
110.27    706.28     26.58
110.37    682.00     26.12
110.47    675.00     25.98
110.57    650.00     25.50
110.67    666.00     25.81
110.77    668.28     25.85
110.87    653.00     25.55
110.97    651.00     25.51
111.07    617.00     24.84
111.17    622.00     24.94
111.27    641.00     25.32
111.37    643.50     25.37
111.47    566.53     23.80
111.57    572.00     23.92
111.67    551.46     23.48
111.77    589.00     24.27
111.87    574.00     23.96
111.97    603.00     24.56
112.07    556.88     23.60
112.17    568.00     23.83
112.27    593.00     24.35
112.37    587.00     24.23
112.47    587.00     24.23
112.57    538.00     23.19
112.67    569.44     23.86
112.77    589.00     24.27
112.87    634.00     25.18
112.97    605.00     24.60
113.07    589.49     24.28
113.17    549.85     23.45
113.27    574.19     23.96
113.37    574.00     23.96
113.47    591.00     24.31
113.57    585.95     24.21
113.67    638.00     25.26
113.77    626.00     25.02
113.87    625.00     25.00
113.97    598.00     24.45
114.07    679.00     26.06
114.17    709.00     26.63
114.27    654.00     25.57
114.37    693.26     26.33
114.47    714.22     26.72
114.57    692.00     26.31
114.67    738.14     27.17
114.77    784.00     28.00
114.87    881.00     29.68
114.97    973.00     31.19
115.07    933.00     30.55
115.17   1021.28     31.96
115.27   1137.00     33.72
115.37   1276.00     35.72
115.47   1452.00     38.11
115.57   1654.98     40.68
115.67   1836.00     42.85
115.77   1994.00     44.65
115.87   2248.00     47.41
115.97   2600.00     50.99
116.07   2809.00     53.00
116.17   3265.00     57.14
116.27   3513.00     59.27
116.37   3876.00     62.26
116.47   4282.00     65.44
116.57   4558.00     67.51
116.67   4840.00     69.57
116.77   5387.00     73.40
116.87   5704.00     75.52
116.97   6024.81     77.62
117.07   6332.09     79.57
117.17   6831.00     82.65
117.27   6985.00     83.58
117.37   7358.00     85.78
117.47   7273.00     85.28
117.57   7242.00     85.10
117.67   7372.00     85.86
117.77   6962.00     83.44
117.87   7134.33     84.46
117.97   6791.00     82.41
118.07   6465.06     80.41
118.17   6101.00     78.11
118.27   6024.40     77.62
118.37   5503.02     74.18
118.47   5131.75     71.64
118.57   4784.00     69.17
118.67   4397.00     66.31
118.77   4039.00     63.55
118.87   3634.48     60.29
118.97   3350.00     57.88
119.07   2943.00     54.25
119.17   2754.00     52.48
119.27   2498.77     49.99
119.37   2290.39     47.86
119.47   2003.00     44.75
119.57   1794.00     42.36
119.67   1561.00     39.51
119.77   1536.00     39.19
119.87   1380.00     37.15
119.97   1201.64     34.66
120.07   1183.00     34.39
120.17   1070.00     32.71
120.27   1007.00     31.73
120.37    943.73     30.72
120.47    957.00     30.94
120.57    824.68     28.72
120.67    793.99     28.18
120.77    764.14     27.64
120.87    760.00     27.57
120.97    729.00     27.00
121.07    704.97     26.55
121.17    697.76     26.42
121.27    696.00     26.38
121.37    658.08     25.65
121.47    645.76     25.41
121.57    645.79     25.41
121.67    661.00     25.71
121.77    624.35     24.99
121.87    674.05     25.96
121.97    654.00     25.57
122.07    605.00     24.60
122.17    681.49     26.11
122.27    625.00     25.00
122.37    701.72     26.49
122.47    715.91     26.76
122.57    672.00     25.92
122.67    660.00     25.69
122.77    721.18     26.85
122.87    671.00     25.90
122.97    690.00     26.27
123.07    640.90     25.32
123.17    722.00     26.87
123.27    685.00     26.17
123.37    710.00     26.65
123.47    676.00     26.00
123.57    696.00     26.38
123.67    713.91     26.72
123.77    699.61     26.45
123.87    737.00     27.15
123.97    719.00     26.81
124.07    706.00     26.57
124.17    738.98     27.18
124.27    716.00     26.76
124.37    693.00     26.32
124.47    756.00     27.50
124.57    762.00     27.60
124.67    702.00     26.50
124.77    682.48     26.12
124.87    648.26     25.46
124.97    699.00     26.44
