XYDATA



INTER 1.0 1.0 0 0
TEMP 593.114
  9.97    735.00     27.11
 10.07    729.20     27.00
 10.17    646.93     25.43
 10.27    718.00     26.80
 10.37    691.00     26.29
 10.47    672.62     25.93
 10.57    726.00     26.94
 10.67    709.00     26.63
 10.77    708.91     26.63
 10.87    685.00     26.17
 10.97    649.47     25.48
 11.07    722.15     26.87
 11.17    622.32     24.95
 11.27    688.00     26.23
 11.37    684.00     26.15
 11.47    737.00     27.15
 11.57    646.53     25.43
 11.67    741.00     27.22
 11.77    737.00     27.15
 11.87    810.00     28.46
 11.97    726.16     26.95
 12.07    841.00     29.00
 12.17    794.18     28.18
 12.27    816.35     28.57
 12.37    822.00     28.67
 12.47    717.46     26.79
 12.57    764.00     27.64
 12.67    708.00     26.61
 12.77    646.00     25.42
 12.87    639.61     25.29
 12.97    649.00     25.48
 13.07    623.90     24.98
 13.17    646.00     25.42
 13.27    699.65     26.45
 13.37    639.00     25.28
 13.47    646.81     25.43
 13.57    656.00     25.61
 13.67    641.00     25.32
 13.77    684.85     26.17
 13.87    668.00     25.85
 13.97    621.59     24.93
 14.07    595.00     24.39
 14.17    617.00     24.84
 14.27    618.70     24.87
 14.37    604.00     24.58
 14.47    645.00     25.40
 14.57    642.95     25.36
 14.67    593.00     24.35
 14.77    629.00     25.08
 14.87    604.00     24.58
 14.97    591.00     24.31
 15.07    649.88     25.49
 15.17    632.00     25.14
 15.27    625.85     25.02
 15.37    578.00     24.04
 15.47    672.00     25.92
 15.57    640.00     25.30
 15.67    646.59     25.43
 15.77    605.00     24.60
 15.87    623.00     24.96
 15.97    664.00     25.77
 16.07    607.00     24.64
 16.17    626.00     25.02
 16.27    619.00     24.88
 16.37    656.78     25.63
 16.47    649.00     25.48
 16.57    609.00     24.68
 16.67    605.90     24.62
 16.77    574.00     23.96
 16.87    598.00     24.45
 16.97    645.00     25.40
 17.07    589.00     24.27
 17.17    656.61     25.62
 17.27    626.00     25.02
 17.37    637.00     25.24
 17.47    637.00     25.24
 17.57    577.00     24.02
 17.67    617.82     24.86
 17.77    656.87     25.63
 17.87    603.00     24.56
 17.97    598.56     24.47
 18.07    626.00     25.02
 18.17    679.24     26.06
 18.27    604.00     24.58
 18.37    646.61     25.43
 18.47    627.00     25.04
 18.57    586.97     24.23
 18.67    627.00     25.04
 18.77    628.20     25.06
 18.87    648.00     25.46
 18.97    620.00     24.90
 19.07    676.00     26.00
 19.17    647.69     25.45
 19.27    597.00     24.43
 19.37    607.60     24.65
 19.47    580.87     24.10
 19.57    616.00     24.82
 19.67    651.00     25.51
 19.77    597.00     24.43
 19.87    606.00     24.62
 19.97    585.40     24.19
 20.07    608.24     24.66
 20.17    597.00     24.43
 20.27    574.00     23.96
 20.37    641.00     25.32
 20.47    607.00     24.64
 20.57    611.00     24.72
 20.67    607.00     24.64
 20.77    638.00     25.26
 20.87    576.08     24.00
 20.97    584.00     24.17
 21.07    651.58     25.53
 21.17    566.22     23.80
 21.27    617.00     24.84
 21.37    654.75     25.59
 21.47    607.23     24.64
 21.57    643.46     25.37
 21.67    601.00     24.52
 21.77    651.83     25.53
 21.87    545.00     23.35
 21.97    635.00     25.20
 22.07    634.00     25.18
 22.17    560.00     23.66
 22.27    615.00     24.80
 22.37    589.00     24.27
 22.47    624.00     24.98
 22.57    599.00     24.47
 22.67    624.16     24.98
 22.77    623.00     24.96
 22.87    634.00     25.18
 22.97    609.95     24.70
 23.07    607.00     24.64
 23.17    618.26     24.86
 23.27    584.74     24.18
 23.37    617.00     24.84
 23.47    596.00     24.41
 23.57    596.00     24.41
 23.67    648.00     25.46
 23.77    645.00     25.40
 23.87    648.00     25.46
 23.97    662.00     25.73
 24.07    574.31     23.96
 24.17    602.00     24.54
 24.27    616.00     24.82
 24.37    646.38     25.42
 24.47    608.00     24.66
 24.57    702.00     26.50
 24.67    642.00     25.34
 24.77    653.00     25.55
 24.87    694.00     26.34
 24.97    707.00     26.59
 25.07    646.14     25.42
 25.17    669.00     25.87
 25.27    653.54     25.56
 25.37    696.00     26.38
 25.47    626.00     25.02
 25.57    663.00     25.75
 25.67    652.00     25.53
 25.77    583.08     24.15
 25.87    580.35     24.09
 25.97    667.16     25.83
 26.07    608.00     24.66
 26.17    631.00     25.12
 26.27    654.00     25.57
 26.37    608.00     24.66
 26.47    657.00     25.63
 26.57    693.00     26.32
 26.67    647.21     25.44
 26.77    618.00     24.86
 26.87    632.00     25.14
 26.97    627.00     25.04
 27.07    650.69     25.51
 27.17    737.00     27.15
 27.27    622.37     24.95
 27.37    717.00     26.78
 27.47    745.00     27.29
 27.57    715.82     26.75
 27.67    778.00     27.89
 27.77    849.98     29.15
 27.87    958.37     30.96
 27.97   1249.00     35.34
 28.07   1785.00     42.25
 28.17   3017.00     54.93
 28.27   4554.00     67.48
 28.37   5885.00     76.71
 28.47   6321.63     79.51
 28.57   5603.00     74.85
 28.67   4148.00     64.40
 28.77   3045.00     55.18
 28.87   2720.50     52.16
 28.97   3211.00     56.67
 29.07   3605.00     60.04
 29.17   3599.00     59.99
 29.27   3108.00     55.75
 29.37   2454.12     49.54
 29.47   1649.00     40.61
 29.57   1270.00     35.64
 29.67    977.96     31.27
 29.77    884.00     29.73
 29.87    782.33     27.97
 29.97    794.00     28.18
 30.07    764.00     27.64
 30.17    657.87     25.65
 30.27    677.00     26.02
 30.37    763.00     27.62
 30.47    708.00     26.61
 30.57    690.00     26.27
 30.67    603.03     24.56
 30.77    672.00     25.92
 30.87    670.51     25.89
 30.97    697.00     26.40
 31.07    752.00     27.42
 31.17    721.33     26.86
 31.27    754.00     27.46
 31.37    730.00     27.02
 31.47    660.77     25.71
 31.57    656.66     25.63
 31.67    683.00     26.13
 31.77    662.00     25.73
 31.87    668.00     25.85
 31.97    603.00     24.56
 32.07    570.26     23.88
 32.17    644.00     25.38
 32.27    591.00     24.31
 32.37    603.77     24.57
 32.47    651.00     25.51
 32.57    554.15     23.54
 32.67    625.53     25.01
 32.77    615.00     24.80
 32.87    570.86     23.89
 32.97    625.00     25.00
 33.07    572.00     23.92
 33.17    615.00     24.80
 33.27    583.00     24.15
 33.37    644.48     25.39
 33.47    577.00     24.02
 33.57    658.00     25.65
 33.67    633.07     25.16
 33.77    687.78     26.23
 33.87    705.00     26.55
 33.97    905.09     30.08
 34.07    998.00     31.59
 34.17   1088.00     32.98
 34.27   1213.48     34.84
 34.37   1169.00     34.19
 34.47   1119.00     33.45
 34.57    959.52     30.98
 34.67    871.35     29.52
 34.77    693.08     26.33
 34.87    678.00     26.04
 34.97    624.37     24.99
 35.07    595.00     24.39
 35.17    563.50     23.74
 35.27    601.98     24.54
 35.37    564.00     23.75
 35.47    593.00     24.35
 35.57    562.29     23.71
 35.67    625.64     25.01
 35.77    566.00     23.79
 35.87    596.00     24.41
 35.97    610.38     24.71
 36.07    587.00     24.23
 36.17    595.00     24.39
 36.27    631.00     25.12
 36.37    597.00     24.43
 36.47    613.00     24.76
 36.57    604.00     24.58
 36.67    593.00     24.35
 36.77    584.00     24.17
 36.87    577.00     24.02
 36.97    515.00     22.69
 37.07    613.00     24.76
 37.17    581.00     24.10
 37.27    555.43     23.57
 37.37    549.18     23.43
 37.47    620.41     24.91
 37.57    542.86     23.30
 37.67    599.00     24.47
 37.77    598.33     24.46
 37.87    619.44     24.89
 37.97    652.00     25.53
 38.07    663.97     25.77
 38.17    688.00     26.23
 38.27    725.00     26.93
 38.37    733.65     27.09
 38.47    697.00     26.40
 38.57    640.00     25.30
 38.67    654.04     25.57
 38.77    638.00     25.26
 38.87    579.66     24.08
 38.97    545.00     23.35
 39.07    556.42     23.59
 39.17    547.47     23.40
 39.27    586.00     24.21
 39.37    558.00     23.62
 39.47    587.00     24.23
 39.57    554.00     23.54
 39.67    584.00     24.17
 39.77    552.00     23.49
 39.87    550.00     23.45
 39.97    573.00     23.94
 40.07    607.41     24.65
 40.17    587.00     24.23
 40.27    567.00     23.81
 40.37    633.00     25.16
 40.47    540.00     23.24
 40.57    558.16     23.63
 40.67    616.38     24.83
 40.77    579.48     24.07
 40.87    533.21     23.09
 40.97    561.47     23.70
 41.07    553.00     23.52
 41.17    574.00     23.96
 41.27    589.00     24.27
 41.37    612.66     24.75
 41.47    590.00     24.29
 41.57    618.99     24.88
 41.67    590.98     24.31
 41.77    560.06     23.67
 41.87    577.68     24.03
 41.97    603.00     24.56
 42.07    605.66     24.61
 42.17    555.00     23.56
 42.27    575.53     23.99
 42.37    563.00     23.73
 42.47    636.01     25.22
 42.57    590.10     24.29
 42.67    620.00     24.90
 42.77    624.63     24.99
 42.87    664.85     25.78
 42.97    672.00     25.92
 43.07    674.00     25.96
 43.17    620.00     24.90
 43.27    672.00     25.92
 43.37    666.00     25.81
 43.47    578.18     24.05
 43.57    648.00     25.46
 43.67    622.13     24.94
 43.77    575.00     23.98
 43.87    617.00     24.84
 43.97    624.92     25.00
 44.07    558.00     23.62
 44.17    584.00     24.17
 44.27    609.00     24.68
 44.37    565.00     23.77
 44.47    602.00     24.54
 44.57    605.00     24.60
 44.67    564.00     23.75
 44.77    602.80     24.55
 44.87    591.00     24.31
 44.97    585.00     24.19
 45.07    560.15     23.67
 45.17    624.15     24.98
 45.27    593.00     24.35
 45.37    536.88     23.17
 45.47    576.14     24.00
 45.57    594.00     24.37
 45.67    570.00     23.87
 45.77    578.00     24.04
 45.87    579.16     24.07
 45.97    574.00     23.96
 46.07    547.57     23.40
 46.17    630.00     25.10
 46.27    595.00     24.39
 46.37    566.10     23.79
 46.47    562.66     23.72
 46.57    582.62     24.14
 46.67    591.00     24.31
 46.77    574.00     23.96
 46.87    553.00     23.52
 46.97    608.00     24.66
 47.07    603.00     24.56
 47.17    580.00     24.08
 47.27    555.04     23.56
 47.37    561.52     23.70
 47.47    550.00     23.45
 47.57    576.00     24.00
 47.67    597.00     24.43
 47.77    646.57     25.43
 47.87    642.57     25.35
 47.97    604.56     24.59
 48.07    683.70     26.15
 48.17    651.67     25.53
 48.27    661.00     25.71
 48.37    612.00     24.74
 48.47    653.00     25.55
 48.57    639.06     25.28
 48.67    609.00     24.68
 48.77    597.47     24.44
 48.87    620.80     24.92
 48.97    655.00     25.59
 49.07    609.00     24.68
 49.17    580.24     24.09
 49.27    612.00     24.74
 49.37    612.13     24.74
 49.47    639.00     25.28
 49.57    697.32     26.41
 49.67    722.43     26.88
 49.77    727.47     26.97
 49.87    898.29     29.97
 49.97    972.00     31.18
 50.07   1268.00     35.61
 50.17   1653.00     40.66
 50.27   2101.10     45.84
 50.37   2518.00     50.18
 50.47   3013.54     54.90
 50.57   2913.00     53.97
 50.67   2672.00     51.69
 50.77   2413.35     49.13
 50.87   1850.00     43.01
 50.97   1522.52     39.02
 51.07   1165.00     34.13
 51.17    946.00     30.76
 51.27    885.00     29.75
 51.37    807.00     28.41
 51.47    676.72     26.01
 51.57    762.86     27.62
 51.67    779.00     27.91
 51.77    645.36     25.40
 51.87    711.00     26.66
 51.97    692.00     26.31
 52.07    705.00     26.55
 52.17    606.24     24.62
 52.27    681.52     26.11
 52.37    599.20     24.48
 52.47    642.00     25.34
 52.57    667.00     25.83
 52.67    680.13     26.08
 52.77    668.00     25.85
 52.87    694.00     26.34
 52.97    681.63     26.11
 53.07    680.58     26.09
 53.17    722.00     26.87
 53.27    789.00     28.09
 53.37    777.00     27.87
 53.47    938.00     30.63
 53.57    979.00     31.29
 53.67   1107.61     33.28
 53.77   1234.00     35.13
 53.87   1310.81     36.21
 53.97   1217.00     34.89
 54.07   1286.77     35.87
 54.17   1151.00     33.93
 54.27   1023.36     31.99
 54.37    896.00     29.93
 54.47    838.64     28.96
 54.57    806.56     28.40
 54.67    767.95     27.71
 54.77    713.78     26.72
 54.87    683.00     26.13
 54.97    682.75     26.13
 55.07    589.00     24.27
 55.17    647.00     25.44
 55.27    633.04     25.16
 55.37    697.67     26.41
 55.47    687.00     26.21
 55.57    648.00     25.46
 55.67    669.00     25.87
 55.77    689.00     26.25
 55.87    641.48     25.33
 55.97    722.27     26.88
 56.07    666.53     25.82
 56.17    653.21     25.56
 56.27    734.00     27.09
 56.37    776.00     27.86
 56.47    844.60     29.06
 56.57    927.38     30.45
 56.67   1225.28     35.00
 56.77   1402.00     37.44
 56.87   1596.95     39.96
 56.97   2109.00     45.92
 57.07   2242.73     47.36
 57.17   2570.00     50.70
 57.27   2756.00     52.50
 57.37   2663.78     51.61
 57.47   2460.00     49.60
 57.57   2082.07     45.63
 57.67   1740.00     41.71
 57.77   1511.49     38.88
 57.87   1155.00     33.99
 57.97    967.00     31.10
 58.07    902.00     30.03
 58.17    838.99     28.97
 58.27    779.00     27.91
 58.37    748.85     27.37
 58.47    809.00     28.44
 58.57    778.14     27.90
 58.67    855.00     29.24
 58.77    975.65     31.24
 58.87    936.00     30.59
 58.97   1046.00     32.34
 59.07   1127.88     33.58
 59.17   1221.00     34.94
 59.27   1306.00     36.14
 59.37   1325.00     36.40
 59.47   1319.00     36.32
 59.57   1383.00     37.19
 59.67   1244.00     35.27
 59.77   1298.00     36.03
 59.87   1164.67     34.13
 59.97   1186.00     34.44
 60.07   1153.24     33.96
 60.17   1291.00     35.93
 60.27   1325.32     36.40
 60.37   1449.00     38.07
 60.47   1502.00     38.76
 60.57   1510.11     38.86
 60.67   1581.00     39.76
 60.77   1599.00     39.99
 60.87   1444.19     38.00
 60.97   1340.00     36.61
 61.07   1221.00     34.94
 61.17   1011.00     31.80
 61.27    914.13     30.23
 61.37    908.00     30.13
 61.47    820.95     28.65
 61.57    817.00     28.58
 61.67    780.00     27.93
 61.77    798.00     28.25
 61.87    866.00     29.43
 61.97    940.55     30.67
 62.07   1036.00     32.19
 62.17   1209.11     34.77
 62.27   1347.00     36.70
 62.37   1468.00     38.31
 62.47   1675.47     40.93
 62.57   1689.15     41.10
 62.67   1580.00     39.75
 62.77   1550.00     39.37
 62.87   1476.00     38.42
 62.97   1237.79     35.18
 63.07   1169.00     34.19
 63.17   1080.70     32.87
 63.27    858.15     29.29
 63.37    836.75     28.93
 63.47    777.00     27.87
 63.57    769.00     27.73
 63.67    748.00     27.35
 63.77    735.22     27.12
 63.87    710.00     26.65
 63.97    638.22     25.26
 64.07    686.00     26.19
 64.17    744.45     27.28
 64.27    686.00     26.19
 64.37    844.00     29.05
 64.47    870.00     29.50
 64.57    935.29     30.58
 64.67    946.88     30.77
 64.77   1131.34     33.64
 64.87   1276.00     35.72
 64.97   1234.70     35.14
 65.07   1406.00     37.50
 65.17   1361.72     36.90
 65.27   1394.00     37.34
 65.37   1337.00     36.57
 65.47   1316.00     36.28
 65.57   1099.00     33.15
 65.67   1100.00     33.17
 65.77    967.00     31.10
 65.87    920.25     30.34
 65.97    827.00     28.76
 66.07    780.00     27.93
 66.17    716.00     26.76
 66.27    716.00     26.76
 66.37    671.00     25.90
 66.47    690.82     26.28
 66.57    647.00     25.44
 66.67    707.15     26.59
 66.77    634.88     25.20
 66.87    725.42     26.93
 66.97    702.25     26.50
 67.07    675.00     25.98
 67.17    665.00     25.79
 67.27    707.00     26.59
 67.37    730.00     27.02
 67.47    767.00     27.69
 67.57    757.00     27.51
 67.67    853.00     29.21
 67.77   1031.74     32.12
 67.87   1157.00     34.01
 67.97   1249.00     35.34
 68.07   1473.00     38.38
 68.17   1665.00     40.80
 68.27   2043.00     45.20
 68.37   2183.82     46.73
 68.47   2464.83     49.65
 68.57   2495.00     49.95
 68.67   2403.35     49.02
 68.77   2337.32     48.35
 68.87   2184.00     46.73
 68.97   1889.00     43.46
 69.07   1697.00     41.19
 69.17   1452.33     38.11
 69.27   1168.00     34.18
 69.37   1127.00     33.57
 69.47    985.00     31.38
 69.57    903.65     30.06
 69.67    775.04     27.84
 69.77    827.00     28.76
 69.87    728.95     27.00
 69.97    711.00     26.66
 70.07    738.00     27.17
 70.17    726.00     26.94
 70.27    755.00     27.48
 70.37    634.78     25.19
 70.47    677.00     26.02
 70.57    711.00     26.66
 70.67    706.89     26.59
 70.77    656.77     25.63
 70.87    654.00     25.57
 70.97    712.25     26.69
 71.07    653.00     25.55
 71.17    686.00     26.19
 71.27    656.00     25.61
 71.37    724.00     26.91
 71.47    785.00     28.02
 71.57    845.39     29.08
 71.67    815.00     28.55
 71.77    910.40     30.17
 71.87   1128.61     33.59
 71.97   1236.00     35.16
 72.07   1393.06     37.32
 72.17   1517.00     38.95
 72.27   1724.00     41.52
 72.37   1806.00     42.50
 72.47   1942.00     44.07
 72.57   1958.84     44.26
 72.67   1901.00     43.60
 72.77   1769.00     42.06
 72.87   1668.91     40.85
 72.97   1509.00     38.85
 73.07   1322.00     36.36
 73.17   1168.00     34.18
 73.27   1100.52     33.17
 73.37    937.00     30.61
 73.47    876.00     29.60
 73.57    756.42     27.50
 73.67    724.07     26.91
 73.77    665.00     25.79
 73.87    673.27     25.95
 73.97    680.00     26.08
 74.07    610.18     24.70
 74.17    636.00     25.22
 74.27    643.00     25.36
 74.37    646.00     25.42
 74.47    677.85     26.04
 74.57    625.00     25.00
 74.67    653.00     25.55
 74.77    654.00     25.57
 74.87    622.00     24.94
 74.97    707.00     26.59
 75.07    642.56     25.35
 75.17    624.01     24.98
 75.27    617.28     24.85
 75.37    682.00     26.12
 75.47    671.00     25.90
 75.57    707.00     26.59
 75.67    699.00     26.44
 75.77    595.74     24.41
 75.87    695.00     26.36
 75.97    700.91     26.47
 76.07    626.00     25.02
 76.17    633.00     25.16
 76.27    708.00     26.61
 76.37    685.00     26.17
 76.47    699.61     26.45
 76.57    728.87     27.00
 76.67    807.00     28.41
 76.77    810.37     28.47
 76.87    864.00     29.39
 76.97    960.00     30.98
 77.07    916.00     30.27
 77.17    921.25     30.35
 77.27    905.00     30.08
 77.37    915.00     30.25
 77.47    807.00     28.41
 77.57    832.52     28.85
 77.67    746.06     27.31
 77.77    766.00     27.68
 77.87    755.00     27.48
 77.97    704.00     26.53
 78.07    709.28     26.63
 78.17    700.48     26.47
 78.27    622.00     24.94
 78.37    581.27     24.11
 78.47    641.00     25.32
 78.57    574.00     23.96
 78.67    614.00     24.78
 78.77    627.70     25.05
 78.87    572.00     23.92
 78.97    672.00     25.92
 79.07    615.00     24.80
 79.17    583.00     24.15
 79.27    573.00     23.94
 79.37    592.00     24.33
 79.47    581.00     24.10
 79.57    583.74     24.16
 79.67    633.00     25.16
 79.77    606.00     24.62
 79.87    619.06     24.88
 79.97    650.12     25.50
 80.07    665.54     25.80
 80.17    633.00     25.16
 80.27    660.09     25.69
 80.37    709.00     26.63
 80.47    659.00     25.67
 80.57    699.00     26.44
 80.67    674.27     25.97
 80.77    788.81     28.09
 80.87    852.00     29.19
 80.97    846.00     29.09
 81.07    886.00     29.77
 81.17   1027.00     32.05
 81.27   1074.00     32.77
 81.37   1132.95     33.66
 81.47   1137.03     33.72
 81.57   1217.00     34.89
 81.67   1257.00     35.45
 81.77   1229.67     35.07
 81.87   1310.00     36.19
 81.97   1210.00     34.79
 82.07   1085.62     32.95
 82.17   1121.00     33.48
 82.27   1079.00     32.85
 82.37   1043.00     32.30
 82.47    964.74     31.06
 82.57    923.00     30.38
 82.67    841.00     29.00
 82.77    827.00     28.76
 82.87    718.00     26.80
 82.97    765.40     27.67
 83.07    773.87     27.82
 83.17    689.46     26.26
 83.27    640.00     25.30
 83.37    659.00     25.67
 83.47    600.00     24.49
 83.57    662.34     25.74
 83.67    634.00     25.18
 83.77    601.00     24.52
 83.87    620.16     24.90
 83.97    605.00     24.60
 84.07    608.00     24.66
 84.17    609.00     24.68
 84.27    597.00     24.43
 84.37    656.00     25.61
 84.47    620.30     24.91
 84.57    626.00     25.02
 84.67    698.35     26.43
 84.77    626.00     25.02
 84.87    680.14     26.08
 84.97    636.00     25.22
 85.07    609.38     24.69
 85.17    650.50     25.50
 85.27    582.00     24.12
 85.37    587.00     24.23
 85.47    596.05     24.41
 85.57    577.00     24.02
 85.67    591.65     24.32
 85.77    632.00     25.14
 85.87    554.00     23.54
 85.97    613.18     24.76
 86.07    610.00     24.70
 86.17    596.00     24.41
 86.27    602.00     24.54
 86.37    589.03     24.27
 86.47    624.00     24.98
 86.57    623.00     24.96
 86.67    620.00     24.90
 86.77    633.16     25.16
 86.87    618.57     24.87
 86.97    660.00     25.69
 87.07    633.00     25.16
 87.17    630.00     25.10
 87.27    652.00     25.53
 87.37    629.80     25.10
 87.47    661.17     25.71
 87.57    674.00     25.96
 87.67    676.00     26.00
 87.77    649.94     25.49
 87.87    661.00     25.71
 87.97    679.00     26.06
 88.07    654.83     25.59
 88.17    698.00     26.42
 88.27    741.95     27.24
 88.37    672.00     25.92
 88.47    690.87     26.28
 88.57    651.00     25.51
 88.67    643.01     25.36
 88.77    701.00     26.48
 88.87    634.00     25.18
 88.97    623.00     24.96
 89.07    655.80     25.61
 89.17    654.19     25.58
 89.27    657.00     25.63
 89.37    631.86     25.14
 89.47    661.00     25.71
 89.57    636.65     25.23
 89.67    633.00     25.16
 89.77    662.00     25.73
 89.87    700.71     26.47
 89.97    654.00     25.57
 90.07    656.00     25.61
 90.17    647.14     25.44
 90.27    621.85     24.94
 90.37    704.38     26.54
 90.47    675.74     25.99
 90.57    611.00     24.72
 90.67    611.00     24.72
 90.77    624.00     24.98
 90.87    613.95     24.78
 90.97    582.00     24.12
 91.07    578.54     24.05
 91.17    579.00     24.06
 91.27    610.00     24.70
 91.37    579.00     24.06
 91.47    569.00     23.85
 91.57    570.89     23.89
 91.67    584.84     24.18
 91.77    554.00     23.54
 91.87    584.00     24.17
 91.97    614.00     24.78
 92.07    623.00     24.96
 92.17    535.00     23.13
 92.27    593.00     24.35
 92.37    612.00     24.74
 92.47    557.00     23.60
 92.57    575.86     24.00
 92.67    649.00     25.48
 92.77    595.27     24.40
 92.87    680.00     26.08
 92.97    608.00     24.66
 93.07    649.00     25.48
 93.17    678.00     26.04
 93.27    644.99     25.40
 93.37    681.79     26.11
 93.47    688.97     26.25
 93.57    799.00     28.27
 93.67    724.00     26.91
 93.77    804.09     28.36
 93.87    754.00     27.46
 93.97    828.73     28.79
 94.07    867.20     29.45
 94.17    831.00     28.83
 94.27    836.00     28.91
 94.37    841.84     29.01
 94.47    879.00     29.65
 94.57    883.00     29.72
 94.67    883.00     29.72
 94.77    920.00     30.33
 94.87    898.00     29.97
 94.97    963.00     31.03
 95.07    945.00     30.74
 95.17    929.43     30.49
 95.27    944.43     30.73
 95.37   1004.12     31.69
 95.47    997.00     31.58
 95.57    980.00     31.30
 95.67   1008.00     31.75
 95.77    996.00     31.56
 95.87    981.22     31.32
 95.97    939.00     30.64
 96.07    969.85     31.14
 96.17    891.00     29.85
 96.27    833.00     28.86
 96.37    848.00     29.12
 96.47    857.00     29.27
 96.57    854.00     29.22
 96.67    811.00     28.48
 96.77    864.00     29.39
 96.87    752.87     27.44
 96.97    826.42     28.75
 97.07    885.00     29.75
 97.17    823.22     28.69
 97.27    991.00     31.48
 97.37    948.96     30.81
 97.47   1111.00     33.33
 97.57   1132.00     33.65
 97.67   1186.00     34.44
 97.77   1298.64     36.04
 97.87   1352.00     36.77
 97.97   1344.22     36.66
 98.07   1532.00     39.14
 98.17   1562.00     39.52
 98.27   1477.55     38.44
 98.37   1534.00     39.17
 98.47   1505.17     38.80
 98.57   1584.00     39.80
 98.67   1500.00     38.73
 98.77   1438.00     37.92
 98.87   1425.00     37.75
 98.97   1329.60     36.46
 99.07   1287.00     35.87
 99.17   1251.40     35.38
 99.27   1083.00     32.91
 99.37   1091.00     33.03
 99.47   1035.79     32.18
 99.57    993.00     31.51
 99.67   1005.71     31.71
 99.77   1017.00     31.89
 99.87    938.00     30.63
 99.97    942.99     30.71
100.07   1191.00     34.51
100.17   1090.92     33.03
100.27   1191.00     34.51
100.37   1144.30     33.83
100.47   1287.00     35.87
100.57   1379.00     37.13
100.67   1471.00     38.35
100.77   1579.00     39.74
100.87   1582.07     39.78
100.97   1760.00     41.95
101.07   1929.00     43.92
101.17   1978.00     44.47
101.27   1925.88     43.88
101.37   2006.00     44.79
101.47   2080.92     45.62
101.57   2110.00     45.93
101.67   2234.00     47.27
101.77   2147.00     46.34
101.87   2129.00     46.14
101.97   2047.33     45.25
102.07   1995.00     44.67
102.17   2002.48     44.75
102.27   1732.00     41.62
102.37   1740.00     41.71
102.47   1690.00     41.11
102.57   1650.00     40.62
102.67   1476.00     38.42
102.77   1563.38     39.54
102.87   1493.31     38.64
102.97   1374.00     37.07
103.07   1438.71     37.93
103.17   1244.00     35.27
103.27   1258.03     35.47
103.37   1233.00     35.11
103.47   1189.00     34.48
103.57   1162.00     34.09
103.67   1098.00     33.14
103.77   1115.74     33.40
103.87   1119.00     33.45
103.97   1023.00     31.98
104.07   1083.42     32.92
104.17    954.00     30.89
104.27    871.45     29.52
104.37    849.00     29.14
104.47    882.00     29.70
104.57    806.96     28.41
104.67    744.00     27.28
104.77    797.00     28.23
104.87    758.43     27.54
104.97    732.00     27.06
105.07    677.09     26.02
105.17    655.29     25.60
105.27    598.85     24.47
105.37    661.00     25.71
105.47    652.00     25.53
105.57    647.00     25.44
105.67    591.00     24.31
105.77    631.00     25.12
105.87    606.00     24.62
105.97    584.88     24.18
106.07    646.00     25.42
106.17    612.70     24.75
106.27    601.92     24.53
106.37    598.31     24.46
106.47    622.00     24.94
106.57    595.00     24.39
106.67    637.00     25.24
106.77    591.00     24.31
106.87    656.00     25.61
106.97    654.04     25.57
107.07    635.92     25.22
107.17    644.00     25.38
107.27    674.00     25.96
107.37    705.00     26.55
107.47    702.66     26.51
107.57    747.00     27.33
107.67    704.26     26.54
107.77    738.00     27.17
107.87    757.00     27.51
107.97    755.49     27.49
108.07    738.00     27.17
108.17    715.00     26.74
108.27    795.00     28.20
108.37    751.00     27.40
108.47    777.00     27.87
108.57    795.00     28.20
108.67    742.00     27.24
108.77    776.81     27.87
108.87    776.34     27.86
108.97    710.66     26.66
109.07    721.02     26.85
109.17    710.78     26.66
109.27    788.00     28.07
109.37    770.57     27.76
109.47    784.37     28.01
109.57    738.00     27.17
109.67    769.00     27.73
109.77    709.69     26.64
109.87    741.00     27.22
109.97    754.00     27.46
110.07    736.00     27.13
110.17    711.00     26.66
110.27    673.00     25.94
110.37    744.00     27.28
110.47    777.36     27.88
110.57    770.62     27.76
110.67    697.00     26.40
110.77    693.00     26.32
110.87    681.00     26.10
110.97    670.24     25.89
111.07    656.00     25.61
111.17    702.56     26.51
111.27    679.00     26.06
111.37    681.00     26.10
111.47    606.35     24.62
111.57    640.00     25.30
111.67    623.00     24.96
111.77    634.00     25.18
111.87    645.00     25.40
111.97    570.00     23.87
112.07    594.00     24.37
112.17    598.00     24.45
112.27    606.00     24.62
112.37    654.00     25.57
112.47    637.96     25.26
112.57    605.83     24.61
112.67    630.39     25.11
112.77    544.41     23.33
112.87    589.00     24.27
112.97    616.00     24.82
113.07    583.91     24.16
113.17    631.00     25.12
113.27    639.00     25.28
113.37    586.00     24.21
113.47    606.00     24.62
113.57    583.04     24.15
113.67    600.79     24.51
113.77    637.00     25.24
113.87    586.00     24.21
113.97    681.34     26.10
114.07    615.07     24.80
114.17    687.91     26.23
114.27    650.56     25.51
114.37    710.51     26.66
114.47    663.00     25.75
114.57    706.00     26.57
114.67    744.00     27.28
114.77    776.00     27.86
114.87    753.00     27.44
114.97    789.00     28.09
115.07    898.07     29.97
115.17    950.00     30.82
115.27    984.00     31.37
115.37   1095.00     33.09
115.47   1208.46     34.76
115.57   1283.00     35.82
115.67   1482.00     38.50
115.77   1613.00     40.16
115.87   1868.00     43.22
115.97   2122.00     46.07
116.07   2391.00     48.90
116.17   2597.00     50.96
116.27   2956.39     54.37
116.37   3222.00     56.76
116.47   3474.22     58.94
116.57   3917.00     62.59
116.67   4337.00     65.86
116.77   4740.00     68.85
116.87   5031.67     70.93
116.97   5408.00     73.54
117.07   5859.46     76.55
117.17   6283.00     79.27
117.27   6710.65     81.92
117.37   6892.00     83.02
117.47   6945.26     83.34
117.57   7290.00     85.38
117.67   7469.00     86.42
117.77   7374.00     85.87
117.87   7351.44     85.74
117.97   7200.76     84.86
118.07   7125.66     84.41
118.17   6977.00     83.53
118.27   6437.00     80.23
118.37   6189.74     78.67
118.47   6082.00     77.99
118.57   5617.00     74.95
118.67   5299.00     72.79
118.77   4841.00     69.58
118.87   4505.00     67.12
118.97   4163.00     64.52
119.07   3876.00     62.26
119.17   3465.00     58.86
119.27   3226.00     56.80
119.37   2900.00     53.85
119.47   2476.00     49.76
119.57   2304.00     48.00
119.67   2074.16     45.54
119.77   1784.60     42.24
119.87   1670.00     40.87
119.97   1530.05     39.12
120.07   1483.00     38.51
120.17   1280.22     35.78
120.27   1118.00     33.44
120.37   1104.00     33.23
120.47   1052.00     32.43
120.57    994.06     31.53
120.67    884.10     29.73
120.77    924.00     30.40
120.87    803.27     28.34
120.97    839.00     28.97
121.07    831.00     28.83
121.17    782.00     27.96
121.27    785.84     28.03
121.37    726.00     26.94
121.47    697.00     26.40
121.57    691.00     26.29
121.67    712.00     26.68
121.77    703.00     26.51
121.87    690.00     26.27
121.97    714.35     26.73
122.07    673.00     25.94
122.17    652.22     25.54
122.27    682.86     26.13
122.37    635.38     25.21
122.47    638.00     25.26
122.57    649.00     25.48
122.67    625.00     25.00
122.77    665.00     25.79
122.87    691.32     26.29
122.97    741.06     27.22
123.07    725.00     26.93
123.17    688.00     26.23
123.27    702.00     26.50
123.37    714.00     26.72
123.47    680.00     26.08
123.57    751.52     27.41
123.67    724.21     26.91
123.77    725.55     26.94
123.87    751.78     27.42
123.97    722.17     26.87
124.07    726.10     26.95
124.17    778.00     27.89
124.27    732.00     27.06
124.37    821.00     28.65
124.47    761.00     27.59
124.57    700.03     26.46
124.67    712.72     26.70
124.77    760.00     27.57
124.87    810.00     28.46
124.97    765.00     27.66
