XYDATA



INTER 1.0 1.0 0 0
TEMP 840.104
  9.97    606.00     24.62
 10.07    508.81     22.56
 10.17    530.03     23.02
 10.27    605.00     24.60
 10.37    585.41     24.20
 10.47    595.00     24.39
 10.57    526.26     22.94
 10.67    588.00     24.25
 10.77    523.64     22.88
 10.87    597.00     24.43
 10.97    563.93     23.75
 11.07    520.60     22.82
 11.17    631.00     25.12
 11.27    551.00     23.47
 11.37    573.00     23.94
 11.47    591.00     24.31
 11.57    644.00     25.38
 11.67    571.00     23.90
 11.77    617.00     24.84
 11.87    596.00     24.41
 11.97    640.52     25.31
 12.07    691.01     26.29
 12.17    656.00     25.61
 12.27    653.00     25.55
 12.37    679.00     26.06
 12.47    620.60     24.91
 12.57    650.00     25.50
 12.67    580.52     24.09
 12.77    539.00     23.22
 12.87    597.00     24.43
 12.97    585.00     24.19
 13.07    535.52     23.14
 13.17    584.00     24.17
 13.27    558.90     23.64
 13.37    529.23     23.01
 13.47    598.48     24.46
 13.57    563.00     23.73
 13.67    565.00     23.77
 13.77    520.76     22.82
 13.87    547.92     23.41
 13.97    569.00     23.85
 14.07    530.16     23.03
 14.17    585.63     24.20
 14.27    545.00     23.35
 14.37    587.00     24.23
 14.47    565.00     23.77
 14.57    576.00     24.00
 14.67    545.00     23.35
 14.77    548.00     23.41
 14.87    533.00     23.09
 14.97    529.00     23.00
 15.07    580.64     24.10
 15.17    541.00     23.26
 15.27    544.00     23.32
 15.37    570.31     23.88
 15.47    557.00     23.60
 15.57    599.00     24.47
 15.67    530.33     23.03
 15.77    583.89     24.16
 15.87    525.00     22.91
 15.97    533.00     23.09
 16.07    594.09     24.37
 16.17    546.00     23.37
 16.27    545.21     23.35
 16.37    589.95     24.29
 16.47    584.00     24.17
 16.57    577.00     24.02
 16.67    577.00     24.02
 16.77    568.00     23.83
 16.87    542.00     23.28
 16.97    559.00     23.64
 17.07    530.62     23.04
 17.17    570.55     23.89
 17.27    523.48     22.88
 17.37    541.00     23.26
 17.47    520.00     22.80
 17.57    544.00     23.32
 17.67    597.00     24.43
 17.77    529.00     23.00
 17.87    532.00     23.07
 17.97    534.00     23.11
 18.07    542.00     23.28
 18.17    562.00     23.71
 18.27    531.00     23.04
 18.37    520.00     22.80
 18.47    518.00     22.76
 18.57    533.01     23.09
 18.67    548.00     23.41
 18.77    551.00     23.47
 18.87    568.23     23.84
 18.97    552.55     23.51
 19.07    545.00     23.35
 19.17    568.00     23.83
 19.27    539.91     23.24
 19.37    571.00     23.90
 19.47    530.00     23.02
 19.57    596.00     24.41
 19.67    517.00     22.74
 19.77    550.61     23.47
 19.87    536.00     23.15
 19.97    551.00     23.47
 20.07    570.00     23.87
 20.17    564.00     23.75
 20.27    538.00     23.19
 20.37    525.02     22.91
 20.47    537.00     23.17
 20.57    522.00     22.85
 20.67    523.42     22.88
 20.77    518.96     22.78
 20.87    527.00     22.96
 20.97    515.00     22.69
 21.07    537.23     23.18
 21.17    546.79     23.38
 21.27    590.00     24.29
 21.37    539.90     23.24
 21.47    584.00     24.17
 21.57    556.69     23.59
 21.67    534.00     23.11
 21.77    560.00     23.66
 21.87    554.42     23.55
 21.97    496.00     22.27
 22.07    532.00     23.07
 22.17    561.64     23.70
 22.27    529.00     23.00
 22.37    523.77     22.89
 22.47    533.00     23.09
 22.57    578.00     24.04
 22.67    522.19     22.85
 22.77    521.26     22.83
 22.87    534.00     23.11
 22.97    526.32     22.94
 23.07    545.00     23.35
 23.17    615.00     24.80
 23.27    605.74     24.61
 23.37    570.00     23.87
 23.47    567.00     23.81
 23.57    545.00     23.35
 23.67    592.69     24.35
 23.77    580.00     24.08
 23.87    594.00     24.37
 23.97    557.00     23.60
 24.07    541.00     23.26
 24.17    567.00     23.81
 24.27    589.00     24.27
 24.37    583.00     24.15
 24.47    584.00     24.17
 24.57    572.00     23.92
 24.67    593.47     24.36
 24.77    622.96     24.96
 24.87    629.64     25.09
 24.97    651.00     25.51
 25.07    613.99     24.78
 25.17    601.36     24.52
 25.27    603.05     24.56
 25.37    597.00     24.43
 25.47    555.00     23.56
 25.57    564.13     23.75
 25.67    611.00     24.72
 25.77    548.17     23.41
 25.87    545.68     23.36
 25.97    540.41     23.25
 26.07    514.79     22.69
 26.17    532.58     23.08
 26.27    576.83     24.02
 26.37    559.15     23.65
 26.47    621.00     24.92
 26.57    595.00     24.39
 26.67    575.78     24.00
 26.77    540.15     23.24
 26.87    576.00     24.00
 26.97    544.18     23.33
 27.07    609.00     24.68
 27.17    520.12     22.81
 27.27    601.00     24.52
 27.37    605.00     24.60
 27.47    591.00     24.31
 27.57    611.00     24.72
 27.67    528.36     22.99
 27.77    600.00     24.49
 27.87    636.00     25.22
 27.97    654.00     25.57
 28.07    732.05     27.06
 28.17    814.00     28.53
 28.27    927.00     30.45
 28.37   1008.95     31.76
 28.47    838.47     28.96
 28.57    815.00     28.55
 28.67    788.65     28.08
 28.77    704.00     26.53
 28.87    787.00     28.05
 28.97    874.52     29.57
 29.07    803.00     28.34
 29.17    790.01     28.11
 29.27    699.00     26.44
 29.37    655.00     25.59
 29.47    658.40     25.66
 29.57    572.55     23.93
 29.67    618.49     24.87
 29.77    606.00     24.62
 29.87    587.00     24.23
 29.97    573.00     23.94
 30.07    640.00     25.30
 30.17    590.00     24.29
 30.27    565.00     23.77
 30.37    542.68     23.30
 30.47    585.00     24.19
 30.57    626.00     25.02
 30.67    621.76     24.94
 30.77    608.00     24.66
 30.87    569.25     23.86
 30.97    630.00     25.10
 31.07    610.00     24.70
 31.17    634.54     25.19
 31.27    574.00     23.96
 31.37    550.48     23.46
 31.47    565.00     23.77
 31.57    555.00     23.56
 31.67    582.78     24.14
 31.77    537.00     23.17
 31.87    597.00     24.43
 31.97    540.00     23.24
 32.07    557.26     23.61
 32.17    576.98     24.02
 32.27    501.51     22.39
 32.37    556.00     23.58
 32.47    552.00     23.49
 32.57    545.00     23.35
 32.67    593.00     24.35
 32.77    509.39     22.57
 32.87    499.82     22.36
 32.97    578.08     24.04
 33.07    564.00     23.75
 33.17    563.84     23.75
 33.27    575.00     23.98
 33.37    563.07     23.73
 33.47    526.30     22.94
 33.57    584.93     24.19
 33.67    609.00     24.68
 33.77    677.38     26.03
 33.87    770.00     27.75
 33.97    905.00     30.08
 34.07   1020.00     31.94
 34.17   1023.00     31.98
 34.27   1029.00     32.08
 34.37    824.07     28.71
 34.47    816.00     28.57
 34.57    588.00     24.25
 34.67    626.15     25.02
 34.77    612.00     24.74
 34.87    592.00     24.33
 34.97    587.00     24.23
 35.07    512.92     22.65
 35.17    511.00     22.61
 35.27    555.72     23.57
 35.37    490.00     22.14
 35.47    549.00     23.43
 35.57    504.00     22.45
 35.67    537.98     23.19
 35.77    455.00     21.33
 35.87    539.43     23.23
 35.97    522.00     22.85
 36.07    463.00     21.52
 36.17    542.44     23.29
 36.27    507.00     22.52
 36.37    489.00     22.11
 36.47    491.00     22.16
 36.57    508.00     22.54
 36.67    533.00     23.09
 36.77    540.04     23.24
 36.87    530.95     23.04
 36.97    562.00     23.71
 37.07    500.33     22.37
 37.17    469.00     21.66
 37.27    505.00     22.47
 37.37    542.00     23.28
 37.47    533.00     23.09
 37.57    518.00     22.76
 37.67    532.00     23.07
 37.77    515.00     22.69
 37.87    497.00     22.29
 37.97    516.00     22.72
 38.07    512.00     22.63
 38.17    471.27     21.71
 38.27    484.00     22.00
 38.37    504.00     22.45
 38.47    487.00     22.07
 38.57    522.46     22.86
 38.67    523.00     22.87
 38.77    509.00     22.56
 38.87    483.00     21.98
 38.97    487.00     22.07
 39.07    491.00     22.16
 39.17    476.00     21.82
 39.27    524.45     22.90
 39.37    522.00     22.85
 39.47    520.00     22.80
 39.57    507.00     22.52
 39.67    512.00     22.63
 39.77    504.00     22.45
 39.87    505.00     22.47
 39.97    482.00     21.95
 40.07    516.00     22.72
 40.17    467.00     21.61
 40.27    464.00     21.54
 40.37    493.00     22.20
 40.47    477.00     21.84
 40.57    497.64     22.31
 40.67    501.00     22.38
 40.77    452.53     21.27
 40.87    519.51     22.79
 40.97    541.00     23.26
 41.07    509.00     22.56
 41.17    464.00     21.54
 41.27    515.03     22.69
 41.37    502.00     22.41
 41.47    472.00     21.73
 41.57    477.00     21.84
 41.67    472.00     21.73
 41.77    469.00     21.66
 41.87    539.68     23.23
 41.97    483.00     21.98
 42.07    539.66     23.23
 42.17    490.65     22.15
 42.27    519.00     22.78
 42.37    533.75     23.10
 42.47    488.00     22.09
 42.57    536.00     23.15
 42.67    570.00     23.87
 42.77    602.00     24.54
 42.87    618.70     24.87
 42.97    577.81     24.04
 43.07    620.23     24.90
 43.17    528.00     22.98
 43.27    529.00     23.00
 43.37    498.00     22.32
 43.47    473.00     21.75
 43.57    538.20     23.20
 43.67    521.00     22.83
 43.77    492.00     22.18
 43.87    467.00     21.61
 43.97    501.19     22.39
 44.07    537.77     23.19
 44.17    476.57     21.83
 44.27    505.00     22.47
 44.37    512.00     22.63
 44.47    507.00     22.52
 44.57    464.00     21.54
 44.67    477.48     21.85
 44.77    495.82     22.27
 44.87    485.00     22.02
 44.97    528.00     22.98
 45.07    510.00     22.58
 45.17    496.00     22.27
 45.27    497.00     22.29
 45.37    479.00     21.89
 45.47    475.00     21.79
 45.57    510.24     22.59
 45.67    483.33     21.98
 45.77    465.00     21.56
 45.87    546.00     23.37
 45.97    503.00     22.43
 46.07    468.00     21.63
 46.17    531.93     23.06
 46.27    531.77     23.06
 46.37    453.00     21.28
 46.47    486.00     22.05
 46.57    462.00     21.49
 46.67    466.00     21.59
 46.77    452.91     21.28
 46.87    511.19     22.61
 46.97    503.00     22.43
 47.07    516.01     22.72
 47.17    507.00     22.52
 47.27    503.43     22.44
 47.37    490.00     22.14
 47.47    557.00     23.60
 47.57    546.00     23.37
 47.67    524.00     22.89
 47.77    569.26     23.86
 47.87    541.18     23.26
 47.97    552.56     23.51
 48.07    599.00     24.47
 48.17    622.18     24.94
 48.27    573.42     23.95
 48.37    526.29     22.94
 48.47    541.30     23.27
 48.57    555.00     23.56
 48.67    531.00     23.04
 48.77    534.00     23.11
 48.87    548.00     23.41
 48.97    519.58     22.79
 49.07    528.00     22.98
 49.17    574.82     23.98
 49.27    520.96     22.82
 49.37    575.00     23.98
 49.47    559.76     23.66
 49.57    696.00     26.38
 49.67    685.00     26.17
 49.77    837.00     28.93
 49.87   1036.00     32.19
 49.97   1277.78     35.75
 50.07   1661.63     40.76
 50.17   2032.82     45.09
 50.27   2261.00     47.55
 50.37   2399.00     48.98
 50.47   2161.00     46.49
 50.57   1937.00     44.01
 50.67   1587.86     39.85
 50.77   1204.22     34.70
 50.87    935.00     30.58
 50.97    745.00     27.29
 51.07    717.32     26.78
 51.17    633.00     25.16
 51.27    634.41     25.19
 51.37    601.00     24.52
 51.47    568.00     23.83
 51.57    638.00     25.26
 51.67    595.00     24.39
 51.77    552.46     23.50
 51.87    549.00     23.43
 51.97    557.00     23.60
 52.07    543.00     23.30
 52.17    582.00     24.12
 52.27    550.51     23.46
 52.37    555.00     23.56
 52.47    566.00     23.79
 52.57    521.79     22.84
 52.67    585.68     24.20
 52.77    570.00     23.87
 52.87    628.29     25.07
 52.97    636.00     25.22
 53.07    680.26     26.08
 53.17    715.51     26.75
 53.27    788.00     28.07
 53.37    912.00     30.20
 53.47   1075.00     32.79
 53.57   1127.00     33.57
 53.67   1124.00     33.53
 53.77   1124.00     33.53
 53.87   1101.00     33.18
 53.97    974.00     31.21
 54.07    938.00     30.63
 54.17    743.00     27.26
 54.27    754.14     27.46
 54.37    589.00     24.27
 54.47    590.00     24.29
 54.57    595.00     24.39
 54.67    589.00     24.27
 54.77    572.00     23.92
 54.87    524.30     22.90
 54.97    593.00     24.35
 55.07    566.00     23.79
 55.17    522.27     22.85
 55.27    515.18     22.70
 55.37    574.00     23.96
 55.47    524.52     22.90
 55.57    575.00     23.98
 55.67    578.00     24.04
 55.77    606.00     24.62
 55.87    606.00     24.62
 55.97    668.03     25.85
 56.07    639.00     25.28
 56.17    678.00     26.04
 56.27    735.00     27.11
 56.37    859.88     29.32
 56.47   1028.00     32.06
 56.57   1172.00     34.23
 56.67   1669.21     40.86
 56.77   1985.00     44.55
 56.87   2208.00     46.99
 56.97   2484.00     49.84
 57.07   2500.00     50.00
 57.17   2352.70     48.50
 57.27   2072.00     45.52
 57.37   1912.00     43.73
 57.47   1567.00     39.59
 57.57   1240.00     35.21
 57.67   1056.45     32.50
 57.77    881.00     29.68
 57.87    786.00     28.04
 57.97    772.00     27.78
 58.07    739.00     27.18
 58.17    688.00     26.23
 58.27    674.00     25.96
 58.37    768.90     27.73
 58.47    807.00     28.41
 58.57    843.98     29.05
 58.67    881.64     29.69
 58.77    993.00     31.51
 58.87   1092.96     33.06
 58.97   1128.60     33.59
 59.07   1229.00     35.06
 59.17   1271.31     35.66
 59.27   1301.40     36.07
 59.37   1264.00     35.55
 59.47   1193.44     34.55
 59.57   1160.57     34.07
 59.67   1227.00     35.03
 59.77   1186.00     34.44
 59.87   1180.00     34.35
 59.97   1220.00     34.93
 60.07   1343.00     36.65
 60.17   1393.00     37.32
 60.27   1536.00     39.19
 60.37   1562.38     39.53
 60.47   1529.00     39.10
 60.57   1475.00     38.41
 60.67   1388.00     37.26
 60.77   1225.00     35.00
 60.87   1076.00     32.80
 60.97    965.66     31.08
 61.07    816.00     28.57
 61.17    772.00     27.78
 61.27    697.00     26.40
 61.37    632.00     25.14
 61.47    638.28     25.26
 61.57    671.97     25.92
 61.67    815.00     28.55
 61.77    805.98     28.39
 61.87    930.00     30.50
 61.97    951.00     30.84
 62.07   1143.16     33.81
 62.17   1202.00     34.67
 62.27   1293.00     35.96
 62.37   1293.00     35.96
 62.47   1264.00     35.55
 62.57   1243.00     35.26
 62.67   1080.00     32.86
 62.77   1028.00     32.06
 62.87    879.46     29.66
 62.97    737.00     27.15
 63.07    666.10     25.81
 63.17    635.00     25.20
 63.27    627.00     25.04
 63.37    633.00     25.16
 63.47    617.80     24.86
 63.57    602.44     24.54
 63.67    574.00     23.96
 63.77    554.00     23.54
 63.87    621.00     24.92
 63.97    614.00     24.78
 64.07    715.00     26.74
 64.17    621.00     24.92
 64.27    725.00     26.93
 64.37    727.00     26.96
 64.47    794.63     28.19
 64.57    941.00     30.68
 64.67    973.24     31.20
 64.77    985.00     31.38
 64.87   1046.34     32.35
 64.97   1011.00     31.80
 65.07    940.55     30.67
 65.17    926.94     30.45
 65.27    861.00     29.34
 65.37    803.00     28.34
 65.47    698.00     26.42
 65.57    675.02     25.98
 65.67    688.00     26.23
 65.77    628.00     25.06
 65.87    596.00     24.41
 65.97    590.00     24.29
 66.07    594.83     24.39
 66.17    564.00     23.75
 66.27    525.17     22.92
 66.37    593.03     24.35
 66.47    556.54     23.59
 66.57    570.00     23.87
 66.67    579.00     24.06
 66.77    562.04     23.71
 66.87    587.00     24.23
 66.97    590.00     24.29
 67.07    636.22     25.22
 67.17    644.86     25.39
 67.27    647.00     25.44
 67.37    731.00     27.04
 67.47    887.83     29.80
 67.57    999.12     31.61
 67.67   1147.00     33.87
 67.77   1248.00     35.33
 67.87   1474.00     38.39
 67.97   1746.00     41.79
 68.07   2001.00     44.73
 68.17   2242.00     47.35
 68.27   2421.00     49.20
 68.37   2324.00     48.21
 68.47   2278.18     47.73
 68.57   1994.41     44.66
 68.67   1803.00     42.46
 68.77   1627.00     40.34
 68.87   1260.38     35.50
 68.97   1104.86     33.24
 69.07    950.00     30.82
 69.17    902.66     30.04
 69.27    751.00     27.40
 69.37    741.54     27.23
 69.47    648.00     25.46
 69.57    652.35     25.54
 69.67    627.00     25.04
 69.77    601.06     24.52
 69.87    542.78     23.30
 69.97    578.00     24.04
 70.07    539.00     23.22
 70.17    545.97     23.37
 70.27    588.00     24.25
 70.37    569.02     23.85
 70.47    597.00     24.43
 70.57    651.00     25.51
 70.67    565.08     23.77
 70.77    574.00     23.96
 70.87    567.96     23.83
 70.97    569.05     23.85
 71.07    595.44     24.40
 71.17    705.06     26.55
 71.27    695.00     26.36
 71.37    811.00     28.48
 71.47    875.00     29.58
 71.57    942.00     30.69
 71.67   1070.00     32.71
 71.77   1331.52     36.49
 71.87   1416.00     37.63
 71.97   1535.77     39.19
 72.07   1755.00     41.89
 72.17   1779.00     42.18
 72.27   1790.00     42.31
 72.37   1875.52     43.31
 72.47   1761.68     41.97
 72.57   1668.00     40.84
 72.67   1387.85     37.25
 72.77   1317.00     36.29
 72.87   1185.00     34.42
 72.97   1009.00     31.76
 73.07    861.97     29.36
 73.17    795.23     28.20
 73.27    758.00     27.53
 73.37    723.52     26.90
 73.47    691.11     26.29
 73.57    653.00     25.55
 73.67    633.00     25.16
 73.77    608.00     24.66
 73.87    589.12     24.27
 73.97    595.00     24.39
 74.07    612.39     24.75
 74.17    599.93     24.49
 74.27    560.00     23.66
 74.37    611.00     24.72
 74.47    602.00     24.54
 74.57    575.38     23.99
 74.67    569.52     23.86
 74.77    613.00     24.76
 74.87    589.60     24.28
 74.97    642.00     25.34
 75.07    654.00     25.57
 75.17    611.00     24.72
 75.27    587.00     24.23
 75.37    622.00     24.94
 75.47    606.00     24.62
 75.57    593.36     24.36
 75.67    521.43     22.83
 75.77    569.01     23.85
 75.87    572.00     23.92
 75.97    563.00     23.73
 76.07    569.16     23.86
 76.17    663.00     25.75
 76.27    603.00     24.56
 76.37    628.01     25.06
 76.47    627.38     25.05
 76.57    702.00     26.50
 76.67    695.00     26.36
 76.77    677.93     26.04
 76.87    643.00     25.36
 76.97    728.82     27.00
 77.07    662.00     25.73
 77.17    657.00     25.63
 77.27    638.00     25.26
 77.37    617.81     24.86
 77.47    576.00     24.00
 77.57    562.00     23.71
 77.67    571.00     23.90
 77.77    586.59     24.22
 77.87    494.00     22.23
 77.97    516.44     22.73
 78.07    499.20     22.34
 78.17    501.00     22.38
 78.27    498.44     22.33
 78.37    494.45     22.24
 78.47    490.13     22.14
 78.57    557.73     23.62
 78.67    471.13     21.71
 78.77    486.00     22.05
 78.87    510.92     22.60
 78.97    510.00     22.58
 79.07    507.00     22.52
 79.17    542.00     23.28
 79.27    493.85     22.22
 79.37    515.97     22.72
 79.47    543.95     23.32
 79.57    496.00     22.27
 79.67    560.00     23.66
 79.77    536.49     23.16
 79.87    494.00     22.23
 79.97    516.00     22.72
 80.07    546.69     23.38
 80.17    510.00     22.58
 80.27    560.00     23.66
 80.37    533.08     23.09
 80.47    577.00     24.02
 80.57    548.00     23.41
 80.67    588.58     24.26
 80.77    576.67     24.01
 80.87    560.00     23.66
 80.97    682.17     26.12
 81.07    646.35     25.42
 81.17    726.20     26.95
 81.27    634.00     25.18
 81.37    762.74     27.62
 81.47    710.86     26.66
 81.57    765.54     27.67
 81.67    769.00     27.73
 81.77    718.00     26.80
 81.87    697.00     26.40
 81.97    719.00     26.81
 82.07    741.70     27.23
 82.17    722.00     26.87
 82.27    662.00     25.73
 82.37    653.00     25.55
 82.47    628.25     25.06
 82.57    630.00     25.10
 82.67    618.00     24.86
 82.77    588.00     24.25
 82.87    532.00     23.07
 82.97    568.00     23.83
 83.07    529.00     23.00
 83.17    501.00     22.38
 83.27    559.00     23.64
 83.37    521.00     22.83
 83.47    550.41     23.46
 83.57    526.09     22.94
 83.67    492.00     22.18
 83.77    519.00     22.78
 83.87    537.00     23.17
 83.97    589.00     24.27
 84.07    592.00     24.33
 84.17    560.94     23.68
 84.27    534.00     23.11
 84.37    538.00     23.19
 84.47    600.16     24.50
 84.57    541.00     23.26
 84.67    539.38     23.22
 84.77    586.00     24.21
 84.87    540.00     23.24
 84.97    506.00     22.49
 85.07    563.00     23.73
 85.17    513.00     22.65
 85.27    534.41     23.12
 85.37    488.21     22.10
 85.47    507.00     22.52
 85.57    495.22     22.25
 85.67    535.00     23.13
 85.77    499.00     22.34
 85.87    471.00     21.70
 85.97    503.36     22.44
 86.07    527.27     22.96
 86.17    529.00     23.00
 86.27    491.00     22.16
 86.37    537.63     23.19
 86.47    514.00     22.67
 86.57    499.48     22.35
 86.67    536.00     23.15
 86.77    520.12     22.81
 86.87    553.00     23.52
 86.97    553.00     23.52
 87.07    543.00     23.30
 87.17    580.00     24.08
 87.27    555.00     23.56
 87.37    625.00     25.00
 87.47    582.27     24.13
 87.57    603.60     24.57
 87.67    610.00     24.70
 87.77    628.00     25.06
 87.87    559.50     23.65
 87.97    585.27     24.19
 88.07    642.17     25.34
 88.17    572.00     23.92
 88.27    609.00     24.68
 88.37    608.00     24.66
 88.47    534.27     23.11
 88.57    582.88     24.14
 88.67    575.00     23.98
 88.77    578.00     24.04
 88.87    548.00     23.41
 88.97    572.00     23.92
 89.07    560.00     23.66
 89.17    599.00     24.47
 89.27    571.00     23.90
 89.37    571.00     23.90
 89.47    610.28     24.70
 89.57    538.00     23.19
 89.67    594.35     24.38
 89.77    610.59     24.71
 89.87    568.00     23.83
 89.97    577.00     24.02
 90.07    521.02     22.83
 90.17    592.00     24.33
 90.27    497.00     22.29
 90.37    503.00     22.43
 90.47    544.00     23.32
 90.57    519.76     22.80
 90.67    506.00     22.49
 90.77    521.69     22.84
 90.87    531.14     23.05
 90.97    516.00     22.72
 91.07    506.00     22.49
 91.17    506.97     22.52
 91.27    497.62     22.31
 91.37    469.00     21.66
 91.47    511.85     22.62
 91.57    509.00     22.56
 91.67    487.00     22.07
 91.77    563.00     23.73
 91.87    492.00     22.18
 91.97    490.00     22.14
 92.07    532.65     23.08
 92.17    561.87     23.70
 92.27    515.00     22.69
 92.37    530.95     23.04
 92.47    560.10     23.67
 92.57    561.00     23.69
 92.67    557.00     23.60
 92.77    590.00     24.29
 92.87    576.00     24.00
 92.97    578.00     24.04
 93.07    629.00     25.08
 93.17    622.25     24.94
 93.27    657.99     25.65
 93.37    715.00     26.74
 93.47    750.00     27.39
 93.57    719.03     26.81
 93.67    710.12     26.65
 93.77    747.32     27.34
 93.87    782.91     27.98
 93.97    727.81     26.98
 94.07    807.00     28.41
 94.17    840.00     28.98
 94.27    816.00     28.57
 94.37    844.00     29.05
 94.47    856.00     29.26
 94.57    882.33     29.70
 94.67    903.08     30.05
 94.77    899.00     29.98
 94.87    842.00     29.02
 94.97    866.90     29.44
 95.07    938.00     30.63
 95.17    915.12     30.25
 95.27    913.00     30.22
 95.37    878.00     29.63
 95.47    840.00     28.98
 95.57    836.00     28.91
 95.67    806.00     28.39
 95.77    768.00     27.71
 95.87    792.00     28.14
 95.97    690.02     26.27
 96.07    678.58     26.05
 96.17    639.14     25.28
 96.27    664.00     25.77
 96.37    646.86     25.43
 96.47    736.00     27.13
 96.57    722.00     26.87
 96.67    770.00     27.75
 96.77    811.00     28.48
 96.87    821.00     28.65
 96.97    954.00     30.89
 97.07    990.00     31.46
 97.17   1029.00     32.08
 97.27   1058.00     32.53
 97.37   1143.00     33.81
 97.47   1233.00     35.11
 97.57   1353.45     36.79
 97.67   1444.00     38.00
 97.77   1372.00     37.04
 97.87   1345.76     36.68
 97.97   1425.00     37.75
 98.07   1441.00     37.96
 98.17   1360.00     36.88
 98.27   1316.00     36.28
 98.37   1303.00     36.10
 98.47   1218.00     34.90
 98.57   1209.90     34.78
 98.67   1095.21     33.09
 98.77   1041.00     32.26
 98.87   1010.00     31.78
 98.97   1028.00     32.06
 99.07    887.00     29.78
 99.17    906.02     30.10
 99.27    849.00     29.14
 99.37    903.07     30.05
 99.47    946.00     30.76
 99.57    941.00     30.68
 99.67    969.86     31.14
 99.77    989.00     31.45
 99.87   1105.00     33.24
 99.97   1129.00     33.60
100.07   1265.00     35.57
100.17   1332.00     36.50
100.27   1394.00     37.34
100.37   1515.00     38.92
100.47   1620.00     40.25
100.57   1705.00     41.29
100.67   1730.29     41.60
100.77   1792.28     42.34
100.87   1905.00     43.65
100.97   1952.00     44.18
101.07   1952.00     44.18
101.17   1922.77     43.85
101.27   1886.00     43.43
101.37   1890.94     43.48
101.47   1817.35     42.63
101.57   1826.00     42.73
101.67   1664.86     40.80
101.77   1682.00     41.01
101.87   1565.00     39.56
101.97   1561.00     39.51
102.07   1393.00     37.32
102.17   1425.86     37.76
102.27   1314.08     36.25
102.37   1307.00     36.15
102.47   1314.00     36.25
102.57   1160.17     34.06
102.67   1186.00     34.44
102.77   1171.00     34.22
102.87   1120.00     33.47
102.97   1163.45     34.11
103.07   1118.26     33.44
103.17   1041.00     32.26
103.27   1009.00     31.76
103.37    992.00     31.50
103.47    921.57     30.36
103.57    946.00     30.76
103.67    903.00     30.05
103.77    849.00     29.14
103.87    820.00     28.64
103.97    751.00     27.40
104.07    765.00     27.66
104.17    680.02     26.08
104.27    649.25     25.48
104.37    650.00     25.50
104.47    607.38     24.65
104.57    556.07     23.58
104.67    578.12     24.04
104.77    546.00     23.37
104.87    506.26     22.50
104.97    558.00     23.62
105.07    511.00     22.61
105.17    533.00     23.09
105.27    545.00     23.35
105.37    534.00     23.11
105.47    541.00     23.26
105.57    586.00     24.21
105.67    520.03     22.80
105.77    531.73     23.06
105.87    567.60     23.82
105.97    507.00     22.52
106.07    528.38     22.99
106.17    542.00     23.28
106.27    530.00     23.02
106.37    554.00     23.54
106.47    597.00     24.43
106.57    564.73     23.76
106.67    548.04     23.41
106.77    598.00     24.45
106.87    641.00     25.32
106.97    583.46     24.15
107.07    653.00     25.55
107.17    658.00     25.65
107.27    660.00     25.69
107.37    664.06     25.77
107.47    659.00     25.67
107.57    650.00     25.50
107.67    665.00     25.79
107.77    639.46     25.29
107.87    688.48     26.24
107.97    705.89     26.57
108.07    679.00     26.06
108.17    696.00     26.38
108.27    679.00     26.06
108.37    658.55     25.66
108.47    717.45     26.79
108.57    646.33     25.42
108.67    714.21     26.72
108.77    659.00     25.67
108.87    659.00     25.67
108.97    689.00     26.25
109.07    650.00     25.50
109.17    723.00     26.89
109.27    635.00     25.20
109.37    704.54     26.54
109.47    711.10     26.67
109.57    678.00     26.04
109.67    670.00     25.88
109.77    685.00     26.17
109.87    619.00     24.88
109.97    677.00     26.02
110.07    607.62     24.65
110.17    632.00     25.14
110.27    603.00     24.56
110.37    578.90     24.06
110.47    605.00     24.60
110.57    562.00     23.71
110.67    596.00     24.41
110.77    615.26     24.80
110.87    559.06     23.64
110.97    547.20     23.39
111.07    536.00     23.15
111.17    594.00     24.37
111.27    563.00     23.73
111.37    534.00     23.11
111.47    579.55     24.07
111.57    564.00     23.75
111.67    557.00     23.60
111.77    555.00     23.56
111.87    557.29     23.61
111.97    572.00     23.92
112.07    543.29     23.31
112.17    532.00     23.07
112.27    537.35     23.18
112.37    619.00     24.88
112.47    590.21     24.29
112.57    575.00     23.98
112.67    566.26     23.80
112.77    539.00     23.22
112.87    553.00     23.52
112.97    545.00     23.35
113.07    566.00     23.79
113.17    574.00     23.96
113.27    576.00     24.00
113.37    594.38     24.38
113.47    589.83     24.29
113.57    645.00     25.40
113.67    612.00     24.74
113.77    699.23     26.44
113.87    716.16     26.76
113.97    732.41     27.06
114.07    693.00     26.32
114.17    700.09     26.46
114.27    710.00     26.65
114.37    864.35     29.40
114.47    873.00     29.55
114.57    876.00     29.60
114.67   1060.66     32.57
114.77   1103.46     33.22
114.87   1139.35     33.75
114.97   1269.83     35.63
115.07   1480.00     38.47
115.17   1600.00     40.00
115.27   1895.00     43.53
115.37   1922.01     43.84
115.47   2391.00     48.90
115.57   2572.00     50.71
115.67   2698.34     51.95
115.77   3163.53     56.25
115.87   3306.00     57.50
115.97   3836.00     61.94
116.07   4263.00     65.29
116.17   4528.00     67.29
116.27   4907.00     70.05
116.37   5336.19     73.05
116.47   5532.00     74.38
116.57   5995.00     77.43
116.67   6199.00     78.73
116.77   6604.99     81.27
116.87   6761.00     82.23
116.97   6806.00     82.50
117.07   7079.00     84.14
117.17   6857.00     82.81
117.27   7011.00     83.73
117.37   6671.27     81.68
117.47   6586.67     81.16
117.57   6187.00     78.66
117.67   6031.27     77.66
117.77   5722.00     75.64
117.87   5284.15     72.69
117.97   4965.28     70.46
118.07   4692.94     68.51
118.17   4204.00     64.84
118.27   4033.00     63.51
118.37   3698.82     60.82
118.47   3217.00     56.72
118.57   2986.00     54.64
118.67   2620.00     51.19
118.77   2351.00     48.49
118.87   2121.00     46.05
118.97   1934.02     43.98
119.07   1760.00     41.95
119.17   1480.00     38.47
119.27   1405.00     37.48
119.37   1337.06     36.57
119.47   1145.02     33.84
119.57   1095.33     33.10
119.67    991.00     31.48
119.77    958.35     30.96
119.87    924.49     30.41
119.97    838.00     28.95
120.07    776.00     27.86
120.17    759.00     27.55
120.27    678.54     26.05
120.37    722.59     26.88
120.47    619.00     24.88
120.57    689.00     26.25
120.67    628.00     25.06
120.77    621.46     24.93
120.87    595.00     24.39
120.97    572.00     23.92
121.07    551.63     23.49
121.17    544.91     23.34
121.27    589.00     24.27
121.37    569.00     23.85
121.47    545.00     23.35
121.57    589.55     24.28
121.67    603.75     24.57
121.77    579.00     24.06
121.87    583.83     24.16
121.97    579.00     24.06
122.07    607.75     24.65
122.17    584.40     24.17
122.27    550.35     23.46
122.37    615.00     24.80
122.47    642.00     25.34
122.57    618.69     24.87
122.67    575.00     23.98
122.77    592.00     24.33
122.87    578.00     24.04
122.97    619.02     24.88
123.07    654.00     25.57
123.17    577.00     24.02
123.27    639.00     25.28
123.37    646.00     25.42
123.47    674.21     25.97
123.57    671.00     25.90
123.67    639.00     25.28
123.77    613.00     24.76
123.87    616.00     24.82
123.97    644.00     25.38
124.07    599.00     24.47
124.17    587.99     24.25
124.27    606.00     24.62
124.37    635.84     25.22
124.47    600.00     24.49
124.57    576.80     24.02
124.67    562.36     23.71
124.77    609.00     24.68
124.87    541.16     23.26
124.97    584.20     24.17
