XYDATA



INTER 1.0 1.0 0 0
TEMP 1074.0
  9.97    614.46     24.79
 10.07    601.00     24.52
 10.17    541.21     23.26
 10.27    551.59     23.49
 10.37    557.15     23.60
 10.47    648.00     25.46
 10.57    561.00     23.69
 10.67    536.79     23.17
 10.77    557.00     23.60
 10.87    603.24     24.56
 10.97    607.00     24.64
 11.07    623.00     24.96
 11.17    580.00     24.08
 11.27    629.00     25.08
 11.37    601.34     24.52
 11.47    611.30     24.72
 11.57    626.00     25.02
 11.67    624.00     24.98
 11.77    624.00     24.98
 11.87    630.48     25.11
 11.97    671.27     25.91
 12.07    681.76     26.11
 12.17    759.91     27.57
 12.27    693.00     26.32
 12.37    653.00     25.55
 12.47    631.00     25.12
 12.57    599.00     24.47
 12.67    584.93     24.19
 12.77    556.26     23.59
 12.87    580.00     24.08
 12.97    610.86     24.72
 13.07    628.00     25.06
 13.17    578.00     24.04
 13.27    530.00     23.02
 13.37    590.00     24.29
 13.47    584.00     24.17
 13.57    578.00     24.04
 13.67    536.61     23.16
 13.77    546.93     23.39
 13.87    555.05     23.56
 13.97    523.00     22.87
 14.07    519.68     22.80
 14.17    541.27     23.27
 14.27    577.74     24.04
 14.37    530.92     23.04
 14.47    535.00     23.13
 14.57    580.00     24.08
 14.67    530.00     23.02
 14.77    562.79     23.72
 14.87    546.00     23.37
 14.97    534.22     23.11
 15.07    558.00     23.62
 15.17    524.12     22.89
 15.27    556.00     23.58
 15.37    556.00     23.58
 15.47    534.00     23.11
 15.57    561.00     23.69
 15.67    601.43     24.52
 15.77    559.00     23.64
 15.87    528.00     22.98
 15.97    578.00     24.04
 16.07    543.00     23.30
 16.17    540.13     23.24
 16.27    530.00     23.02
 16.37    602.15     24.54
 16.47    535.62     23.14
 16.57    547.00     23.39
 16.67    568.38     23.84
 16.77    589.29     24.28
 16.87    561.00     23.69
 16.97    549.00     23.43
 17.07    611.77     24.73
 17.17    537.00     23.17
 17.27    582.00     24.12
 17.37    581.42     24.11
 17.47    554.00     23.54
 17.57    532.34     23.07
 17.67    577.00     24.02
 17.77    590.98     24.31
 17.87    595.00     24.39
 17.97    591.30     24.32
 18.07    559.00     23.64
 18.17    566.00     23.79
 18.27    577.00     24.02
 18.37    569.00     23.85
 18.47    574.00     23.96
 18.57    541.00     23.26
 18.67    582.88     24.14
 18.77    515.00     22.69
 18.87    572.81     23.93
 18.97    572.49     23.93
 19.07    537.00     23.17
 19.17    543.00     23.30
 19.27    602.62     24.55
 19.37    549.00     23.43
 19.47    523.00     22.87
 19.57    590.00     24.29
 19.67    580.00     24.08
 19.77    579.58     24.07
 19.87    524.00     22.89
 19.97    557.38     23.61
 20.07    520.86     22.82
 20.17    537.00     23.17
 20.27    572.00     23.92
 20.37    530.89     23.04
 20.47    539.63     23.23
 20.57    572.29     23.92
 20.67    577.00     24.02
 20.77    592.31     24.34
 20.87    539.00     23.22
 20.97    543.00     23.30
 21.07    557.00     23.60
 21.17    590.57     24.30
 21.27    496.00     22.27
 21.37    540.00     23.24
 21.47    536.00     23.15
 21.57    579.36     24.07
 21.67    537.60     23.19
 21.77    576.11     24.00
 21.87    574.71     23.97
 21.97    558.00     23.62
 22.07    535.00     23.13
 22.17    571.00     23.90
 22.27    544.00     23.32
 22.37    529.00     23.00
 22.47    561.26     23.69
 22.57    505.02     22.47
 22.67    529.00     23.00
 22.77    585.84     24.20
 22.87    513.00     22.65
 22.97    584.00     24.17
 23.07    537.00     23.17
 23.17    566.19     23.79
 23.27    536.00     23.15
 23.37    554.00     23.54
 23.47    548.00     23.41
 23.57    555.00     23.56
 23.67    562.00     23.71
 23.77    575.00     23.98
 23.87    565.00     23.77
 23.97    531.00     23.04
 24.07    567.00     23.81
 24.17    543.00     23.30
 24.27    543.47     23.31
 24.37    565.00     23.77
 24.47    542.27     23.29
 24.57    605.00     24.60
 24.67    608.00     24.66
 24.77    638.00     25.26
 24.87    591.56     24.32
 24.97    601.00     24.52
 25.07    615.54     24.81
 25.17    610.28     24.70
 25.27    550.00     23.45
 25.37    561.00     23.69
 25.47    521.00     22.83
 25.57    559.00     23.64
 25.67    525.00     22.91
 25.77    510.29     22.59
 25.87    557.00     23.60
 25.97    506.87     22.51
 26.07    535.13     23.13
 26.17    547.00     23.39
 26.27    541.00     23.26
 26.37    564.00     23.75
 26.47    533.00     23.09
 26.57    541.00     23.26
 26.67    524.65     22.91
 26.77    562.00     23.71
 26.87    549.00     23.43
 26.97    526.00     22.93
 27.07    503.12     22.43
 27.17    529.00     23.00
 27.27    523.21     22.87
 27.37    502.08     22.41
 27.47    607.00     24.64
 27.57    593.00     24.35
 27.67    588.00     24.25
 27.77    528.32     22.99
 27.87    598.00     24.45
 27.97    674.00     25.96
 28.07    772.00     27.78
 28.17    882.00     29.70
 28.27    916.75     30.28
 28.37    910.00     30.17
 28.47    794.67     28.19
 28.57    725.00     26.93
 28.67    710.07     26.65
 28.77    653.00     25.55
 28.87    807.00     28.41
 28.97    846.39     29.09
 29.07    853.03     29.21
 29.17    676.00     26.00
 29.27    601.50     24.53
 29.37    648.00     25.46
 29.47    615.00     24.80
 29.57    586.00     24.21
 29.67    592.00     24.33
 29.77    605.00     24.60
 29.87    603.00     24.56
 29.97    571.00     23.90
 30.07    600.00     24.49
 30.17    600.00     24.49
 30.27    551.00     23.47
 30.37    527.00     22.96
 30.47    554.00     23.54
 30.57    594.00     24.37
 30.67    533.00     23.09
 30.77    606.98     24.64
 30.87    630.68     25.11
 30.97    611.99     24.74
 31.07    628.00     25.06
 31.17    608.75     24.67
 31.27    578.69     24.06
 31.37    566.00     23.79
 31.47    563.00     23.73
 31.57    520.00     22.80
 31.67    548.00     23.41
 31.77    514.41     22.68
 31.87    550.00     23.45
 31.97    563.00     23.73
 32.07    553.34     23.52
 32.17    552.00     23.49
 32.27    539.00     23.22
 32.37    502.66     22.42
 32.47    548.40     23.42
 32.57    558.00     23.62
 32.67    520.00     22.80
 32.77    509.52     22.57
 32.87    562.00     23.71
 32.97    563.00     23.73
 33.07    559.00     23.64
 33.17    498.70     22.33
 33.27    492.00     22.18
 33.37    543.00     23.30
 33.47    590.00     24.29
 33.57    605.00     24.60
 33.67    653.00     25.55
 33.77    747.00     27.33
 33.87    883.00     29.72
 33.97   1005.66     31.71
 34.07   1072.00     32.74
 34.17   1040.00     32.25
 34.27    935.75     30.59
 34.37    723.00     26.89
 34.47    642.00     25.34
 34.57    534.00     23.11
 34.67    523.00     22.87
 34.77    498.00     22.32
 34.87    557.00     23.60
 34.97    498.71     22.33
 35.07    525.21     22.92
 35.17    545.00     23.35
 35.27    547.00     23.39
 35.37    535.05     23.13
 35.47    515.00     22.69
 35.57    502.00     22.41
 35.67    510.00     22.58
 35.77    479.00     21.89
 35.87    540.00     23.24
 35.97    547.62     23.40
 36.07    532.00     23.07
 36.17    454.00     21.31
 36.27    502.00     22.41
 36.37    466.00     21.59
 36.47    506.00     22.49
 36.57    540.00     23.24
 36.67    539.23     23.22
 36.77    515.00     22.69
 36.87    504.00     22.45
 36.97    523.00     22.87
 37.07    481.07     21.93
 37.17    468.31     21.64
 37.27    559.24     23.65
 37.37    478.21     21.87
 37.47    532.39     23.07
 37.57    522.00     22.85
 37.67    502.00     22.41
 37.77    541.02     23.26
 37.87    569.00     23.85
 37.97    483.09     21.98
 38.07    481.00     21.93
 38.17    556.00     23.58
 38.27    477.33     21.85
 38.37    497.00     22.29
 38.47    521.44     22.84
 38.57    511.17     22.61
 38.67    476.00     21.82
 38.77    520.58     22.82
 38.87    487.00     22.07
 38.97    471.79     21.72
 39.07    495.00     22.25
 39.17    467.34     21.62
 39.27    551.00     23.47
 39.37    508.00     22.54
 39.47    468.53     21.65
 39.57    520.92     22.82
 39.67    508.00     22.54
 39.77    459.00     21.42
 39.87    548.72     23.42
 39.97    459.37     21.43
 40.07    473.00     21.75
 40.17    517.82     22.76
 40.27    475.49     21.81
 40.37    462.08     21.50
 40.47    550.30     23.46
 40.57    545.00     23.35
 40.67    494.77     22.24
 40.77    497.00     22.29
 40.87    459.00     21.42
 40.97    520.04     22.80
 41.07    503.00     22.43
 41.17    480.00     21.91
 41.27    494.00     22.23
 41.37    495.00     22.25
 41.47    517.02     22.74
 41.57    537.00     23.17
 41.67    486.00     22.05
 41.77    495.00     22.25
 41.87    472.00     21.73
 41.97    513.00     22.65
 42.07    522.00     22.85
 42.17    497.00     22.29
 42.27    519.61     22.79
 42.37    552.00     23.49
 42.47    624.88     25.00
 42.57    600.43     24.50
 42.67    594.00     24.37
 42.77    643.25     25.36
 42.87    592.00     24.33
 42.97    543.50     23.31
 43.07    508.19     22.54
 43.17    539.00     23.22
 43.27    502.00     22.41
 43.37    482.45     21.96
 43.47    517.00     22.74
 43.57    477.74     21.86
 43.67    492.00     22.18
 43.77    538.27     23.20
 43.87    472.00     21.73
 43.97    521.70     22.84
 44.07    534.00     23.11
 44.17    550.00     23.45
 44.27    484.00     22.00
 44.37    491.00     22.16
 44.47    466.29     21.59
 44.57    503.30     22.43
 44.67    523.00     22.87
 44.77    476.79     21.84
 44.87    476.33     21.82
 44.97    537.00     23.17
 45.07    528.86     23.00
 45.17    507.00     22.52
 45.27    495.00     22.25
 45.37    483.00     21.98
 45.47    538.00     23.19
 45.57    477.54     21.85
 45.67    534.71     23.12
 45.77    523.00     22.87
 45.87    474.00     21.77
 45.97    531.00     23.04
 46.07    516.00     22.72
 46.17    498.00     22.32
 46.27    511.00     22.61
 46.37    459.00     21.42
 46.47    485.06     22.02
 46.57    563.00     23.73
 46.67    543.68     23.32
 46.77    513.00     22.65
 46.87    477.00     21.84
 46.97    523.42     22.88
 47.07    545.00     23.35
 47.17    471.75     21.72
 47.27    482.80     21.97
 47.37    513.00     22.65
 47.47    540.00     23.24
 47.57    559.00     23.64
 47.67    584.00     24.17
 47.77    575.00     23.98
 47.87    633.99     25.18
 47.97    557.00     23.60
 48.07    563.00     23.73
 48.17    583.00     24.15
 48.27    615.00     24.80
 48.37    567.26     23.82
 48.47    532.00     23.07
 48.57    494.38     22.23
 48.67    495.00     22.25
 48.77    523.53     22.88
 48.87    521.10     22.83
 48.97    583.00     24.15
 49.07    553.00     23.52
 49.17    585.42     24.20
 49.27    639.96     25.30
 49.37    642.00     25.34
 49.47    677.67     26.03
 49.57    800.00     28.28
 49.67    939.00     30.64
 49.77   1180.00     34.35
 49.87   1462.00     38.24
 49.97   1786.46     42.27
 50.07   2183.00     46.72
 50.17   2479.00     49.79
 50.27   2495.00     49.95
 50.37   2242.00     47.35
 50.47   1793.00     42.34
 50.57   1412.00     37.58
 50.67   1079.00     32.85
 50.77    771.00     27.77
 50.87    801.14     28.30
 50.97    638.00     25.26
 51.07    691.00     26.29
 51.17    614.00     24.78
 51.27    632.82     25.16
 51.37    595.27     24.40
 51.47    565.00     23.77
 51.57    576.00     24.00
 51.67    522.00     22.85
 51.77    513.49     22.66
 51.87    561.07     23.69
 51.97    564.00     23.75
 52.07    548.00     23.41
 52.17    553.00     23.52
 52.27    565.00     23.77
 52.37    555.00     23.56
 52.47    512.16     22.63
 52.57    582.00     24.12
 52.67    557.00     23.60
 52.77    615.14     24.80
 52.87    661.00     25.71
 52.97    725.00     26.93
 53.07    806.00     28.39
 53.17    951.56     30.85
 53.27   1078.00     32.83
 53.37   1125.00     33.54
 53.47   1189.00     34.48
 53.57   1171.22     34.22
 53.67   1169.28     34.19
 53.77    966.98     31.10
 53.87    860.00     29.33
 53.97    744.00     27.28
 54.07    683.00     26.13
 54.17    644.55     25.39
 54.27    583.00     24.15
 54.37    556.00     23.58
 54.47    574.00     23.96
 54.57    547.00     23.39
 54.67    536.40     23.16
 54.77    574.01     23.96
 54.87    577.00     24.02
 54.97    554.00     23.54
 55.07    558.00     23.62
 55.17    562.00     23.71
 55.27    586.00     24.21
 55.37    530.00     23.02
 55.47    570.00     23.87
 55.57    572.00     23.92
 55.67    559.00     23.64
 55.77    544.12     23.33
 55.87    628.20     25.06
 55.97    655.87     25.61
 56.07    675.00     25.98
 56.17    731.00     27.04
 56.27    879.00     29.65
 56.37   1061.00     32.57
 56.47   1421.00     37.70
 56.57   1813.00     42.58
 56.67   2081.00     45.62
 56.77   2374.00     48.72
 56.87   2634.00     51.32
 56.97   2660.00     51.58
 57.07   2496.00     49.96
 57.17   1991.52     44.63
 57.27   1702.00     41.26
 57.37   1321.85     36.36
 57.47   1051.00     32.42
 57.57    903.00     30.05
 57.67    753.00     27.44
 57.77    708.03     26.61
 57.87    707.00     26.59
 57.97    679.00     26.06
 58.07    729.40     27.01
 58.17    761.00     27.59
 58.27    773.00     27.80
 58.37    823.00     28.69
 58.47   1023.80     32.00
 58.57   1106.12     33.26
 58.67   1177.00     34.31
 58.77   1291.00     35.93
 58.87   1427.77     37.79
 58.97   1450.00     38.08
 59.07   1665.00     40.80
 59.17   1478.62     38.45
 59.27   1573.00     39.66
 59.37   1410.00     37.55
 59.47   1236.00     35.16
 59.57   1210.00     34.79
 59.67   1170.00     34.21
 59.77   1093.10     33.06
 59.87   1195.00     34.57
 59.97   1330.41     36.47
 60.07   1527.00     39.08
 60.17   1558.00     39.47
 60.27   1588.00     39.85
 60.37   1445.97     38.03
 60.47   1372.05     37.04
 60.57   1341.00     36.62
 60.67   1107.40     33.28
 60.77    922.00     30.36
 60.87    841.08     29.00
 60.97    752.00     27.42
 61.07    676.00     26.00
 61.17    648.00     25.46
 61.27    654.00     25.57
 61.37    678.77     26.05
 61.47    683.00     26.13
 61.57    740.03     27.20
 61.67    826.92     28.76
 61.77    977.13     31.26
 61.87   1062.00     32.59
 61.97   1247.00     35.31
 62.07   1346.00     36.69
 62.17   1382.90     37.19
 62.27   1374.00     37.07
 62.37   1316.00     36.28
 62.47   1140.02     33.76
 62.57   1002.75     31.67
 62.67    854.08     29.22
 62.77    766.00     27.68
 62.87    674.08     25.96
 62.97    628.00     25.06
 63.07    578.00     24.04
 63.17    557.00     23.60
 63.27    551.93     23.49
 63.37    570.31     23.88
 63.47    603.21     24.56
 63.57    616.00     24.82
 63.67    563.13     23.73
 63.77    608.00     24.66
 63.87    623.23     24.96
 63.97    683.00     26.13
 64.07    688.30     26.24
 64.17    808.00     28.43
 64.27    816.00     28.57
 64.37    919.00     30.32
 64.47    950.00     30.82
 64.57    987.00     31.42
 64.67   1068.00     32.68
 64.77   1010.00     31.78
 64.87   1009.00     31.76
 64.97    878.00     29.63
 65.07    887.63     29.79
 65.17    746.00     27.31
 65.27    698.51     26.43
 65.37    704.45     26.54
 65.47    635.00     25.20
 65.57    664.62     25.78
 65.67    574.00     23.96
 65.77    586.51     24.22
 65.87    553.00     23.52
 65.97    525.54     22.92
 66.07    550.88     23.47
 66.17    584.40     24.17
 66.27    597.34     24.44
 66.37    546.00     23.37
 66.47    579.00     24.06
 66.57    584.30     24.17
 66.67    570.00     23.87
 66.77    585.00     24.19
 66.87    558.12     23.62
 66.97    593.00     24.35
 67.07    628.00     25.06
 67.17    618.00     24.86
 67.27    808.73     28.44
 67.37    878.00     29.63
 67.47    993.00     31.51
 67.57   1290.17     35.92
 67.67   1518.00     38.96
 67.77   1719.00     41.46
 67.87   2096.00     45.78
 67.97   2331.98     48.29
 68.07   2482.04     49.82
 68.17   2393.00     48.92
 68.27   2329.00     48.26
 68.37   2033.00     45.09
 68.47   1740.02     41.71
 68.57   1559.73     39.49
 68.67   1298.00     36.03
 68.77   1058.00     32.53
 68.87    854.00     29.22
 68.97    752.00     27.42
 69.07    713.21     26.71
 69.17    672.00     25.92
 69.27    648.00     25.46
 69.37    638.00     25.26
 69.47    580.00     24.08
 69.57    588.00     24.25
 69.67    616.00     24.82
 69.77    554.00     23.54
 69.87    589.00     24.27
 69.97    532.00     23.07
 70.07    557.00     23.60
 70.17    613.00     24.76
 70.27    584.00     24.17
 70.37    588.00     24.25
 70.47    587.60     24.24
 70.57    558.87     23.64
 70.67    548.00     23.41
 70.77    543.23     23.31
 70.87    598.00     24.45
 70.97    628.00     25.06
 71.07    611.00     24.72
 71.17    757.00     27.51
 71.27    816.00     28.57
 71.37    925.32     30.42
 71.47   1099.25     33.15
 71.57   1214.00     34.84
 71.67   1413.00     37.59
 71.77   1667.00     40.83
 71.87   1795.00     42.37
 71.97   1906.00     43.66
 72.07   1913.64     43.75
 72.17   1864.00     43.17
 72.27   1714.57     41.41
 72.37   1643.12     40.54
 72.47   1450.00     38.08
 72.57   1279.00     35.76
 72.67   1190.00     34.50
 72.77   1011.00     31.80
 72.87    946.00     30.76
 72.97    827.00     28.76
 73.07    778.00     27.89
 73.17    759.00     27.55
 73.27    711.00     26.66
 73.37    675.00     25.98
 73.47    647.87     25.45
 73.57    682.94     26.13
 73.67    666.95     25.83
 73.77    620.40     24.91
 73.87    586.00     24.21
 73.97    621.95     24.94
 74.07    590.00     24.29
 74.17    615.00     24.80
 74.27    592.00     24.33
 74.37    533.41     23.10
 74.47    632.00     25.14
 74.57    586.05     24.21
 74.67    537.04     23.17
 74.77    642.00     25.34
 74.87    562.93     23.73
 74.97    626.00     25.02
 75.07    529.71     23.02
 75.17    545.82     23.36
 75.27    562.00     23.71
 75.37    596.87     24.43
 75.47    552.00     23.49
 75.57    587.00     24.23
 75.67    568.00     23.83
 75.77    616.00     24.82
 75.87    545.44     23.35
 75.97    602.73     24.55
 76.07    644.00     25.38
 76.17    715.00     26.74
 76.27    657.00     25.63
 76.37    666.00     25.81
 76.47    681.00     26.10
 76.57    689.51     26.26
 76.67    688.00     26.23
 76.77    725.00     26.93
 76.87    649.00     25.48
 76.97    607.39     24.65
 77.07    593.15     24.35
 77.17    643.03     25.36
 77.27    550.00     23.45
 77.37    539.00     23.22
 77.47    569.00     23.85
 77.57    507.99     22.54
 77.67    535.00     23.13
 77.77    585.66     24.20
 77.87    527.26     22.96
 77.97    517.00     22.74
 78.07    538.00     23.19
 78.17    549.72     23.45
 78.27    507.00     22.52
 78.37    538.00     23.19
 78.47    559.58     23.66
 78.57    492.23     22.19
 78.67    508.00     22.54
 78.77    514.00     22.67
 78.87    537.00     23.17
 78.97    511.00     22.61
 79.07    549.36     23.44
 79.17    523.00     22.87
 79.27    498.00     22.32
 79.37    540.15     23.24
 79.47    531.30     23.05
 79.57    585.05     24.19
 79.67    514.51     22.68
 79.77    556.57     23.59
 79.87    516.00     22.72
 79.97    585.16     24.19
 80.07    534.00     23.11
 80.17    542.00     23.28
 80.27    571.00     23.90
 80.37    627.00     25.04
 80.47    593.71     24.37
 80.57    583.00     24.15
 80.67    646.51     25.43
 80.77    637.40     25.25
 80.87    661.00     25.71
 80.97    679.21     26.06
 81.07    744.09     27.28
 81.17    695.00     26.36
 81.27    749.65     27.38
 81.37    767.00     27.69
 81.47    730.00     27.02
 81.57    728.68     26.99
 81.67    785.00     28.02
 81.77    753.00     27.44
 81.87    731.00     27.04
 81.97    638.49     25.27
 82.07    664.67     25.78
 82.17    635.00     25.20
 82.27    611.00     24.72
 82.37    661.22     25.71
 82.47    601.13     24.52
 82.57    582.00     24.12
 82.67    595.00     24.39
 82.77    611.99     24.74
 82.87    579.00     24.06
 82.97    543.25     23.31
 83.07    572.00     23.92
 83.17    587.64     24.24
 83.27    559.07     23.64
 83.37    537.00     23.17
 83.47    597.00     24.43
 83.57    578.00     24.04
 83.67    549.65     23.44
 83.77    563.03     23.73
 83.87    545.00     23.35
 83.97    601.00     24.52
 84.07    552.55     23.51
 84.17    530.00     23.02
 84.27    545.49     23.36
 84.37    550.00     23.45
 84.47    553.38     23.52
 84.57    536.00     23.15
 84.67    589.00     24.27
 84.77    562.00     23.71
 84.87    555.19     23.56
 84.97    549.00     23.43
 85.07    498.00     22.32
 85.17    501.00     22.38
 85.27    525.00     22.91
 85.37    457.00     21.38
 85.47    567.00     23.81
 85.57    531.00     23.04
 85.67    487.60     22.08
 85.77    535.00     23.13
 85.87    530.00     23.02
 85.97    576.00     24.00
 86.07    502.00     22.41
 86.17    503.00     22.43
 86.27    560.00     23.66
 86.37    542.00     23.28
 86.47    574.71     23.97
 86.57    574.00     23.96
 86.67    514.51     22.68
 86.77    563.00     23.73
 86.87    601.00     24.52
 86.97    672.00     25.92
 87.07    600.06     24.50
 87.17    639.00     25.28
 87.27    681.00     26.10
 87.37    609.12     24.68
 87.47    605.84     24.61
 87.57    645.00     25.40
 87.67    660.00     25.69
 87.77    632.00     25.14
 87.87    673.00     25.94
 87.97    634.00     25.18
 88.07    621.00     24.92
 88.17    591.09     24.31
 88.27    621.00     24.92
 88.37    552.00     23.49
 88.47    594.69     24.39
 88.57    608.19     24.66
 88.67    624.00     24.98
 88.77    614.15     24.78
 88.87    619.00     24.88
 88.97    624.00     24.98
 89.07    606.03     24.62
 89.17    554.71     23.55
 89.27    572.00     23.92
 89.37    573.00     23.94
 89.47    606.55     24.63
 89.57    627.00     25.04
 89.67    573.64     23.95
 89.77    583.00     24.15
 89.87    539.50     23.23
 89.97    532.33     23.07
 90.07    586.38     24.22
 90.17    493.00     22.20
 90.27    546.00     23.37
 90.37    536.06     23.15
 90.47    574.30     23.96
 90.57    492.31     22.19
 90.67    522.00     22.85
 90.77    507.00     22.52
 90.87    529.00     23.00
 90.97    488.16     22.09
 91.07    511.00     22.61
 91.17    535.00     23.13
 91.27    568.32     23.84
 91.37    535.42     23.14
 91.47    578.47     24.05
 91.57    533.00     23.09
 91.67    545.07     23.35
 91.77    511.00     22.61
 91.87    535.00     23.13
 91.97    518.41     22.77
 92.07    599.00     24.47
 92.17    577.00     24.02
 92.27    614.03     24.78
 92.37    596.00     24.41
 92.47    585.00     24.19
 92.57    595.45     24.40
 92.67    649.00     25.48
 92.77    710.00     26.65
 92.87    713.00     26.70
 92.97    702.00     26.50
 93.07    722.00     26.87
 93.17    775.00     27.84
 93.27    801.80     28.32
 93.37    755.34     27.48
 93.47    839.86     28.98
 93.57    830.00     28.81
 93.67    826.00     28.74
 93.77    864.00     29.39
 93.87    810.37     28.47
 93.97    775.14     27.84
 94.07    813.14     28.52
 94.17    852.00     29.19
 94.27    886.00     29.77
 94.37    880.00     29.66
 94.47    837.48     28.94
 94.57    903.00     30.05
 94.67    911.00     30.18
 94.77    875.13     29.58
 94.87    966.00     31.08
 94.97    887.00     29.78
 95.07    914.70     30.24
 95.17    879.51     29.66
 95.27    845.00     29.07
 95.37    778.55     27.90
 95.47    786.00     28.04
 95.57    700.07     26.46
 95.67    668.00     25.85
 95.77    719.50     26.82
 95.87    723.00     26.89
 95.97    713.83     26.72
 96.07    704.00     26.53
 96.17    718.00     26.80
 96.27    710.00     26.65
 96.37    768.00     27.71
 96.47    815.00     28.55
 96.57    844.35     29.06
 96.67    986.00     31.40
 96.77   1038.53     32.23
 96.87   1013.00     31.83
 96.97   1070.00     32.71
 97.07   1248.00     35.33
 97.17   1277.00     35.74
 97.27   1398.00     37.39
 97.37   1420.00     37.68
 97.47   1356.00     36.82
 97.57   1472.88     38.38
 97.67   1466.96     38.30
 97.77   1398.18     37.39
 97.87   1378.00     37.12
 97.97   1276.00     35.72
 98.07   1288.00     35.89
 98.17   1180.00     34.35
 98.27   1042.40     32.29
 98.37    993.00     31.51
 98.47    984.00     31.37
 98.57    903.00     30.05
 98.67    827.00     28.76
 98.77    787.00     28.05
 98.87    768.00     27.71
 98.97    769.26     27.74
 99.07    790.00     28.11
 99.17    861.00     29.34
 99.27    895.00     29.92
 99.37    896.00     29.93
 99.47   1062.96     32.60
 99.57   1060.00     32.56
 99.67   1170.27     34.21
 99.77   1310.00     36.19
 99.87   1458.00     38.18
 99.97   1431.01     37.83
100.07   1649.00     40.61
100.17   1789.79     42.31
100.27   1822.50     42.69
100.37   1916.26     43.78
100.47   2010.00     44.83
100.57   2100.28     45.83
100.67   2105.00     45.88
100.77   2047.00     45.24
100.87   2129.00     46.14
100.97   2030.76     45.06
101.07   1958.00     44.25
101.17   1912.34     43.73
101.27   1718.72     41.46
101.37   1735.00     41.65
101.47   1667.89     40.84
101.57   1483.08     38.51
101.67   1450.00     38.08
101.77   1415.18     37.62
101.87   1281.29     35.80
101.97   1221.00     34.94
102.07   1163.00     34.10
102.17   1202.44     34.68
102.27   1130.00     33.62
102.37   1185.86     34.44
102.47   1062.00     32.59
102.57   1089.00     33.00
102.67   1010.64     31.79
102.77   1050.94     32.42
102.87   1017.95     31.91
102.97    915.19     30.25
103.07    958.01     30.95
103.17    822.00     28.67
103.27    866.00     29.43
103.37    791.00     28.12
103.47    793.00     28.16
103.57    735.54     27.12
103.67    682.00     26.12
103.77    680.44     26.09
103.87    662.00     25.73
103.97    627.88     25.06
104.07    625.00     25.00
104.17    602.94     24.55
104.27    583.00     24.15
104.37    609.00     24.68
104.47    586.77     24.22
104.57    544.00     23.32
104.67    591.00     24.31
104.77    486.24     22.05
104.87    561.31     23.69
104.97    505.25     22.48
105.07    556.00     23.58
105.17    534.00     23.11
105.27    547.22     23.39
105.37    573.00     23.94
105.47    575.00     23.98
105.57    546.00     23.37
105.67    532.00     23.07
105.77    555.68     23.57
105.87    512.72     22.64
105.97    550.00     23.45
106.07    575.00     23.98
106.17    600.17     24.50
106.27    595.00     24.39
106.37    590.00     24.29
106.47    628.60     25.07
106.57    564.00     23.75
106.67    624.00     24.98
106.77    665.00     25.79
106.87    633.95     25.18
106.97    655.00     25.59
107.07    657.00     25.63
107.17    705.00     26.55
107.27    679.00     26.06
107.37    703.00     26.51
107.47    631.00     25.12
107.57    670.00     25.88
107.67    684.66     26.17
107.77    704.00     26.53
107.87    640.00     25.30
107.97    695.00     26.36
108.07    628.00     25.06
108.17    713.18     26.71
108.27    693.76     26.34
108.37    702.00     26.50
108.47    739.00     27.18
108.57    692.56     26.32
108.67    692.00     26.31
108.77    642.00     25.34
108.87    660.25     25.70
108.97    647.00     25.44
109.07    666.00     25.81
109.17    687.00     26.21
109.27    701.00     26.48
109.37    632.00     25.14
109.47    676.00     26.00
109.57    663.00     25.75
109.67    670.00     25.88
109.77    628.72     25.07
109.87    558.13     23.62
109.97    572.36     23.92
110.07    609.00     24.68
110.17    547.66     23.40
110.27    548.00     23.41
110.37    545.00     23.35
110.47    546.00     23.37
110.57    582.99     24.15
110.67    549.00     23.43
110.77    556.41     23.59
110.87    576.88     24.02
110.97    554.29     23.54
111.07    524.00     22.89
111.17    520.37     22.81
111.27    580.78     24.10
111.37    504.00     22.45
111.47    532.57     23.08
111.57    528.00     22.98
111.67    542.00     23.28
111.77    512.00     22.63
111.87    533.00     23.09
111.97    587.04     24.23
112.07    586.47     24.22
112.17    559.00     23.64
112.27    574.19     23.96
112.37    591.00     24.31
112.47    601.00     24.52
112.57    578.41     24.05
112.67    607.00     24.64
112.77    632.99     25.16
112.87    684.21     26.16
112.97    630.95     25.12
113.07    697.00     26.40
113.17    673.35     25.95
113.27    769.30     27.74
113.37    738.59     27.18
113.47    724.00     26.91
113.57    851.00     29.17
113.67    848.00     29.12
113.77    906.69     30.11
113.87    924.00     30.40
113.97    934.14     30.56
114.07    950.00     30.82
114.17   1100.00     33.17
114.27   1136.29     33.71
114.37   1247.72     35.32
114.47   1226.01     35.01
114.57   1327.94     36.44
114.67   1592.00     39.90
114.77   1692.00     41.13
114.87   1883.00     43.39
114.97   2131.00     46.16
115.07   2236.65     47.29
115.17   2541.00     50.41
115.27   2783.00     52.75
115.37   3072.00     55.43
115.47   3444.00     58.69
115.57   3758.00     61.30
115.67   3990.00     63.17
115.77   4498.00     67.07
115.87   5050.86     71.07
115.97   5065.00     71.17
116.07   5492.00     74.11
116.17   6021.00     77.60
116.27   6343.00     79.64
116.37   6651.00     81.55
116.47   6684.00     81.76
116.57   7001.00     83.67
116.67   7045.00     83.93
116.77   7108.35     84.31
116.87   6942.00     83.32
116.97   6792.00     82.41
117.07   6342.03     79.64
117.17   6109.84     78.17
117.27   5526.00     74.34
117.37   5326.00     72.98
117.47   4972.00     70.51
117.57   4596.00     67.79
117.67   4392.00     66.27
117.77   3880.00     62.29
117.87   3575.00     59.79
117.97   3215.00     56.70
118.07   2831.56     53.21
118.17   2611.00     51.10
118.27   2272.00     47.67
118.37   1955.00     44.22
118.47   1743.83     41.76
118.57   1489.00     38.59
118.67   1385.00     37.22
118.77   1314.97     36.26
118.87   1200.24     34.64
118.97   1077.68     32.83
119.07    938.00     30.63
119.17    872.00     29.53
119.27    849.00     29.14
119.37    806.00     28.39
119.47    766.00     27.68
119.57    759.51     27.56
119.67    662.86     25.75
119.77    638.00     25.26
119.87    624.00     24.98
119.97    586.46     24.22
120.07    599.00     24.47
120.17    612.19     24.74
120.27    566.00     23.79
120.37    583.30     24.15
120.47    573.00     23.94
120.57    563.91     23.75
120.67    595.18     24.40
120.77    546.00     23.37
120.87    602.00     24.54
120.97    616.62     24.83
121.07    574.04     23.96
121.17    564.00     23.75
121.27    600.00     24.49
121.37    623.17     24.96
121.47    564.00     23.75
121.57    592.83     24.35
121.67    599.00     24.47
121.77    634.66     25.19
121.87    600.26     24.50
121.97    584.00     24.17
122.07    605.00     24.60
122.17    618.00     24.86
122.27    627.00     25.04
122.37    608.96     24.68
122.47    679.00     26.06
122.57    609.00     24.68
122.67    675.51     25.99
122.77    631.45     25.13
122.87    685.00     26.17
122.97    661.09     25.71
123.07    678.00     26.04
123.17    665.00     25.79
123.27    623.00     24.96
123.37    634.00     25.18
123.47    665.00     25.79
123.57    596.00     24.41
123.67    616.00     24.82
123.77    674.00     25.96
123.87    642.76     25.35
123.97    678.52     26.05
124.07    600.00     24.49
124.17    623.00     24.96
124.27    656.00     25.61
124.37    631.00     25.12
124.47    615.00     24.80
124.57    596.95     24.43
124.67    555.15     23.56
124.77    613.00     24.76
124.87    584.94     24.19
124.97    621.00     24.92
