XYDATA



INTER 1.0 1.0 0 0
TEMP 1074.0
  9.97    616.00     24.82
 10.07    587.00     24.23
 10.17    590.00     24.29
 10.27    619.36     24.89
 10.37    614.00     24.78
 10.47    571.00     23.90
 10.57    617.00     24.84
 10.67    622.74     24.95
 10.77    602.00     24.54
 10.87    549.00     23.43
 10.97    577.00     24.02
 11.07    615.00     24.80
 11.17    540.00     23.24
 11.27    613.00     24.76
 11.37    612.31     24.74
 11.47    572.00     23.92
 11.57    599.00     24.47
 11.67    559.37     23.65
 11.77    590.79     24.31
 11.87    587.75     24.24
 11.97    675.00     25.98
 12.07    651.00     25.51
 12.17    702.00     26.50
 12.27    742.10     27.24
 12.37    690.81     26.28
 12.47    659.00     25.67
 12.57    643.35     25.36
 12.67    637.68     25.25
 12.77    560.96     23.68
 12.87    551.71     23.49
 12.97    567.00     23.81
 13.07    578.29     24.05
 13.17    594.00     24.37
 13.27    565.00     23.77
 13.37    565.00     23.77
 13.47    588.00     24.25
 13.57    568.65     23.85
 13.67    598.00     24.45
 13.77    560.00     23.66
 13.87    599.00     24.47
 13.97    578.00     24.04
 14.07    580.00     24.08
 14.17    589.00     24.27
 14.27    520.00     22.80
 14.37    557.23     23.61
 14.47    588.07     24.25
 14.57    548.00     23.41
 14.67    520.00     22.80
 14.77    562.00     23.71
 14.87    581.00     24.10
 14.97    548.16     23.41
 15.07    591.00     24.31
 15.17    526.93     22.95
 15.27    581.00     24.10
 15.37    553.61     23.53
 15.47    558.09     23.62
 15.57    537.34     23.18
 15.67    593.00     24.35
 15.77    553.00     23.52
 15.87    571.00     23.90
 15.97    578.00     24.04
 16.07    548.85     23.43
 16.17    548.00     23.41
 16.27    522.11     22.85
 16.37    556.00     23.58
 16.47    586.74     24.22
 16.57    577.00     24.02
 16.67    557.00     23.60
 16.77    524.00     22.89
 16.87    570.00     23.87
 16.97    554.00     23.54
 17.07    564.60     23.76
 17.17    534.00     23.11
 17.27    535.00     23.13
 17.37    520.82     22.82
 17.47    580.00     24.08
 17.57    549.00     23.43
 17.67    570.00     23.87
 17.77    566.00     23.79
 17.87    530.00     23.02
 17.97    591.98     24.33
 18.07    545.00     23.35
 18.17    550.68     23.47
 18.27    601.73     24.53
 18.37    570.30     23.88
 18.47    590.39     24.30
 18.57    591.46     24.32
 18.67    544.00     23.32
 18.77    592.77     24.35
 18.87    563.00     23.73
 18.97    518.10     22.76
 19.07    544.00     23.32
 19.17    571.00     23.90
 19.27    595.00     24.39
 19.37    568.00     23.83
 19.47    588.00     24.25
 19.57    553.00     23.52
 19.67    584.00     24.17
 19.77    522.00     22.85
 19.87    569.00     23.85
 19.97    588.00     24.25
 20.07    554.00     23.54
 20.17    559.14     23.65
 20.27    565.00     23.77
 20.37    565.59     23.78
 20.47    527.00     22.96
 20.57    529.96     23.02
 20.67    562.27     23.71
 20.77    525.00     22.91
 20.87    593.66     24.37
 20.97    573.25     23.94
 21.07    538.00     23.19
 21.17    539.00     23.22
 21.27    588.00     24.25
 21.37    598.00     24.45
 21.47    539.00     23.22
 21.57    541.00     23.26
 21.67    546.00     23.37
 21.77    562.00     23.71
 21.87    563.00     23.73
 21.97    553.00     23.52
 22.07    600.00     24.49
 22.17    537.00     23.17
 22.27    590.00     24.29
 22.37    574.74     23.97
 22.47    561.00     23.69
 22.57    592.79     24.35
 22.67    549.00     23.43
 22.77    536.62     23.17
 22.87    559.00     23.64
 22.97    532.48     23.08
 23.07    512.55     22.64
 23.17    518.00     22.76
 23.27    543.00     23.30
 23.37    563.00     23.73
 23.47    538.00     23.19
 23.57    529.00     23.00
 23.67    578.74     24.06
 23.77    533.00     23.09
 23.87    589.00     24.27
 23.97    583.33     24.15
 24.07    523.00     22.87
 24.17    562.00     23.71
 24.27    549.00     23.43
 24.37    557.61     23.61
 24.47    547.29     23.39
 24.57    606.71     24.63
 24.67    655.54     25.60
 24.77    640.00     25.30
 24.87    622.00     24.94
 24.97    620.00     24.90
 25.07    605.00     24.60
 25.17    552.00     23.49
 25.27    574.96     23.98
 25.37    523.00     22.87
 25.47    573.00     23.94
 25.57    569.49     23.86
 25.67    534.22     23.11
 25.77    566.59     23.80
 25.87    559.00     23.64
 25.97    568.56     23.84
 26.07    553.00     23.52
 26.17    584.00     24.17
 26.27    546.00     23.37
 26.37    519.61     22.79
 26.47    589.00     24.27
 26.57    561.00     23.69
 26.67    547.00     23.39
 26.77    538.00     23.19
 26.87    565.00     23.77
 26.97    553.16     23.52
 27.07    571.21     23.90
 27.17    559.00     23.64
 27.27    557.00     23.60
 27.37    518.69     22.77
 27.47    578.00     24.04
 27.57    544.00     23.32
 27.67    559.00     23.64
 27.77    554.00     23.54
 27.87    585.37     24.19
 27.97    641.00     25.32
 28.07    750.00     27.39
 28.17    835.00     28.90
 28.27    921.00     30.35
 28.37    923.00     30.38
 28.47    796.07     28.21
 28.57    753.39     27.45
 28.67    729.58     27.01
 28.77    747.92     27.35
 28.87    834.00     28.88
 28.97    819.00     28.62
 29.07    755.46     27.49
 29.17    769.00     27.73
 29.27    603.56     24.57
 29.37    580.00     24.08
 29.47    572.00     23.92
 29.57    554.26     23.54
 29.67    590.16     24.29
 29.77    564.42     23.76
 29.87    598.00     24.45
 29.97    559.00     23.64
 30.07    618.00     24.86
 30.17    545.00     23.35
 30.27    567.00     23.81
 30.37    557.00     23.60
 30.47    553.32     23.52
 30.57    555.00     23.56
 30.67    579.00     24.06
 30.77    585.95     24.21
 30.87    604.00     24.58
 30.97    563.59     23.74
 31.07    616.07     24.82
 31.17    532.00     23.07
 31.27    560.00     23.66
 31.37    502.26     22.41
 31.47    543.00     23.30
 31.57    548.00     23.41
 31.67    534.00     23.11
 31.77    518.00     22.76
 31.87    557.00     23.60
 31.97    503.00     22.43
 32.07    560.07     23.67
 32.17    505.00     22.47
 32.27    584.00     24.17
 32.37    501.00     22.38
 32.47    550.00     23.45
 32.57    552.00     23.49
 32.67    510.00     22.58
 32.77    528.00     22.98
 32.87    534.00     23.11
 32.97    512.00     22.63
 33.07    556.00     23.58
 33.17    547.00     23.39
 33.27    554.00     23.54
 33.37    579.16     24.07
 33.47    574.00     23.96
 33.57    573.25     23.94
 33.67    674.00     25.96
 33.77    727.00     26.96
 33.87    917.00     30.28
 33.97   1019.07     31.92
 34.07   1013.00     31.83
 34.17    988.00     31.43
 34.27    870.05     29.50
 34.37    798.39     28.26
 34.47    634.48     25.19
 34.57    620.10     24.90
 34.67    563.73     23.74
 34.77    564.00     23.75
 34.87    515.15     22.70
 34.97    528.00     22.98
 35.07    515.00     22.69
 35.17    531.26     23.05
 35.27    554.00     23.54
 35.37    505.00     22.47
 35.47    481.00     21.93
 35.57    526.00     22.93
 35.67    498.00     22.32
 35.77    508.24     22.54
 35.87    550.00     23.45
 35.97    520.00     22.80
 36.07    535.00     23.13
 36.17    479.67     21.90
 36.27    531.00     23.04
 36.37    517.00     22.74
 36.47    485.00     22.02
 36.57    477.00     21.84
 36.67    538.03     23.20
 36.77    509.00     22.56
 36.87    539.00     23.22
 36.97    541.02     23.26
 37.07    499.00     22.34
 37.17    520.19     22.81
 37.27    559.68     23.66
 37.37    477.04     21.84
 37.47    515.00     22.69
 37.57    553.00     23.52
 37.67    522.00     22.85
 37.77    532.00     23.07
 37.87    499.00     22.34
 37.97    552.27     23.50
 38.07    526.00     22.93
 38.17    559.62     23.66
 38.27    480.35     21.92
 38.37    511.00     22.61
 38.47    485.00     22.02
 38.57    543.34     23.31
 38.67    497.19     22.30
 38.77    522.00     22.85
 38.87    521.00     22.83
 38.97    515.00     22.69
 39.07    535.82     23.15
 39.17    498.00     22.32
 39.27    514.00     22.67
 39.37    484.00     22.00
 39.47    524.30     22.90
 39.57    489.86     22.13
 39.67    535.43     23.14
 39.77    467.94     21.63
 39.87    492.00     22.18
 39.97    533.28     23.09
 40.07    500.00     22.36
 40.17    536.99     23.17
 40.27    514.00     22.67
 40.37    512.04     22.63
 40.47    492.00     22.18
 40.57    473.00     21.75
 40.67    491.00     22.16
 40.77    497.00     22.29
 40.87    540.17     23.24
 40.97    526.00     22.93
 41.07    522.00     22.85
 41.17    518.00     22.76
 41.27    528.00     22.98
 41.37    544.00     23.32
 41.47    487.00     22.07
 41.57    471.00     21.70
 41.67    507.00     22.52
 41.77    499.17     22.34
 41.87    530.80     23.04
 41.97    516.98     22.74
 42.07    490.00     22.14
 42.17    531.00     23.04
 42.27    495.45     22.26
 42.37    522.00     22.85
 42.47    611.00     24.72
 42.57    610.00     24.70
 42.67    645.52     25.41
 42.77    606.00     24.62
 42.87    585.00     24.19
 42.97    527.00     22.96
 43.07    513.00     22.65
 43.17    491.69     22.17
 43.27    512.18     22.63
 43.37    498.00     22.32
 43.47    552.46     23.50
 43.57    502.00     22.41
 43.67    541.62     23.27
 43.77    508.22     22.54
 43.87    506.00     22.49
 43.97    498.73     22.33
 44.07    527.00     22.96
 44.17    506.00     22.49
 44.27    481.42     21.94
 44.37    517.00     22.74
 44.47    489.00     22.11
 44.57    472.62     21.74
 44.67    444.00     21.07
 44.77    494.00     22.23
 44.87    549.29     23.44
 44.97    491.00     22.16
 45.07    478.00     21.86
 45.17    487.00     22.07
 45.27    517.00     22.74
 45.37    503.79     22.45
 45.47    505.00     22.47
 45.57    548.18     23.41
 45.67    497.00     22.29
 45.77    470.01     21.68
 45.87    500.00     22.36
 45.97    521.84     22.84
 46.07    475.00     21.79
 46.17    542.99     23.30
 46.27    519.00     22.78
 46.37    508.00     22.54
 46.47    517.00     22.74
 46.57    505.00     22.47
 46.67    521.00     22.83
 46.77    491.01     22.16
 46.87    519.00     22.78
 46.97    540.82     23.26
 47.07    533.55     23.10
 47.17    496.00     22.27
 47.27    513.15     22.65
 47.37    505.50     22.48
 47.47    507.00     22.52
 47.57    531.19     23.05
 47.67    585.00     24.19
 47.77    602.04     24.54
 47.87    633.50     25.17
 47.97    582.00     24.12
 48.07    615.00     24.80
 48.17    591.00     24.31
 48.27    564.00     23.75
 48.37    544.00     23.32
 48.47    580.43     24.09
 48.57    553.02     23.52
 48.67    523.00     22.87
 48.77    495.17     22.25
 48.87    504.00     22.45
 48.97    523.00     22.87
 49.07    600.00     24.49
 49.17    542.00     23.28
 49.27    629.00     25.08
 49.37    655.00     25.59
 49.47    701.00     26.48
 49.57    782.00     27.96
 49.67    875.00     29.58
 49.77   1079.00     32.85
 49.87   1434.00     37.87
 49.97   1835.00     42.84
 50.07   2257.00     47.51
 50.17   2461.00     49.61
 50.27   2515.00     50.15
 50.37   2300.00     47.96
 50.47   1850.00     43.01
 50.57   1407.03     37.51
 50.67   1061.00     32.57
 50.77    912.00     30.20
 50.87    710.00     26.65
 50.97    657.00     25.63
 51.07    621.73     24.93
 51.17    614.00     24.78
 51.27    620.75     24.91
 51.37    584.00     24.17
 51.47    549.00     23.43
 51.57    567.63     23.83
 51.67    624.00     24.98
 51.77    520.00     22.80
 51.87    522.30     22.85
 51.97    557.00     23.60
 52.07    577.00     24.02
 52.17    573.00     23.94
 52.27    606.00     24.62
 52.37    531.23     23.05
 52.47    547.96     23.41
 52.57    555.34     23.57
 52.67    565.06     23.77
 52.77    636.00     25.22
 52.87    625.46     25.01
 52.97    769.00     27.73
 53.07    794.00     28.18
 53.17    861.00     29.34
 53.27   1035.00     32.17
 53.37   1176.41     34.30
 53.47   1194.00     34.55
 53.57   1169.00     34.19
 53.67   1147.97     33.88
 53.77   1048.12     32.37
 53.87    920.85     30.35
 53.97    725.00     26.93
 54.07    718.00     26.80
 54.17    677.00     26.02
 54.27    618.00     24.86
 54.37    612.34     24.75
 54.47    567.00     23.81
 54.57    576.00     24.00
 54.67    577.73     24.04
 54.77    542.00     23.28
 54.87    505.63     22.49
 54.97    565.60     23.78
 55.07    564.00     23.75
 55.17    585.00     24.19
 55.27    571.00     23.90
 55.37    558.70     23.64
 55.47    562.00     23.71
 55.57    540.18     23.24
 55.67    585.00     24.19
 55.77    566.00     23.79
 55.87    564.00     23.75
 55.97    620.00     24.90
 56.07    711.19     26.67
 56.17    745.00     27.29
 56.27    884.54     29.74
 56.37   1135.00     33.69
 56.47   1455.00     38.14
 56.57   1711.00     41.36
 56.67   2149.00     46.36
 56.77   2508.00     50.08
 56.87   2603.00     51.02
 56.97   2635.11     51.33
 57.07   2344.00     48.41
 57.17   2084.73     45.66
 57.27   1714.00     41.40
 57.37   1326.00     36.41
 57.47   1018.00     31.91
 57.57    847.00     29.10
 57.67    803.00     28.34
 57.77    672.40     25.93
 57.87    681.00     26.10
 57.97    667.00     25.83
 58.07    680.99     26.10
 58.17    700.00     26.46
 58.27    762.54     27.61
 58.37    806.00     28.39
 58.47    925.00     30.41
 58.57   1026.63     32.04
 58.67   1222.00     34.96
 58.77   1305.25     36.13
 58.87   1431.00     37.83
 58.97   1445.17     38.02
 59.07   1547.00     39.33
 59.17   1457.00     38.17
 59.27   1405.00     37.48
 59.37   1314.13     36.25
 59.47   1266.00     35.58
 59.57   1144.00     33.82
 59.67   1154.00     33.97
 59.77   1183.00     34.39
 59.87   1279.00     35.76
 59.97   1245.82     35.30
 60.07   1404.00     37.47
 60.17   1498.00     38.70
 60.27   1603.00     40.04
 60.37   1555.00     39.43
 60.47   1421.17     37.70
 60.57   1271.00     35.65
 60.67    997.95     31.59
 60.77    930.00     30.50
 60.87    827.79     28.77
 60.97    738.00     27.17
 61.07    678.00     26.04
 61.17    667.00     25.83
 61.27    668.69     25.86
 61.37    652.00     25.53
 61.47    735.40     27.12
 61.57    803.45     28.35
 61.67    889.00     29.82
 61.77    992.00     31.50
 61.87   1102.00     33.20
 61.97   1228.00     35.04
 62.07   1389.93     37.28
 62.17   1417.44     37.65
 62.27   1416.00     37.63
 62.37   1275.19     35.71
 62.47   1259.28     35.49
 62.57   1051.66     32.43
 62.67    876.64     29.61
 62.77    747.75     27.34
 62.87    661.00     25.71
 62.97    673.00     25.94
 63.07    578.72     24.06
 63.17    616.92     24.84
 63.27    613.00     24.76
 63.37    596.74     24.43
 63.47    545.97     23.37
 63.57    553.46     23.53
 63.67    559.62     23.66
 63.77    636.00     25.22
 63.87    650.66     25.51
 63.97    647.00     25.44
 64.07    647.26     25.44
 64.17    778.00     27.89
 64.27    804.55     28.36
 64.37    885.00     29.75
 64.47    917.04     30.28
 64.57   1028.00     32.06
 64.67    995.00     31.54
 64.77   1074.00     32.77
 64.87    918.00     30.30
 64.97    942.00     30.69
 65.07    797.49     28.24
 65.17    800.00     28.28
 65.27    693.87     26.34
 65.37    671.00     25.90
 65.47    630.00     25.10
 65.57    677.04     26.02
 65.67    648.21     25.46
 65.77    543.00     23.30
 65.87    572.43     23.93
 65.97    587.31     24.23
 66.07    547.00     23.39
 66.17    537.00     23.17
 66.27    500.00     22.36
 66.37    585.71     24.20
 66.47    570.00     23.87
 66.57    566.00     23.79
 66.67    570.92     23.89
 66.77    588.00     24.25
 66.87    555.00     23.56
 66.97    652.83     25.55
 67.07    693.19     26.33
 67.17    701.00     26.48
 67.27    792.00     28.14
 67.37    891.00     29.85
 67.47   1103.28     33.22
 67.57   1289.00     35.90
 67.67   1523.00     39.03
 67.77   1757.00     41.92
 67.87   2120.00     46.04
 67.97   2341.33     48.39
 68.07   2444.34     49.44
 68.17   2464.44     49.64
 68.27   2228.35     47.21
 68.37   2097.00     45.79
 68.47   1830.00     42.78
 68.57   1491.00     38.61
 68.67   1278.00     35.75
 68.77   1029.61     32.09
 68.87    848.29     29.13
 68.97    791.00     28.12
 69.07    689.00     26.25
 69.17    645.23     25.40
 69.27    636.58     25.23
 69.37    571.00     23.90
 69.47    611.00     24.72
 69.57    549.37     23.44
 69.67    570.00     23.87
 69.77    549.00     23.43
 69.87    566.97     23.81
 69.97    570.07     23.88
 70.07    594.00     24.37
 70.17    589.00     24.27
 70.27    566.96     23.81
 70.37    562.00     23.71
 70.47    578.00     24.04
 70.57    528.88     23.00
 70.67    553.06     23.52
 70.77    582.00     24.12
 70.87    577.00     24.02
 70.97    648.54     25.47
 71.07    653.80     25.57
 71.17    724.00     26.91
 71.27    849.20     29.14
 71.37    962.00     31.02
 71.47   1148.02     33.88
 71.57   1227.00     35.03
 71.67   1389.89     37.28
 71.77   1640.00     40.50
 71.87   1829.57     42.77
 71.97   1907.66     43.68
 72.07   1969.00     44.37
 72.17   1877.33     43.33
 72.27   1818.73     42.65
 72.37   1576.45     39.70
 72.47   1484.80     38.53
 72.57   1308.00     36.17
 72.67   1140.00     33.76
 72.77   1061.00     32.57
 72.87    945.33     30.75
 72.97    848.00     29.12
 73.07    791.00     28.12
 73.17    709.00     26.63
 73.27    707.00     26.59
 73.37    666.00     25.81
 73.47    612.41     24.75
 73.57    635.87     25.22
 73.67    603.00     24.56
 73.77    588.00     24.25
 73.87    548.28     23.42
 73.97    575.00     23.98
 74.07    582.00     24.12
 74.17    601.00     24.52
 74.27    643.00     25.36
 74.37    586.00     24.21
 74.47    658.00     25.65
 74.57    563.96     23.75
 74.67    587.54     24.24
 74.77    643.00     25.36
 74.87    561.99     23.71
 74.97    591.00     24.31
 75.07    616.00     24.82
 75.17    578.00     24.04
 75.27    551.00     23.47
 75.37    595.04     24.39
 75.47    576.00     24.00
 75.57    561.90     23.70
 75.67    608.00     24.66
 75.77    624.12     24.98
 75.87    569.55     23.87
 75.97    625.00     25.00
 76.07    664.00     25.77
 76.17    655.00     25.59
 76.27    692.00     26.31
 76.37    662.55     25.74
 76.47    657.05     25.63
 76.57    692.07     26.31
 76.67    714.16     26.72
 76.77    665.00     25.79
 76.87    656.00     25.61
 76.97    644.00     25.38
 77.07    588.58     24.26
 77.17    600.00     24.49
 77.27    625.89     25.02
 77.37    483.00     21.98
 77.47    559.48     23.65
 77.57    583.14     24.15
 77.67    520.75     22.82
 77.77    544.00     23.32
 77.87    512.00     22.63
 77.97    529.00     23.00
 78.07    509.45     22.57
 78.17    536.37     23.16
 78.27    533.00     23.09
 78.37    494.75     22.24
 78.47    512.27     22.63
 78.57    508.00     22.54
 78.67    507.53     22.53
 78.77    539.56     23.23
 78.87    555.38     23.57
 78.97    490.49     22.15
 79.07    506.00     22.49
 79.17    491.89     22.18
 79.27    523.00     22.87
 79.37    543.00     23.30
 79.47    562.34     23.71
 79.57    533.00     23.09
 79.67    578.80     24.06
 79.77    536.06     23.15
 79.87    538.00     23.19
 79.97    589.98     24.29
 80.07    554.00     23.54
 80.17    538.00     23.19
 80.27    597.00     24.43
 80.37    614.68     24.79
 80.47    636.29     25.22
 80.57    645.66     25.41
 80.67    600.00     24.49
 80.77    609.83     24.69
 80.87    657.00     25.63
 80.97    687.00     26.21
 81.07    687.45     26.22
 81.17    778.00     27.89
 81.27    739.49     27.19
 81.37    754.00     27.46
 81.47    741.00     27.22
 81.57    734.00     27.09
 81.67    692.38     26.31
 81.77    759.70     27.56
 81.87    677.25     26.02
 81.97    702.00     26.50
 82.07    716.00     26.76
 82.17    675.64     25.99
 82.27    677.00     26.02
 82.37    630.96     25.12
 82.47    635.00     25.20
 82.57    583.00     24.15
 82.67    568.85     23.85
 82.77    590.00     24.29
 82.87    558.00     23.62
 82.97    582.00     24.12
 83.07    556.06     23.58
 83.17    498.00     22.32
 83.27    587.12     24.23
 83.37    545.01     23.35
 83.47    542.00     23.28
 83.57    572.40     23.92
 83.67    601.87     24.53
 83.77    544.12     23.33
 83.87    615.00     24.80
 83.97    577.00     24.02
 84.07    613.00     24.76
 84.17    588.00     24.25
 84.27    572.59     23.93
 84.37    575.00     23.98
 84.47    544.00     23.32
 84.57    564.00     23.75
 84.67    556.00     23.58
 84.77    558.00     23.62
 84.87    500.77     22.38
 84.97    542.00     23.28
 85.07    490.76     22.15
 85.17    536.00     23.15
 85.27    499.00     22.34
 85.37    494.06     22.23
 85.47    521.00     22.83
 85.57    562.32     23.71
 85.67    512.00     22.63
 85.77    515.00     22.69
 85.87    572.62     23.93
 85.97    543.00     23.30
 86.07    554.06     23.54
 86.17    536.00     23.15
 86.27    557.00     23.60
 86.37    511.00     22.61
 86.47    530.88     23.04
 86.57    575.00     23.98
 86.67    612.00     24.74
 86.77    568.00     23.83
 86.87    623.00     24.96
 86.97    613.00     24.76
 87.07    617.00     24.84
 87.17    636.85     25.24
 87.27    636.00     25.22
 87.37    650.00     25.50
 87.47    632.00     25.14
 87.57    655.00     25.59
 87.67    685.00     26.17
 87.77    639.00     25.28
 87.87    625.00     25.00
 87.97    618.00     24.86
 88.07    603.00     24.56
 88.17    534.81     23.13
 88.27    560.00     23.66
 88.37    595.13     24.40
 88.47    572.17     23.92
 88.57    590.00     24.29
 88.67    559.00     23.64
 88.77    587.94     24.25
 88.87    558.00     23.62
 88.97    576.00     24.00
 89.07    620.00     24.90
 89.17    563.71     23.74
 89.27    575.00     23.98
 89.37    594.93     24.39
 89.47    572.88     23.93
 89.57    548.00     23.41
 89.67    581.00     24.10
 89.77    569.02     23.85
 89.87    579.62     24.08
 89.97    530.00     23.02
 90.07    578.00     24.04
 90.17    536.00     23.15
 90.27    579.00     24.06
 90.37    582.67     24.14
 90.47    580.46     24.09
 90.57    537.00     23.17
 90.67    571.20     23.90
 90.77    527.00     22.96
 90.87    525.00     22.91
 90.97    509.00     22.56
 91.07    560.02     23.66
 91.17    541.00     23.26
 91.27    518.75     22.78
 91.37    538.00     23.19
 91.47    572.63     23.93
 91.57    516.00     22.72
 91.67    578.00     24.04
 91.77    536.00     23.15
 91.87    510.00     22.58
 91.97    556.00     23.58
 92.07    582.66     24.14
 92.17    545.70     23.36
 92.27    571.00     23.90
 92.37    599.62     24.49
 92.47    653.00     25.55
 92.57    619.98     24.90
 92.67    703.00     26.51
 92.77    662.00     25.73
 92.87    728.00     26.98
 92.97    724.00     26.91
 93.07    771.18     27.77
 93.17    780.05     27.93
 93.27    812.00     28.50
 93.37    806.10     28.39
 93.47    848.07     29.12
 93.57    857.00     29.27
 93.67    772.57     27.80
 93.77    792.00     28.14
 93.87    783.63     27.99
 93.97    772.00     27.78
 94.07    810.00     28.46
 94.17    824.00     28.71
 94.27    876.00     29.60
 94.37    925.00     30.41
 94.47    932.00     30.53
 94.57    893.00     29.88
 94.67    898.00     29.97
 94.77    914.07     30.23
 94.87    973.00     31.19
 94.97    911.00     30.18
 95.07    831.27     28.83
 95.17    841.00     29.00
 95.27    766.44     27.68
 95.37    793.00     28.16
 95.47    821.00     28.65
 95.57    781.18     27.95
 95.67    732.00     27.06
 95.77    688.26     26.23
 95.87    713.75     26.72
 95.97    713.00     26.70
 96.07    725.00     26.93
 96.17    719.00     26.81
 96.27    676.80     26.02
 96.37    769.00     27.73
 96.47    851.00     29.17
 96.57    839.00     28.97
 96.67    990.00     31.46
 96.77   1019.21     31.93
 96.87   1008.10     31.75
 96.97   1088.60     32.99
 97.07   1216.55     34.88
 97.17   1245.14     35.29
 97.27   1302.98     36.10
 97.37   1440.00     37.95
 97.47   1452.92     38.12
 97.57   1475.83     38.42
 97.67   1484.46     38.53
 97.77   1401.00     37.43
 97.87   1348.80     36.73
 97.97   1308.00     36.17
 98.07   1182.53     34.39
 98.17   1170.69     34.22
 98.27   1074.91     32.79
 98.37   1001.00     31.64
 98.47    936.00     30.59
 98.57    860.79     29.34
 98.67    880.67     29.68
 98.77    833.64     28.87
 98.87    852.00     29.19
 98.97    810.00     28.46
 99.07    799.00     28.27
 99.17    816.00     28.57
 99.27    849.00     29.14
 99.37    923.07     30.38
 99.47   1014.34     31.85
 99.57   1103.00     33.21
 99.67   1157.00     34.01
 99.77   1288.00     35.89
 99.87   1369.23     37.00
 99.97   1557.00     39.46
100.07   1592.00     39.90
100.17   1770.00     42.07
100.27   1789.84     42.31
100.37   1903.00     43.62
100.47   2007.00     44.80
100.57   2119.53     46.04
100.67   2005.00     44.78
100.77   2076.00     45.56
100.87   2078.64     45.59
100.97   1951.08     44.17
101.07   1955.00     44.22
101.17   1918.00     43.79
101.27   1815.00     42.60
101.37   1649.62     40.62
101.47   1652.74     40.65
101.57   1544.16     39.30
101.67   1504.90     38.79
101.77   1409.34     37.54
101.87   1297.00     36.01
101.97   1208.18     34.76
102.07   1203.00     34.68
102.17   1141.00     33.78
102.27   1166.25     34.15
102.37   1073.90     32.77
102.47   1147.00     33.87
102.57   1071.00     32.73
102.67   1020.00     31.94
102.77    977.00     31.26
102.87   1049.00     32.39
102.97    977.00     31.26
103.07    970.50     31.15
103.17    897.00     29.95
103.27    808.00     28.43
103.37    856.52     29.27
103.47    813.00     28.51
103.57    755.62     27.49
103.67    672.00     25.92
103.77    740.00     27.20
103.87    629.00     25.08
103.97    606.91     24.64
104.07    619.68     24.89
104.17    566.00     23.79
104.27    556.00     23.58
104.37    535.00     23.13
104.47    569.00     23.85
104.57    554.73     23.55
104.67    550.00     23.45
104.77    594.00     24.37
104.87    622.00     24.94
104.97    553.77     23.53
105.07    535.00     23.13
105.17    536.00     23.15
105.27    515.72     22.71
105.37    551.00     23.47
105.47    555.00     23.56
105.57    545.00     23.35
105.67    548.46     23.42
105.77    527.00     22.96
105.87    557.23     23.61
105.97    565.68     23.78
106.07    565.14     23.77
106.17    572.00     23.92
106.27    587.00     24.23
106.37    638.00     25.26
106.47    626.41     25.03
106.57    638.80     25.27
106.67    652.52     25.54
106.77    635.10     25.20
106.87    619.00     24.88
106.97    642.28     25.34
107.07    715.59     26.75
107.17    702.67     26.51
107.27    713.06     26.70
107.37    661.00     25.71
107.47    686.00     26.19
107.57    718.12     26.80
107.67    723.00     26.89
107.77    664.00     25.77
107.87    699.00     26.44
107.97    703.00     26.51
108.07    642.00     25.34
108.17    646.00     25.42
108.27    685.00     26.17
108.37    603.00     24.56
108.47    663.63     25.76
108.57    688.00     26.23
108.67    737.00     27.15
108.77    676.00     26.00
108.87    735.00     27.11
108.97    683.00     26.13
109.07    715.00     26.74
109.17    679.74     26.07
109.27    669.27     25.87
109.37    648.00     25.46
109.47    633.03     25.16
109.57    648.54     25.47
109.67    668.53     25.86
109.77    634.51     25.19
109.87    639.00     25.28
109.97    662.00     25.73
110.07    584.00     24.17
110.17    622.00     24.94
110.27    588.00     24.25
110.37    559.00     23.64
110.47    537.28     23.18
110.57    523.00     22.87
110.67    496.38     22.28
110.77    533.00     23.09
110.87    568.00     23.83
110.97    579.00     24.06
111.07    533.56     23.10
111.17    535.94     23.15
111.27    536.00     23.15
111.37    530.00     23.02
111.47    560.00     23.66
111.57    497.00     22.29
111.67    553.92     23.54
111.77    561.84     23.70
111.87    545.71     23.36
111.97    615.00     24.80
112.07    599.87     24.49
112.17    606.00     24.62
112.27    538.00     23.19
112.37    534.10     23.11
112.47    565.00     23.77
112.57    565.00     23.77
112.67    585.00     24.19
112.77    618.00     24.86
112.87    590.00     24.29
112.97    616.00     24.82
113.07    619.75     24.89
113.17    675.00     25.98
113.27    728.11     26.98
113.37    733.20     27.08
113.47    744.00     27.28
113.57    749.00     27.37
113.67    818.00     28.60
113.77    843.00     29.03
113.87    950.56     30.83
113.97    906.00     30.10
114.07   1048.00     32.37
114.17   1070.00     32.71
114.27   1065.24     32.64
114.37   1141.00     33.78
114.47   1322.00     36.36
114.57   1405.98     37.50
114.67   1462.01     38.24
114.77   1722.00     41.50
114.87   1906.00     43.66
114.97   2195.00     46.85
115.07   2291.62     47.87
115.17   2589.20     50.88
115.27   2935.00     54.18
115.37   3145.00     56.08
115.47   3429.05     58.56
115.57   3790.00     61.56
115.67   4206.00     64.85
115.77   4471.00     66.87
115.87   4822.00     69.44
115.97   5190.00     72.04
116.07   5551.00     74.51
116.17   6186.00     78.65
116.27   6204.00     78.77
116.37   6479.07     80.49
116.47   6777.17     82.32
116.57   6880.00     82.95
116.67   6866.00     82.86
116.77   6984.00     83.57
116.87   6802.00     82.47
116.97   6566.16     81.03
117.07   6495.00     80.59
117.17   5871.00     76.62
117.27   5666.00     75.27
117.37   5496.35     74.14
117.47   4865.00     69.75
117.57   4542.00     67.39
117.67   4250.00     65.19
117.77   3955.00     62.89
117.87   3621.00     60.17
117.97   3065.56     55.37
118.07   2900.00     53.85
118.17   2635.00     51.33
118.27   2229.00     47.21
118.37   2036.00     45.12
118.47   1809.00     42.53
118.57   1670.59     40.87
118.67   1370.00     37.01
118.77   1341.44     36.63
118.87   1169.00     34.19
118.97   1095.00     33.09
119.07   1029.00     32.08
119.17    841.00     29.00
119.27    804.70     28.37
119.37    760.00     27.57
119.47    751.00     27.40
119.57    736.00     27.13
119.67    686.00     26.19
119.77    675.00     25.98
119.87    653.00     25.55
119.97    628.74     25.07
120.07    598.00     24.45
120.17    644.04     25.38
120.27    560.92     23.68
120.37    583.00     24.15
120.47    570.00     23.87
120.57    581.00     24.10
120.67    572.93     23.94
120.77    606.00     24.62
120.87    565.00     23.77
120.97    547.00     23.39
121.07    592.00     24.33
121.17    567.00     23.81
121.27    554.00     23.54
121.37    590.00     24.29
121.47    570.00     23.87
121.57    557.00     23.60
121.67    578.00     24.04
121.77    586.00     24.21
121.87    607.00     24.64
121.97    622.00     24.94
122.07    638.00     25.26
122.17    616.95     24.84
122.27    581.00     24.10
122.37    627.41     25.05
122.47    647.00     25.44
122.57    603.00     24.56
122.67    611.00     24.72
122.77    681.00     26.10
122.87    601.55     24.53
122.97    639.68     25.29
123.07    656.00     25.61
123.17    655.47     25.60
123.27    664.00     25.77
123.37    638.78     25.27
123.47    649.00     25.48
123.57    646.00     25.42
123.67    593.12     24.35
123.77    620.00     24.90
123.87    630.00     25.10
123.97    640.70     25.31
124.07    585.68     24.20
124.17    547.00     23.39
124.27    617.00     24.84
124.37    590.00     24.29
124.47    622.00     24.94
124.57    592.00     24.33
124.67    594.00     24.37
124.77    573.36     23.94
124.87    575.00     23.98
124.97    608.00     24.66
