XYDATA



INTER 1.0 1.0 0 0
TEMP 583.157
  9.97    706.00     26.57
 10.07    732.94     27.07
 10.17    729.46     27.01
 10.27    675.00     25.98
 10.37    748.00     27.35
 10.47    638.84     25.28
 10.57    738.00     27.17
 10.67    734.44     27.10
 10.77    738.00     27.17
 10.87    689.00     26.25
 10.97    642.64     25.35
 11.07    683.00     26.13
 11.17    714.00     26.72
 11.27    746.00     27.31
 11.37    719.00     26.81
 11.47    654.30     25.58
 11.57    712.00     26.68
 11.67    758.00     27.53
 11.77    729.00     27.00
 11.87    748.53     27.36
 11.97    807.00     28.41
 12.07    868.00     29.46
 12.17    776.00     27.86
 12.27    826.55     28.75
 12.37    852.00     29.19
 12.47    820.00     28.64
 12.57    740.00     27.20
 12.67    675.00     25.98
 12.77    670.00     25.88
 12.87    648.00     25.46
 12.97    638.93     25.28
 13.07    612.00     24.74
 13.17    663.00     25.75
 13.27    661.00     25.71
 13.37    683.84     26.15
 13.47    627.00     25.04
 13.57    630.00     25.10
 13.67    662.00     25.73
 13.77    685.00     26.17
 13.87    719.00     26.81
 13.97    642.00     25.34
 14.07    673.00     25.94
 14.17    684.81     26.17
 14.27    662.10     25.73
 14.37    634.00     25.18
 14.47    666.00     25.81
 14.57    655.00     25.59
 14.67    640.00     25.30
 14.77    644.73     25.39
 14.87    648.00     25.46
 14.97    660.00     25.69
 15.07    670.00     25.88
 15.17    618.00     24.86
 15.27    679.00     26.06
 15.37    643.00     25.36
 15.47    631.00     25.12
 15.57    602.00     24.54
 15.67    650.25     25.50
 15.77    642.00     25.34
 15.87    698.76     26.43
 15.97    609.00     24.68
 16.07    655.40     25.60
 16.17    626.05     25.02
 16.27    678.23     26.04
 16.37    689.63     26.26
 16.47    610.80     24.71
 16.57    601.00     24.52
 16.67    606.00     24.62
 16.77    608.13     24.66
 16.87    634.00     25.18
 16.97    632.00     25.14
 17.07    598.00     24.45
 17.17    618.26     24.86
 17.27    631.00     25.12
 17.37    597.34     24.44
 17.47    652.00     25.53
 17.57    602.00     24.54
 17.67    607.00     24.64
 17.77    623.00     24.96
 17.87    596.00     24.41
 17.97    623.00     24.96
 18.07    626.63     25.03
 18.17    640.00     25.30
 18.27    619.00     24.88
 18.37    669.41     25.87
 18.47    663.09     25.75
 18.57    623.00     24.96
 18.67    657.00     25.63
 18.77    625.00     25.00
 18.87    610.00     24.70
 18.97    628.00     25.06
 19.07    593.00     24.35
 19.17    624.00     24.98
 19.27    596.56     24.42
 19.37    670.53     25.89
 19.47    628.00     25.06
 19.57    576.00     24.00
 19.67    656.00     25.61
 19.77    575.00     23.98
 19.87    615.00     24.80
 19.97    615.00     24.80
 20.07    607.00     24.64
 20.17    599.89     24.49
 20.27    613.67     24.77
 20.37    596.00     24.41
 20.47    609.00     24.68
 20.57    629.36     25.09
 20.67    619.00     24.88
 20.77    575.48     23.99
 20.87    658.00     25.65
 20.97    591.27     24.32
 21.07    628.00     25.06
 21.17    601.00     24.52
 21.27    614.00     24.78
 21.37    589.19     24.27
 21.47    593.00     24.35
 21.57    608.07     24.66
 21.67    604.00     24.58
 21.77    652.69     25.55
 21.87    664.29     25.77
 21.97    615.10     24.80
 22.07    607.00     24.64
 22.17    620.00     24.90
 22.27    612.00     24.74
 22.37    619.00     24.88
 22.47    646.00     25.42
 22.57    598.00     24.45
 22.67    616.00     24.82
 22.77    649.00     25.48
 22.87    612.00     24.74
 22.97    623.76     24.98
 23.07    594.00     24.37
 23.17    624.00     24.98
 23.27    647.00     25.44
 23.37    616.98     24.84
 23.47    631.00     25.12
 23.57    600.00     24.49
 23.67    663.91     25.77
 23.77    625.00     25.00
 23.87    570.34     23.88
 23.97    573.00     23.94
 24.07    615.00     24.80
 24.17    653.00     25.55
 24.27    621.00     24.92
 24.37    617.00     24.84
 24.47    647.00     25.44
 24.57    676.95     26.02
 24.67    600.46     24.50
 24.77    688.03     26.23
 24.87    692.63     26.32
 24.97    702.00     26.50
 25.07    697.00     26.40
 25.17    683.00     26.13
 25.27    685.00     26.17
 25.37    675.00     25.98
 25.47    639.00     25.28
 25.57    611.00     24.72
 25.67    669.04     25.87
 25.77    598.31     24.46
 25.87    664.57     25.78
 25.97    642.00     25.34
 26.07    632.25     25.14
 26.17    614.00     24.78
 26.27    595.29     24.40
 26.37    585.01     24.19
 26.47    615.00     24.80
 26.57    589.00     24.27
 26.67    630.00     25.10
 26.77    666.00     25.81
 26.87    617.55     24.85
 26.97    679.87     26.07
 27.07    652.00     25.53
 27.17    700.50     26.47
 27.27    652.00     25.53
 27.37    667.00     25.83
 27.47    712.00     26.68
 27.57    776.00     27.86
 27.67    759.00     27.55
 27.77    870.22     29.50
 27.87    979.63     31.30
 27.97   1271.00     35.65
 28.07   1981.06     44.51
 28.17   2997.00     54.74
 28.27   4716.00     68.67
 28.37   6140.00     78.36
 28.47   6633.00     81.44
 28.57   5558.59     74.56
 28.67   4355.00     65.99
 28.77   3244.00     56.96
 28.87   2866.00     53.54
 28.97   3199.00     56.56
 29.07   3565.59     59.71
 29.17   3666.00     60.55
 29.27   3390.00     58.22
 29.37   2470.00     49.70
 29.47   1742.00     41.74
 29.57   1235.00     35.14
 29.67   1020.00     31.94
 29.77    881.00     29.68
 29.87    789.00     28.09
 29.97    740.68     27.22
 30.07    755.00     27.48
 30.17    729.00     27.00
 30.27    683.00     26.13
 30.37    712.97     26.70
 30.47    610.67     24.71
 30.57    628.16     25.06
 30.67    670.99     25.90
 30.77    618.54     24.87
 30.87    673.34     25.95
 30.97    726.00     26.94
 31.07    722.00     26.87
 31.17    833.00     28.86
 31.27    719.00     26.81
 31.37    718.00     26.80
 31.47    689.00     26.25
 31.57    676.00     26.00
 31.67    660.18     25.69
 31.77    707.00     26.59
 31.87    671.00     25.90
 31.97    598.00     24.45
 32.07    647.00     25.44
 32.17    611.00     24.72
 32.27    605.00     24.60
 32.37    640.00     25.30
 32.47    653.00     25.55
 32.57    599.00     24.47
 32.67    635.90     25.22
 32.77    631.82     25.14
 32.87    647.00     25.44
 32.97    650.00     25.50
 33.07    591.43     24.32
 33.17    627.00     25.04
 33.27    600.00     24.49
 33.37    624.00     24.98
 33.47    642.85     25.35
 33.57    642.00     25.34
 33.67    678.02     26.04
 33.77    730.35     27.02
 33.87    738.00     27.17
 33.97    888.00     29.80
 34.07    955.36     30.91
 34.17   1106.74     33.27
 34.27   1207.00     34.74
 34.37   1169.00     34.19
 34.47   1080.50     32.87
 34.57    943.00     30.71
 34.67    759.00     27.55
 34.77    696.00     26.38
 34.87    709.84     26.64
 34.97    702.00     26.50
 35.07    583.96     24.17
 35.17    606.46     24.63
 35.27    593.54     24.36
 35.37    640.51     25.31
 35.47    668.00     25.85
 35.57    602.09     24.54
 35.67    586.00     24.21
 35.77    598.00     24.45
 35.87    615.00     24.80
 35.97    541.16     23.26
 36.07    556.61     23.59
 36.17    568.00     23.83
 36.27    537.63     23.19
 36.37    602.00     24.54
 36.47    592.00     24.33
 36.57    553.00     23.52
 36.67    605.00     24.60
 36.77    550.00     23.45
 36.87    588.64     24.26
 36.97    552.77     23.51
 37.07    588.00     24.25
 37.17    559.46     23.65
 37.27    565.00     23.77
 37.37    632.73     25.15
 37.47    582.00     24.12
 37.57    545.00     23.35
 37.67    602.94     24.55
 37.77    613.31     24.77
 37.87    605.59     24.61
 37.97    633.00     25.16
 38.07    686.00     26.19
 38.17    702.00     26.50
 38.27    711.74     26.68
 38.37    674.47     25.97
 38.47    649.89     25.49
 38.57    673.70     25.96
 38.67    634.48     25.19
 38.77    614.00     24.78
 38.87    571.00     23.90
 38.97    593.00     24.35
 39.07    550.00     23.45
 39.17    593.54     24.36
 39.27    570.00     23.87
 39.37    591.58     24.32
 39.47    568.00     23.83
 39.57    581.49     24.11
 39.67    564.00     23.75
 39.77    576.00     24.00
 39.87    572.00     23.92
 39.97    561.00     23.69
 40.07    594.54     24.38
 40.17    581.73     24.12
 40.27    581.00     24.10
 40.37    607.28     24.64
 40.47    592.36     24.34
 40.57    600.62     24.51
 40.67    540.00     23.24
 40.77    606.86     24.63
 40.87    543.00     23.30
 40.97    558.00     23.62
 41.07    585.32     24.19
 41.17    551.00     23.47
 41.27    618.76     24.87
 41.37    528.17     22.98
 41.47    540.00     23.24
 41.57    561.00     23.69
 41.67    597.00     24.43
 41.77    571.00     23.90
 41.87    556.00     23.58
 41.97    594.00     24.37
 42.07    532.50     23.08
 42.17    581.48     24.11
 42.27    557.00     23.60
 42.37    595.63     24.41
 42.47    643.00     25.36
 42.57    564.00     23.75
 42.67    608.00     24.66
 42.77    656.00     25.61
 42.87    626.00     25.02
 42.97    631.00     25.12
 43.07    736.59     27.14
 43.17    680.00     26.08
 43.27    690.68     26.28
 43.37    635.00     25.20
 43.47    587.00     24.23
 43.57    552.00     23.49
 43.67    583.40     24.15
 43.77    581.00     24.10
 43.87    605.00     24.60
 43.97    566.00     23.79
 44.07    613.79     24.77
 44.17    550.22     23.46
 44.27    541.73     23.28
 44.37    551.28     23.48
 44.47    565.80     23.79
 44.57    606.00     24.62
 44.67    547.00     23.39
 44.77    544.71     23.34
 44.87    613.12     24.76
 44.97    536.54     23.16
 45.07    603.00     24.56
 45.17    565.00     23.77
 45.27    595.00     24.39
 45.37    561.00     23.69
 45.47    567.00     23.81
 45.57    584.00     24.17
 45.67    609.88     24.70
 45.77    617.77     24.85
 45.87    566.00     23.79
 45.97    588.20     24.25
 46.07    588.00     24.25
 46.17    589.40     24.28
 46.27    585.00     24.19
 46.37    597.00     24.43
 46.47    577.53     24.03
 46.57    609.30     24.68
 46.67    568.07     23.83
 46.77    574.00     23.96
 46.87    597.47     24.44
 46.97    564.00     23.75
 47.07    564.65     23.76
 47.17    596.89     24.43
 47.27    614.00     24.78
 47.37    533.00     23.09
 47.47    569.00     23.85
 47.57    550.19     23.46
 47.67    572.00     23.92
 47.77    611.00     24.72
 47.87    596.00     24.41
 47.97    640.00     25.30
 48.07    621.73     24.93
 48.17    712.00     26.68
 48.27    610.00     24.70
 48.37    660.99     25.71
 48.47    680.78     26.09
 48.57    640.00     25.30
 48.67    595.46     24.40
 48.77    585.00     24.19
 48.87    636.00     25.22
 48.97    596.00     24.41
 49.07    632.00     25.14
 49.17    626.62     25.03
 49.27    659.80     25.69
 49.37    597.00     24.43
 49.47    657.70     25.65
 49.57    646.00     25.42
 49.67    722.55     26.88
 49.77    714.00     26.72
 49.87    801.00     28.30
 49.97   1029.00     32.08
 50.07   1253.00     35.40
 50.17   1621.00     40.26
 50.27   2115.00     45.99
 50.37   2598.00     50.97
 50.47   2892.00     53.78
 50.57   2923.00     54.06
 50.67   2807.00     52.98
 50.77   2381.00     48.80
 50.87   1928.00     43.91
 50.97   1499.00     38.72
 51.07   1177.00     34.31
 51.17    987.00     31.42
 51.27    902.00     30.03
 51.37    732.96     27.07
 51.47    821.00     28.65
 51.57    778.00     27.89
 51.67    726.39     26.95
 51.77    696.00     26.38
 51.87    719.00     26.81
 51.97    679.90     26.07
 52.07    694.00     26.34
 52.17    654.00     25.57
 52.27    686.00     26.19
 52.37    609.59     24.69
 52.47    702.00     26.50
 52.57    688.00     26.23
 52.67    643.51     25.37
 52.77    621.00     24.92
 52.87    676.33     26.01
 52.97    696.84     26.40
 53.07    707.00     26.59
 53.17    729.00     27.00
 53.27    770.46     27.76
 53.37    842.00     29.02
 53.47    858.00     29.29
 53.57   1010.40     31.79
 53.67   1076.00     32.80
 53.77   1158.00     34.03
 53.87   1242.00     35.24
 53.97   1301.54     36.08
 54.07   1239.00     35.20
 54.17   1185.00     34.42
 54.27    963.00     31.03
 54.37    935.00     30.58
 54.47    800.00     28.28
 54.57    789.05     28.09
 54.67    680.00     26.08
 54.77    669.08     25.87
 54.87    641.00     25.32
 54.97    656.00     25.61
 55.07    665.00     25.79
 55.17    650.81     25.51
 55.27    634.00     25.18
 55.37    662.00     25.73
 55.47    605.99     24.62
 55.57    674.00     25.96
 55.67    669.00     25.87
 55.77    603.03     24.56
 55.87    645.00     25.40
 55.97    689.00     26.25
 56.07    689.00     26.25
 56.17    709.00     26.63
 56.27    681.23     26.10
 56.37    740.65     27.21
 56.47    814.93     28.55
 56.57   1009.95     31.78
 56.67   1061.00     32.57
 56.77   1293.65     35.97
 56.87   1594.21     39.93
 56.97   2031.00     45.07
 57.07   2250.98     47.44
 57.17   2550.00     50.50
 57.27   2679.00     51.76
 57.37   2531.16     50.31
 57.47   2364.00     48.62
 57.57   2067.00     45.46
 57.67   1834.85     42.84
 57.77   1350.00     36.74
 57.87   1221.00     34.94
 57.97    999.00     31.61
 58.07    882.00     29.70
 58.17    794.85     28.19
 58.27    778.00     27.89
 58.37    779.00     27.91
 58.47    749.00     27.37
 58.57    854.08     29.22
 58.67    833.00     28.86
 58.77    825.00     28.72
 58.87    968.21     31.12
 58.97   1061.63     32.58
 59.07   1146.00     33.85
 59.17   1199.50     34.63
 59.27   1319.72     36.33
 59.37   1302.00     36.08
 59.47   1398.00     37.39
 59.57   1259.31     35.49
 59.67   1257.89     35.47
 59.77   1233.00     35.11
 59.87   1268.00     35.61
 59.97   1146.32     33.86
 60.07   1211.00     34.80
 60.17   1263.94     35.55
 60.27   1346.98     36.70
 60.37   1384.03     37.20
 60.47   1521.00     39.00
 60.57   1574.00     39.67
 60.67   1526.97     39.08
 60.77   1542.31     39.27
 60.87   1518.00     38.96
 60.97   1359.00     36.86
 61.07   1143.03     33.81
 61.17   1026.00     32.03
 61.27    939.31     30.65
 61.37    855.00     29.24
 61.47    767.73     27.71
 61.57    749.00     27.37
 61.67    739.74     27.20
 61.77    753.70     27.45
 61.87    879.23     29.65
 61.97    902.64     30.04
 62.07   1034.04     32.16
 62.17   1183.97     34.41
 62.27   1286.00     35.86
 62.37   1451.00     38.09
 62.47   1574.00     39.67
 62.57   1623.00     40.29
 62.67   1641.00     40.51
 62.77   1571.00     39.64
 62.87   1455.09     38.15
 62.97   1336.17     36.55
 63.07   1117.00     33.42
 63.17   1012.94     31.83
 63.27    891.00     29.85
 63.37    794.00     28.18
 63.47    760.00     27.57
 63.57    725.00     26.93
 63.67    727.00     26.96
 63.77    733.00     27.07
 63.87    663.79     25.76
 63.97    701.66     26.49
 64.07    688.86     26.25
 64.17    690.32     26.27
 64.27    717.11     26.78
 64.37    785.00     28.02
 64.47    914.00     30.23
 64.57    862.07     29.36
 64.67   1051.00     32.42
 64.77   1136.00     33.70
 64.87   1267.15     35.60
 64.97   1375.00     37.08
 65.07   1433.00     37.85
 65.17   1394.14     37.34
 65.27   1438.00     37.92
 65.37   1422.00     37.71
 65.47   1344.00     36.66
 65.57   1240.47     35.22
 65.67   1132.17     33.65
 65.77   1000.00     31.62
 65.87    899.04     29.98
 65.97    807.74     28.42
 66.07    792.00     28.14
 66.17    754.00     27.46
 66.27    690.00     26.27
 66.37    719.00     26.81
 66.47    699.00     26.44
 66.57    697.00     26.40
 66.67    648.00     25.46
 66.77    626.00     25.02
 66.87    601.00     24.52
 66.97    664.00     25.77
 67.07    677.00     26.02
 67.17    654.00     25.57
 67.27    702.08     26.50
 67.37    740.00     27.20
 67.47    722.00     26.87
 67.57    837.54     28.94
 67.67    875.00     29.58
 67.77    943.00     30.71
 67.87   1151.44     33.93
 67.97   1212.00     34.81
 68.07   1532.00     39.14
 68.17   1725.00     41.53
 68.27   2040.00     45.17
 68.37   2279.00     47.74
 68.47   2392.00     48.91
 68.57   2482.00     49.82
 68.67   2468.92     49.69
 68.77   2359.00     48.57
 68.87   2199.00     46.89
 68.97   1968.00     44.36
 69.07   1619.64     40.24
 69.17   1420.69     37.69
 69.27   1326.63     36.42
 69.37   1079.00     32.85
 69.47   1008.00     31.75
 69.57    882.00     29.70
 69.67    867.00     29.44
 69.77    888.00     29.80
 69.87    819.00     28.62
 69.97    749.00     27.37
 70.07    650.61     25.51
 70.17    685.00     26.17
 70.27    725.00     26.93
 70.37    684.00     26.15
 70.47    655.00     25.59
 70.57    633.00     25.16
 70.67    649.55     25.49
 70.77    674.00     25.96
 70.87    661.63     25.72
 70.97    666.00     25.81
 71.07    660.18     25.69
 71.17    682.00     26.12
 71.27    687.00     26.21
 71.37    727.00     26.96
 71.47    753.86     27.46
 71.57    788.00     28.07
 71.67    840.00     28.98
 71.77    947.00     30.77
 71.87   1052.00     32.43
 71.97   1180.25     34.35
 72.07   1354.00     36.80
 72.17   1537.00     39.20
 72.27   1706.00     41.30
 72.37   1817.21     42.63
 72.47   1897.00     43.55
 72.57   1907.00     43.67
 72.67   1904.51     43.64
 72.77   1850.00     43.01
 72.87   1749.79     41.83
 72.97   1505.00     38.79
 73.07   1419.06     37.67
 73.17   1276.00     35.72
 73.27   1047.00     32.36
 73.37    955.00     30.90
 73.47    848.00     29.12
 73.57    850.00     29.15
 73.67    732.35     27.06
 73.77    740.00     27.20
 73.87    734.00     27.09
 73.97    669.00     25.87
 74.07    659.00     25.67
 74.17    641.00     25.32
 74.27    608.56     24.67
 74.37    609.00     24.68
 74.47    654.00     25.57
 74.57    641.00     25.32
 74.67    619.00     24.88
 74.77    652.00     25.53
 74.87    645.02     25.40
 74.97    696.00     26.38
 75.07    697.34     26.41
 75.17    720.00     26.83
 75.27    696.00     26.38
 75.37    697.00     26.40
 75.47    676.00     26.00
 75.57    673.95     25.96
 75.67    710.00     26.65
 75.77    717.00     26.78
 75.87    658.00     25.65
 75.97    659.00     25.67
 76.07    616.94     24.84
 76.17    657.00     25.63
 76.27    710.00     26.65
 76.37    664.38     25.78
 76.47    756.00     27.50
 76.57    773.93     27.82
 76.67    808.44     28.43
 76.77    826.63     28.75
 76.87    821.00     28.65
 76.97    960.84     31.00
 77.07    966.00     31.08
 77.17    942.00     30.69
 77.27    934.00     30.56
 77.37    965.06     31.07
 77.47    857.63     29.29
 77.57    800.39     28.29
 77.67    837.79     28.94
 77.77    782.00     27.96
 77.87    755.00     27.48
 77.97    737.00     27.15
 78.07    648.00     25.46
 78.17    629.00     25.08
 78.27    600.00     24.49
 78.37    623.00     24.96
 78.47    649.84     25.49
 78.57    621.00     24.92
 78.67    624.00     24.98
 78.77    601.00     24.52
 78.87    636.66     25.23
 78.97    577.66     24.03
 79.07    593.00     24.35
 79.17    582.00     24.12
 79.27    641.00     25.32
 79.37    572.18     23.92
 79.47    610.00     24.70
 79.57    598.00     24.45
 79.67    625.00     25.00
 79.77    622.46     24.95
 79.87    594.96     24.39
 79.97    651.00     25.51
 80.07    660.10     25.69
 80.17    597.00     24.43
 80.27    597.44     24.44
 80.37    620.00     24.90
 80.47    668.57     25.86
 80.57    677.00     26.02
 80.67    718.29     26.80
 80.77    760.00     27.57
 80.87    833.00     28.86
 80.97    873.00     29.55
 81.07    986.00     31.40
 81.17   1045.00     32.33
 81.27   1084.00     32.92
 81.37   1162.00     34.09
 81.47   1220.00     34.93
 81.57   1204.70     34.71
 81.67   1176.97     34.31
 81.77   1337.00     36.57
 81.87   1243.00     35.26
 81.97   1226.00     35.01
 82.07   1233.97     35.13
 82.17   1181.00     34.37
 82.27   1117.00     33.42
 82.37    998.32     31.60
 82.47    944.52     30.73
 82.57    901.62     30.03
 82.67    906.61     30.11
 82.77    804.00     28.35
 82.87    790.16     28.11
 82.97    693.00     26.32
 83.07    717.90     26.79
 83.17    762.72     27.62
 83.27    670.29     25.89
 83.37    701.77     26.49
 83.47    615.00     24.80
 83.57    592.00     24.33
 83.67    642.00     25.34
 83.77    658.37     25.66
 83.87    619.61     24.89
 83.97    606.00     24.62
 84.07    668.92     25.86
 84.17    615.00     24.80
 84.27    626.58     25.03
 84.37    697.60     26.41
 84.47    650.00     25.50
 84.57    630.00     25.10
 84.67    670.60     25.90
 84.77    663.37     25.76
 84.87    648.00     25.46
 84.97    626.00     25.02
 85.07    655.00     25.59
 85.17    615.43     24.81
 85.27    610.00     24.70
 85.37    567.00     23.81
 85.47    620.00     24.90
 85.57    655.74     25.61
 85.67    608.00     24.66
 85.77    606.97     24.64
 85.87    596.00     24.41
 85.97    558.00     23.62
 86.07    634.92     25.20
 86.17    636.65     25.23
 86.27    623.00     24.96
 86.37    613.00     24.76
 86.47    650.40     25.50
 86.57    621.82     24.94
 86.67    622.00     24.94
 86.77    623.00     24.96
 86.87    624.00     24.98
 86.97    613.00     24.76
 87.07    686.82     26.21
 87.17    609.91     24.70
 87.27    660.00     25.69
 87.37    681.00     26.10
 87.47    685.00     26.17
 87.57    698.00     26.42
 87.67    709.66     26.64
 87.77    714.09     26.72
 87.87    753.00     27.44
 87.97    699.00     26.44
 88.07    727.00     26.96
 88.17    722.00     26.87
 88.27    717.00     26.78
 88.37    682.85     26.13
 88.47    710.92     26.66
 88.57    697.00     26.40
 88.67    729.00     27.00
 88.77    651.37     25.52
 88.87    659.97     25.69
 88.97    634.00     25.18
 89.07    696.93     26.40
 89.17    652.55     25.54
 89.27    640.00     25.30
 89.37    604.27     24.58
 89.47    656.00     25.61
 89.57    662.00     25.73
 89.67    651.91     25.53
 89.77    679.00     26.06
 89.87    710.53     26.66
 89.97    691.00     26.29
 90.07    656.00     25.61
 90.17    616.02     24.82
 90.27    649.40     25.48
 90.37    653.00     25.55
 90.47    669.00     25.87
 90.57    669.53     25.88
 90.67    603.00     24.56
 90.77    599.00     24.47
 90.87    606.23     24.62
 90.97    574.00     23.96
 91.07    575.00     23.98
 91.17    584.32     24.17
 91.27    552.00     23.49
 91.37    600.00     24.49
 91.47    583.00     24.15
 91.57    629.50     25.09
 91.67    562.42     23.72
 91.77    591.00     24.31
 91.87    592.00     24.33
 91.97    592.00     24.33
 92.07    590.00     24.29
 92.17    578.16     24.04
 92.27    606.00     24.62
 92.37    597.00     24.43
 92.47    619.00     24.88
 92.57    576.32     24.01
 92.67    615.00     24.80
 92.77    555.00     23.56
 92.87    642.90     25.36
 92.97    628.00     25.06
 93.07    687.55     26.22
 93.17    668.00     25.85
 93.27    698.00     26.42
 93.37    630.00     25.10
 93.47    673.12     25.94
 93.57    716.00     26.76
 93.67    751.00     27.40
 93.77    816.00     28.57
 93.87    794.00     28.18
 93.97    742.00     27.24
 94.07    818.88     28.62
 94.17    824.00     28.71
 94.27    861.00     29.34
 94.37    818.79     28.61
 94.47    917.00     30.28
 94.57    888.06     29.80
 94.67    947.00     30.77
 94.77    935.00     30.58
 94.87    941.95     30.69
 94.97    975.00     31.22
 95.07    995.00     31.54
 95.17    984.00     31.37
 95.27   1010.00     31.78
 95.37    979.92     31.30
 95.47    979.00     31.29
 95.57   1059.11     32.54
 95.67   1025.00     32.02
 95.77    940.37     30.67
 95.87    947.00     30.77
 95.97    904.00     30.07
 96.07    922.00     30.36
 96.17    880.00     29.66
 96.27    856.00     29.26
 96.37    766.00     27.68
 96.47    864.76     29.41
 96.57    797.63     28.24
 96.67    780.88     27.94
 96.77    829.00     28.79
 96.87    790.00     28.11
 96.97    816.00     28.57
 97.07    842.00     29.02
 97.17    927.00     30.45
 97.27    889.67     29.83
 97.37   1008.00     31.75
 97.47   1104.00     33.23
 97.57   1147.00     33.87
 97.67   1223.39     34.98
 97.77   1217.55     34.89
 97.87   1329.00     36.46
 97.97   1396.32     37.37
 98.07   1453.90     38.13
 98.17   1458.62     38.19
 98.27   1485.29     38.54
 98.37   1628.16     40.35
 98.47   1641.00     40.51
 98.57   1479.80     38.47
 98.67   1555.22     39.44
 98.77   1482.00     38.50
 98.87   1435.00     37.88
 98.97   1412.00     37.58
 99.07   1332.86     36.51
 99.17   1204.03     34.70
 99.27   1167.16     34.16
 99.37   1108.29     33.29
 99.47   1012.00     31.81
 99.57    979.00     31.29
 99.67   1013.00     31.83
 99.77    944.00     30.72
 99.87    975.00     31.22
 99.97    936.39     30.60
100.07   1018.00     31.91
100.17   1108.68     33.30
100.27   1142.98     33.81
100.37   1148.40     33.89
100.47   1239.64     35.21
100.57   1361.00     36.89
100.67   1497.00     38.69
100.77   1454.38     38.14
100.87   1532.35     39.15
100.97   1728.00     41.57
101.07   1840.00     42.90
101.17   1922.54     43.85
101.27   1998.00     44.70
101.37   1942.79     44.08
101.47   2107.00     45.90
101.57   2019.36     44.94
101.67   2030.00     45.06
101.77   2104.04     45.87
101.87   2116.39     46.00
101.97   2039.00     45.16
102.07   1968.62     44.37
102.17   1867.00     43.21
102.27   1819.00     42.65
102.37   1769.00     42.06
102.47   1711.00     41.36
102.57   1576.25     39.70
102.67   1550.99     39.38
102.77   1528.63     39.10
102.87   1402.00     37.44
102.97   1413.00     37.59
103.07   1282.00     35.81
103.17   1366.66     36.97
103.27   1261.00     35.51
103.37   1206.61     34.74
103.47   1305.36     36.13
103.57   1129.00     33.60
103.67   1093.00     33.06
103.77   1079.42     32.85
103.87   1125.18     33.54
103.97   1025.00     32.02
104.07   1000.00     31.62
104.17   1023.00     31.98
104.27    925.01     30.41
104.37    911.00     30.18
104.47    901.71     30.03
104.57    814.22     28.53
104.67    860.00     29.33
104.77    761.00     27.59
104.87    740.00     27.20
104.97    724.59     26.92
105.07    638.33     25.27
105.17    645.09     25.40
105.27    625.81     25.02
105.37    578.77     24.06
105.47    642.00     25.34
105.57    582.91     24.14
105.67    652.00     25.53
105.77    634.00     25.18
105.87    615.00     24.80
105.97    544.30     23.33
106.07    602.00     24.54
106.17    654.00     25.57
106.27    613.95     24.78
106.37    606.00     24.62
106.47    601.09     24.52
106.57    587.49     24.24
106.67    585.86     24.20
106.77    611.00     24.72
106.87    580.04     24.08
106.97    681.00     26.10
107.07    668.00     25.85
107.17    694.68     26.36
107.27    637.00     25.24
107.37    660.00     25.69
107.47    692.00     26.31
107.57    674.00     25.96
107.67    719.00     26.81
107.77    704.00     26.53
107.87    692.00     26.31
107.97    744.50     27.29
108.07    792.75     28.16
108.17    715.91     26.76
108.27    806.00     28.39
108.37    722.23     26.87
108.47    769.00     27.73
108.57    806.28     28.40
108.67    736.00     27.13
108.77    782.00     27.96
108.87    764.00     27.64
108.97    712.51     26.69
109.07    702.00     26.50
109.17    755.00     27.48
109.27    788.13     28.07
109.37    728.00     26.98
109.47    696.00     26.38
109.57    768.00     27.71
109.67    754.00     27.46
109.77    717.00     26.78
109.87    716.00     26.76
109.97    781.00     27.95
110.07    820.10     28.64
110.17    755.00     27.48
110.27    740.00     27.20
110.37    727.00     26.96
110.47    715.00     26.74
110.57    735.00     27.11
110.67    689.00     26.25
110.77    726.00     26.94
110.87    647.60     25.45
110.97    691.00     26.29
111.07    620.83     24.92
111.17    672.00     25.92
111.27    596.57     24.42
111.37    662.06     25.73
111.47    664.00     25.77
111.57    595.00     24.39
111.67    613.00     24.76
111.77    625.00     25.00
111.87    547.00     23.39
111.97    600.00     24.49
112.07    615.00     24.80
112.17    592.35     24.34
112.27    609.00     24.68
112.37    592.16     24.33
112.47    613.07     24.76
112.57    612.00     24.74
112.67    615.00     24.80
112.77    567.63     23.83
112.87    600.35     24.50
112.97    613.00     24.76
113.07    584.00     24.17
113.17    591.02     24.31
113.27    663.00     25.75
113.37    601.60     24.53
113.47    578.00     24.04
113.57    582.00     24.12
113.67    592.00     24.33
113.77    684.00     26.15
113.87    588.00     24.25
113.97    611.31     24.72
114.07    663.00     25.75
114.17    640.00     25.30
114.27    587.00     24.23
114.37    667.75     25.84
114.47    662.00     25.73
114.57    737.00     27.15
114.67    718.00     26.80
114.77    730.00     27.02
114.87    803.54     28.35
114.97    801.00     28.30
115.07    875.00     29.58
115.17    929.00     30.48
115.27    961.00     31.00
115.37    997.00     31.58
115.47   1172.00     34.23
115.57   1258.00     35.47
115.67   1536.50     39.20
115.77   1668.66     40.85
115.87   1894.86     43.53
115.97   2026.00     45.01
116.07   2357.00     48.55
116.17   2593.00     50.92
116.27   2899.00     53.84
116.37   3273.12     57.21
116.47   3465.45     58.87
116.57   3800.00     61.64
116.67   4359.28     66.02
116.77   4557.00     67.51
116.87   4984.00     70.60
116.97   5332.85     73.03
117.07   5810.00     76.22
117.17   6054.53     77.81
117.27   6664.95     81.64
117.37   6807.00     82.50
117.47   6964.00     83.45
117.57   7119.39     84.38
117.67   7271.00     85.27
117.77   7498.00     86.59
117.87   7388.00     85.95
117.97   7235.50     85.06
118.07   7244.20     85.11
118.17   6882.00     82.96
118.27   6605.62     81.27
118.37   6495.77     80.60
118.47   6039.00     77.71
118.57   5598.00     74.82
118.67   5312.00     72.88
118.77   5174.00     71.93
118.87   4575.06     67.64
118.97   4400.00     66.33
119.07   3869.00     62.20
119.17   3542.37     59.52
119.27   3258.00     57.08
119.37   3013.00     54.89
119.47   2709.00     52.05
119.57   2462.00     49.62
119.67   2226.00     47.18
119.77   1970.66     44.39
119.87   1686.53     41.07
119.97   1554.30     39.42
120.07   1444.00     38.00
120.17   1357.08     36.84
120.27   1258.00     35.47
120.37   1169.00     34.19
120.47   1092.87     33.06
120.57   1028.27     32.07
120.67    963.00     31.03
120.77    921.00     30.35
120.87    863.00     29.38
120.97    894.00     29.90
121.07    788.00     28.07
121.17    795.61     28.21
121.27    776.00     27.86
121.37    714.64     26.73
121.47    762.07     27.61
121.57    693.00     26.32
121.67    672.16     25.93
121.77    712.26     26.69
121.87    671.28     25.91
121.97    704.00     26.53
122.07    658.00     25.65
122.17    633.00     25.16
122.27    641.62     25.33
122.37    708.02     26.61
122.47    679.00     26.06
122.57    710.41     26.65
122.67    732.01     27.06
122.77    712.00     26.68
122.87    716.85     26.77
122.97    619.00     24.88
123.07    708.00     26.61
123.17    677.23     26.02
123.27    710.00     26.65
123.37    724.00     26.91
123.47    729.00     27.00
123.57    749.00     27.37
123.67    780.56     27.94
123.77    754.00     27.46
123.87    795.63     28.21
123.97    732.64     27.07
124.07    762.00     27.60
124.17    790.00     28.11
124.27    775.68     27.85
124.37    782.00     27.96
124.47    750.00     27.39
124.57    735.00     27.11
124.67    704.22     26.54
124.77    790.60     28.12
124.87    723.00     26.89
124.97    764.00     27.64
