XYDATA



INTER 1.0 1.0 0 0
TEMP 656.212
  9.97    619.11     24.88
 10.07    688.22     26.23
 10.17    653.14     25.56
 10.27    677.00     26.02
 10.37    625.49     25.01
 10.47    699.00     26.44
 10.57    640.07     25.30
 10.67    708.62     26.62
 10.77    657.94     25.65
 10.87    660.00     25.69
 10.97    710.00     26.65
 11.07    616.17     24.82
 11.17    709.68     26.64
 11.27    672.93     25.94
 11.37    722.00     26.87
 11.47    613.30     24.76
 11.57    690.00     26.27
 11.67    732.00     27.06
 11.77    726.38     26.95
 11.87    634.01     25.18
 11.97    813.00     28.51
 12.07    677.60     26.03
 12.17    696.88     26.40
 12.27    786.00     28.04
 12.37    812.00     28.50
 12.47    726.00     26.94
 12.57    713.00     26.70
 12.67    717.00     26.78
 12.77    686.00     26.19
 12.87    610.54     24.71
 12.97    650.00     25.50
 13.07    634.00     25.18
 13.17    690.65     26.28
 13.27    663.60     25.76
 13.37    645.00     25.40
 13.47    588.00     24.25
 13.57    650.00     25.50
 13.67    599.00     24.47
 13.77    656.00     25.61
 13.87    654.00     25.57
 13.97    668.30     25.85
 14.07    637.00     25.24
 14.17    637.00     25.24
 14.27    603.05     24.56
 14.37    621.00     24.92
 14.47    648.91     25.47
 14.57    600.00     24.49
 14.67    596.07     24.41
 14.77    591.00     24.31
 14.87    630.01     25.10
 14.97    598.00     24.45
 15.07    600.00     24.49
 15.17    622.00     24.94
 15.27    591.00     24.31
 15.37    638.49     25.27
 15.47    635.00     25.20
 15.57    592.00     24.33
 15.67    669.07     25.87
 15.77    617.00     24.84
 15.87    600.00     24.49
 15.97    614.00     24.78
 16.07    607.00     24.64
 16.17    616.73     24.83
 16.27    595.10     24.39
 16.37    657.81     25.65
 16.47    634.31     25.19
 16.57    628.00     25.06
 16.67    616.00     24.82
 16.77    595.00     24.39
 16.87    581.00     24.10
 16.97    610.00     24.70
 17.07    612.85     24.76
 17.17    673.89     25.96
 17.27    659.18     25.67
 17.37    575.00     23.98
 17.47    604.00     24.58
 17.57    646.00     25.42
 17.67    619.00     24.88
 17.77    583.00     24.15
 17.87    583.00     24.15
 17.97    615.00     24.80
 18.07    606.10     24.62
 18.17    592.00     24.33
 18.27    595.88     24.41
 18.37    614.16     24.78
 18.47    574.00     23.96
 18.57    606.00     24.62
 18.67    592.00     24.33
 18.77    580.00     24.08
 18.87    641.59     25.33
 18.97    561.00     23.69
 19.07    569.00     23.85
 19.17    617.94     24.86
 19.27    583.00     24.15
 19.37    604.00     24.58
 19.47    608.00     24.66
 19.57    618.00     24.86
 19.67    633.00     25.16
 19.77    618.00     24.86
 19.87    583.00     24.15
 19.97    591.18     24.31
 20.07    654.70     25.59
 20.17    650.00     25.50
 20.27    646.00     25.42
 20.37    599.00     24.47
 20.47    610.00     24.70
 20.57    586.00     24.21
 20.67    604.00     24.58
 20.77    606.00     24.62
 20.87    626.00     25.02
 20.97    624.44     24.99
 21.07    603.00     24.56
 21.17    649.16     25.48
 21.27    578.00     24.04
 21.37    654.44     25.58
 21.47    578.21     24.05
 21.57    606.00     24.62
 21.67    621.07     24.92
 21.77    579.00     24.06
 21.87    599.00     24.47
 21.97    578.00     24.04
 22.07    585.00     24.19
 22.17    563.40     23.74
 22.27    545.00     23.35
 22.37    613.00     24.76
 22.47    613.00     24.76
 22.57    560.00     23.66
 22.67    616.00     24.82
 22.77    603.11     24.56
 22.87    586.00     24.21
 22.97    617.00     24.84
 23.07    613.00     24.76
 23.17    568.00     23.83
 23.27    599.00     24.47
 23.37    615.00     24.80
 23.47    595.81     24.41
 23.57    625.77     25.02
 23.67    640.00     25.30
 23.77    622.00     24.94
 23.87    635.15     25.20
 23.97    623.00     24.96
 24.07    575.00     23.98
 24.17    622.00     24.94
 24.27    589.00     24.27
 24.37    611.00     24.72
 24.47    659.31     25.68
 24.57    649.00     25.48
 24.67    580.50     24.09
 24.77    662.00     25.73
 24.87    710.00     26.65
 24.97    698.00     26.42
 25.07    668.00     25.85
 25.17    665.00     25.79
 25.27    656.00     25.61
 25.37    611.68     24.73
 25.47    627.42     25.05
 25.57    618.00     24.86
 25.67    553.14     23.52
 25.77    599.00     24.47
 25.87    588.97     24.27
 25.97    645.00     25.40
 26.07    620.00     24.90
 26.17    637.00     25.24
 26.27    631.61     25.13
 26.37    582.00     24.12
 26.47    630.00     25.10
 26.57    613.00     24.76
 26.67    674.00     25.96
 26.77    655.00     25.59
 26.87    654.77     25.59
 26.97    637.64     25.25
 27.07    683.00     26.13
 27.17    669.00     25.87
 27.27    696.63     26.39
 27.37    617.48     24.85
 27.47    722.00     26.87
 27.57    739.00     27.18
 27.67    776.30     27.86
 27.77    796.00     28.21
 27.87    884.32     29.74
 27.97   1162.00     34.09
 28.07   1635.00     40.44
 28.17   2540.00     50.40
 28.27   3755.00     61.28
 28.37   4537.42     67.36
 28.47   4650.00     68.19
 28.57   3856.10     62.10
 28.67   2878.62     53.65
 28.77   2242.00     47.35
 28.87   2177.00     46.66
 28.97   2408.00     49.07
 29.07   2779.00     52.72
 29.17   2679.00     51.76
 29.27   2251.01     47.44
 29.37   1686.44     41.07
 29.47   1320.00     36.33
 29.57    993.00     31.51
 29.67    908.00     30.13
 29.77    780.18     27.93
 29.87    802.00     28.32
 29.97    730.00     27.02
 30.07    764.00     27.64
 30.17    691.11     26.29
 30.27    638.88     25.28
 30.37    718.00     26.80
 30.47    661.00     25.71
 30.57    636.00     25.22
 30.67    670.00     25.88
 30.77    702.00     26.50
 30.87    708.00     26.61
 30.97    676.81     26.02
 31.07    653.89     25.57
 31.17    753.00     27.44
 31.27    696.00     26.38
 31.37    627.00     25.04
 31.47    664.00     25.77
 31.57    571.12     23.90
 31.67    626.00     25.02
 31.77    640.00     25.30
 31.87    597.00     24.43
 31.97    618.72     24.87
 32.07    534.01     23.11
 32.17    616.00     24.82
 32.27    606.08     24.62
 32.37    575.00     23.98
 32.47    618.00     24.86
 32.57    606.00     24.62
 32.67    618.00     24.86
 32.77    627.30     25.05
 32.87    605.00     24.60
 32.97    582.00     24.12
 33.07    590.00     24.29
 33.17    637.60     25.25
 33.27    587.00     24.23
 33.37    565.22     23.77
 33.47    607.80     24.65
 33.57    572.09     23.92
 33.67    662.99     25.75
 33.77    683.00     26.13
 33.87    761.73     27.60
 33.97    861.00     29.34
 34.07    899.17     29.99
 34.17   1061.00     32.57
 34.27   1161.00     34.07
 34.37   1062.00     32.59
 34.47    964.00     31.05
 34.57    821.00     28.65
 34.67    748.26     27.35
 34.77    730.00     27.02
 34.87    656.87     25.63
 34.97    653.16     25.56
 35.07    646.00     25.42
 35.17    580.00     24.08
 35.27    628.98     25.08
 35.37    605.00     24.60
 35.47    546.79     23.38
 35.57    577.39     24.03
 35.67    585.00     24.19
 35.77    568.00     23.83
 35.87    528.36     22.99
 35.97    558.54     23.63
 36.07    587.00     24.23
 36.17    548.00     23.41
 36.27    559.00     23.64
 36.37    555.00     23.56
 36.47    512.00     22.63
 36.57    597.30     24.44
 36.67    553.77     23.53
 36.77    524.22     22.90
 36.87    570.56     23.89
 36.97    596.00     24.41
 37.07    566.00     23.79
 37.17    599.00     24.47
 37.27    546.00     23.37
 37.37    544.00     23.32
 37.47    543.58     23.31
 37.57    554.00     23.54
 37.67    586.00     24.21
 37.77    599.80     24.49
 37.87    618.00     24.86
 37.97    632.00     25.14
 38.07    632.78     25.16
 38.17    637.03     25.24
 38.27    659.00     25.67
 38.37    654.38     25.58
 38.47    617.00     24.84
 38.57    576.00     24.00
 38.67    617.43     24.85
 38.77    580.44     24.09
 38.87    547.00     23.39
 38.97    532.00     23.07
 39.07    551.00     23.47
 39.17    510.06     22.58
 39.27    579.60     24.07
 39.37    557.32     23.61
 39.47    547.00     23.39
 39.57    543.00     23.30
 39.67    567.00     23.81
 39.77    501.00     22.38
 39.87    561.00     23.69
 39.97    502.90     22.43
 40.07    541.00     23.26
 40.17    536.00     23.15
 40.27    519.00     22.78
 40.37    555.00     23.56
 40.47    550.00     23.45
 40.57    511.62     22.62
 40.67    516.00     22.72
 40.77    576.45     24.01
 40.87    509.00     22.56
 40.97    596.79     24.43
 41.07    551.00     23.47
 41.17    589.00     24.27
 41.27    509.00     22.56
 41.37    549.00     23.43
 41.47    508.00     22.54
 41.57    567.00     23.81
 41.67    537.87     23.19
 41.77    572.00     23.92
 41.87    516.90     22.74
 41.97    549.00     23.43
 42.07    523.00     22.87
 42.17    515.00     22.69
 42.27    565.00     23.77
 42.37    540.00     23.24
 42.47    615.92     24.82
 42.57    620.33     24.91
 42.67    594.00     24.37
 42.77    650.26     25.50
 42.87    689.16     26.25
 42.97    635.00     25.20
 43.07    646.00     25.42
 43.17    606.00     24.62
 43.27    641.00     25.32
 43.37    546.00     23.37
 43.47    550.02     23.45
 43.57    554.37     23.55
 43.67    597.72     24.45
 43.77    599.71     24.49
 43.87    569.00     23.85
 43.97    521.88     22.84
 44.07    524.49     22.90
 44.17    562.00     23.71
 44.27    547.29     23.39
 44.37    569.00     23.85
 44.47    545.00     23.35
 44.57    526.00     22.93
 44.67    553.00     23.52
 44.77    560.00     23.66
 44.87    550.00     23.45
 44.97    510.95     22.60
 45.07    565.00     23.77
 45.17    535.89     23.15
 45.27    524.86     22.91
 45.37    550.85     23.47
 45.47    494.00     22.23
 45.57    544.00     23.32
 45.67    507.00     22.52
 45.77    533.00     23.09
 45.87    545.00     23.35
 45.97    597.00     24.43
 46.07    576.20     24.00
 46.17    551.00     23.47
 46.27    544.00     23.32
 46.37    518.00     22.76
 46.47    496.00     22.27
 46.57    559.00     23.64
 46.67    523.29     22.88
 46.77    569.00     23.85
 46.87    531.00     23.04
 46.97    528.00     22.98
 47.07    591.36     24.32
 47.17    560.00     23.66
 47.27    572.00     23.92
 47.37    514.72     22.69
 47.47    558.00     23.62
 47.57    566.98     23.81
 47.67    592.00     24.33
 47.77    623.12     24.96
 47.87    617.00     24.84
 47.97    591.34     24.32
 48.07    669.00     25.87
 48.17    612.00     24.74
 48.27    634.06     25.18
 48.37    659.00     25.67
 48.47    610.00     24.70
 48.57    637.96     25.26
 48.67    594.00     24.37
 48.77    584.86     24.18
 48.87    561.22     23.69
 48.97    588.12     24.25
 49.07    569.00     23.85
 49.17    563.83     23.75
 49.27    602.00     24.54
 49.37    660.77     25.71
 49.47    658.25     25.66
 49.57    644.00     25.38
 49.67    658.00     25.65
 49.77    727.36     26.97
 49.87    867.00     29.44
 49.97   1105.69     33.25
 50.07   1427.00     37.78
 50.17   1784.00     42.24
 50.27   2201.00     46.91
 50.37   2581.00     50.80
 50.47   2771.00     52.64
 50.57   2812.10     53.03
 50.67   2355.00     48.53
 50.77   2017.96     44.92
 50.87   1522.68     39.02
 50.97   1297.38     36.02
 51.07    970.00     31.14
 51.17    903.92     30.07
 51.27    750.55     27.40
 51.37    712.00     26.68
 51.47    646.17     25.42
 51.57    717.47     26.79
 51.67    679.00     26.06
 51.77    680.00     26.08
 51.87    648.00     25.46
 51.97    637.00     25.24
 52.07    631.00     25.12
 52.17    585.00     24.19
 52.27    695.00     26.36
 52.37    618.00     24.86
 52.47    638.00     25.26
 52.57    665.00     25.79
 52.67    613.00     24.76
 52.77    625.00     25.00
 52.87    628.00     25.06
 52.97    635.00     25.20
 53.07    636.83     25.24
 53.17    733.27     27.08
 53.27    790.00     28.11
 53.37    807.57     28.42
 53.47    917.00     30.28
 53.57   1023.18     31.99
 53.67   1186.00     34.44
 53.77   1237.52     35.18
 53.87   1222.48     34.96
 53.97   1273.59     35.69
 54.07   1171.00     34.22
 54.17   1075.00     32.79
 54.27    970.53     31.15
 54.37    812.00     28.50
 54.47    772.00     27.78
 54.57    710.00     26.65
 54.67    672.00     25.92
 54.77    676.47     26.01
 54.87    684.00     26.15
 54.97    615.00     24.80
 55.07    615.00     24.80
 55.17    576.31     24.01
 55.27    612.05     24.74
 55.37    661.00     25.71
 55.47    632.50     25.15
 55.57    579.39     24.07
 55.67    651.00     25.51
 55.77    645.00     25.40
 55.87    624.00     24.98
 55.97    663.00     25.75
 56.07    634.31     25.19
 56.17    729.07     27.00
 56.27    723.87     26.90
 56.37    818.18     28.60
 56.47    900.00     30.00
 56.57   1033.00     32.14
 56.67   1269.19     35.63
 56.77   1507.00     38.82
 56.87   1907.64     43.68
 56.97   2278.00     47.73
 57.07   2319.66     48.16
 57.17   2584.00     50.83
 57.27   2688.23     51.85
 57.37   2517.00     50.17
 57.47   2266.00     47.60
 57.57   1886.77     43.44
 57.67   1644.89     40.56
 57.77   1241.00     35.23
 57.87   1029.00     32.08
 57.97    880.00     29.66
 58.07    852.00     29.19
 58.17    802.00     28.32
 58.27    761.00     27.59
 58.37    814.67     28.54
 58.47    814.22     28.53
 58.57    794.00     28.18
 58.67    829.96     28.81
 58.77    952.00     30.85
 58.87   1015.00     31.86
 58.97   1125.00     33.54
 59.07   1139.73     33.76
 59.17   1258.00     35.47
 59.27   1206.18     34.73
 59.37   1247.00     35.31
 59.47   1340.00     36.61
 59.57   1204.31     34.70
 59.67   1234.68     35.14
 59.77   1191.13     34.51
 59.87   1173.00     34.25
 59.97   1150.98     33.93
 60.07   1261.00     35.51
 60.17   1284.23     35.84
 60.27   1313.62     36.24
 60.37   1430.09     37.82
 60.47   1566.10     39.57
 60.57   1526.00     39.06
 60.67   1470.86     38.35
 60.77   1489.00     38.59
 60.87   1376.00     37.09
 60.97   1196.00     34.58
 61.07   1030.00     32.09
 61.17    994.00     31.53
 61.27    905.60     30.09
 61.37    792.00     28.14
 61.47    754.81     27.47
 61.57    798.61     28.26
 61.67    803.00     28.34
 61.77    817.00     28.58
 61.87    880.00     29.66
 61.97    982.43     31.34
 62.07   1105.00     33.24
 62.17   1139.00     33.75
 62.27   1314.00     36.25
 62.37   1372.00     37.04
 62.47   1496.00     38.68
 62.57   1490.33     38.60
 62.67   1462.00     38.24
 62.77   1457.81     38.18
 62.87   1208.00     34.76
 62.97   1087.00     32.97
 63.07    977.00     31.26
 63.17    850.00     29.15
 63.27    772.00     27.78
 63.37    707.00     26.59
 63.47    743.02     27.26
 63.57    632.00     25.14
 63.67    649.00     25.48
 63.77    653.00     25.55
 63.87    700.00     26.46
 63.97    607.15     24.64
 64.07    652.00     25.53
 64.17    663.02     25.75
 64.27    725.00     26.93
 64.37    814.37     28.54
 64.47    812.15     28.50
 64.57   1003.00     31.67
 64.67   1050.00     32.40
 64.77   1117.00     33.42
 64.87   1257.00     35.45
 64.97   1218.63     34.91
 65.07   1240.00     35.21
 65.17   1329.00     36.46
 65.27   1208.73     34.77
 65.37   1222.00     34.96
 65.47   1024.96     32.01
 65.57    970.00     31.14
 65.67    891.00     29.85
 65.77    828.51     28.78
 65.87    799.00     28.27
 65.97    699.00     26.44
 66.07    692.63     26.32
 66.17    678.00     26.04
 66.27    664.00     25.77
 66.37    628.00     25.06
 66.47    618.02     24.86
 66.57    604.00     24.58
 66.67    608.00     24.66
 66.77    647.88     25.45
 66.87    672.09     25.92
 66.97    696.00     26.38
 67.07    626.00     25.02
 67.17    711.99     26.68
 67.27    689.50     26.26
 67.37    721.00     26.85
 67.47    823.00     28.69
 67.57    791.37     28.13
 67.67    951.66     30.85
 67.77   1064.00     32.62
 67.87   1193.00     34.54
 67.97   1391.00     37.30
 68.07   1581.00     39.76
 68.17   1887.00     43.44
 68.27   2120.00     46.04
 68.37   2266.72     47.61
 68.47   2449.67     49.49
 68.57   2427.00     49.26
 68.67   2414.00     49.13
 68.77   2236.00     47.29
 68.87   1933.00     43.97
 68.97   1745.00     41.77
 69.07   1519.97     38.99
 69.17   1237.00     35.17
 69.27   1140.00     33.76
 69.37    931.00     30.51
 69.47    843.00     29.03
 69.57    827.00     28.76
 69.67    743.00     27.26
 69.77    729.42     27.01
 69.87    721.00     26.85
 69.97    626.22     25.02
 70.07    683.00     26.13
 70.17    618.00     24.86
 70.27    651.00     25.51
 70.37    651.00     25.51
 70.47    629.07     25.08
 70.57    615.20     24.80
 70.67    693.00     26.32
 70.77    629.00     25.08
 70.87    653.98     25.57
 70.97    698.43     26.43
 71.07    704.50     26.54
 71.17    711.29     26.67
 71.27    694.65     26.36
 71.37    751.60     27.42
 71.47    750.00     27.39
 71.57    846.20     29.09
 71.67    972.36     31.18
 71.77    997.00     31.58
 71.87   1177.00     34.31
 71.97   1283.00     35.82
 72.07   1508.00     38.83
 72.17   1661.00     40.76
 72.27   1738.29     41.69
 72.37   1858.00     43.10
 72.47   1947.71     44.13
 72.57   1875.00     43.30
 72.67   1775.00     42.13
 72.77   1796.00     42.38
 72.87   1501.55     38.75
 72.97   1385.00     37.22
 73.07   1261.48     35.52
 73.17   1123.00     33.51
 73.27    979.00     31.29
 73.37    912.74     30.21
 73.47    822.00     28.67
 73.57    765.43     27.67
 73.67    717.00     26.78
 73.77    687.00     26.21
 73.87    603.82     24.57
 73.97    596.11     24.42
 74.07    594.00     24.37
 74.17    636.00     25.22
 74.27    602.00     24.54
 74.37    655.29     25.60
 74.47    635.00     25.20
 74.57    684.00     26.15
 74.67    574.94     23.98
 74.77    630.00     25.10
 74.87    591.22     24.32
 74.97    692.00     26.31
 75.07    592.81     24.35
 75.17    660.00     25.69
 75.27    585.01     24.19
 75.37    676.48     26.01
 75.47    684.00     26.15
 75.57    673.41     25.95
 75.67    625.16     25.00
 75.77    606.00     24.62
 75.87    612.31     24.74
 75.97    569.72     23.87
 76.07    623.57     24.97
 76.17    706.00     26.57
 76.27    668.00     25.85
 76.37    626.93     25.04
 76.47    665.24     25.79
 76.57    708.00     26.61
 76.67    812.00     28.50
 76.77    811.00     28.48
 76.87    821.00     28.65
 76.97    868.00     29.46
 77.07    854.00     29.22
 77.17    817.86     28.60
 77.27    782.06     27.97
 77.37    835.70     28.91
 77.47    777.00     27.87
 77.57    768.74     27.73
 77.67    713.00     26.70
 77.77    672.00     25.92
 77.87    628.00     25.06
 77.97    624.20     24.98
 78.07    581.00     24.10
 78.17    615.00     24.80
 78.27    592.00     24.33
 78.37    548.29     23.42
 78.47    563.00     23.73
 78.57    574.00     23.96
 78.67    589.72     24.28
 78.77    585.43     24.20
 78.87    594.00     24.37
 78.97    564.00     23.75
 79.07    623.58     24.97
 79.17    562.00     23.71
 79.27    563.00     23.73
 79.37    531.26     23.05
 79.47    542.00     23.28
 79.57    574.00     23.96
 79.67    574.00     23.96
 79.77    563.00     23.73
 79.87    559.96     23.66
 79.97    591.94     24.33
 80.07    559.00     23.64
 80.17    604.00     24.58
 80.27    632.48     25.15
 80.37    587.00     24.23
 80.47    616.82     24.84
 80.57    605.30     24.60
 80.67    651.97     25.53
 80.77    671.87     25.92
 80.87    732.13     27.06
 80.97    741.99     27.24
 81.07    907.69     30.13
 81.17    921.43     30.36
 81.27    926.94     30.45
 81.37    948.34     30.80
 81.47   1016.19     31.88
 81.57   1074.00     32.77
 81.67   1046.44     32.35
 81.77   1006.62     31.73
 81.87   1047.00     32.36
 81.97   1100.00     33.17
 82.07    968.79     31.13
 82.17    995.68     31.55
 82.27    922.00     30.36
 82.37    905.00     30.08
 82.47    813.00     28.51
 82.57    780.00     27.93
 82.67    773.00     27.80
 82.77    748.23     27.35
 82.87    736.14     27.13
 82.97    678.00     26.04
 83.07    720.80     26.85
 83.17    627.46     25.05
 83.27    639.81     25.29
 83.37    603.00     24.56
 83.47    650.00     25.50
 83.57    626.32     25.03
 83.67    584.00     24.17
 83.77    577.00     24.02
 83.87    557.00     23.60
 83.97    572.00     23.92
 84.07    581.00     24.10
 84.17    605.00     24.60
 84.27    582.39     24.13
 84.37    579.00     24.06
 84.47    588.00     24.25
 84.57    624.00     24.98
 84.67    590.00     24.29
 84.77    612.00     24.74
 84.87    604.29     24.58
 84.97    599.00     24.47
 85.07    622.00     24.94
 85.17    623.79     24.98
 85.27    603.00     24.56
 85.37    595.00     24.39
 85.47    576.00     24.00
 85.57    530.00     23.02
 85.67    582.03     24.13
 85.77    569.63     23.87
 85.87    581.00     24.10
 85.97    553.00     23.52
 86.07    535.21     23.13
 86.17    593.00     24.35
 86.27    559.00     23.64
 86.37    589.00     24.27
 86.47    600.03     24.50
 86.57    546.00     23.37
 86.67    580.00     24.08
 86.77    661.00     25.71
 86.87    604.00     24.58
 86.97    658.00     25.65
 87.07    601.71     24.53
 87.17    651.03     25.52
 87.27    648.00     25.46
 87.37    647.44     25.44
 87.47    649.00     25.48
 87.57    632.89     25.16
 87.67    656.87     25.63
 87.77    670.57     25.90
 87.87    673.00     25.94
 87.97    633.00     25.16
 88.07    638.91     25.28
 88.17    656.00     25.61
 88.27    680.68     26.09
 88.37    651.00     25.51
 88.47    659.00     25.67
 88.57    628.00     25.06
 88.67    622.00     24.94
 88.77    649.00     25.48
 88.87    576.31     24.01
 88.97    583.00     24.15
 89.07    593.00     24.35
 89.17    595.97     24.41
 89.27    600.00     24.49
 89.37    611.10     24.72
 89.47    606.00     24.62
 89.57    590.00     24.29
 89.67    619.00     24.88
 89.77    585.00     24.19
 89.87    654.00     25.57
 89.97    652.00     25.53
 90.07    602.00     24.54
 90.17    643.00     25.36
 90.27    600.00     24.49
 90.37    610.00     24.70
 90.47    618.00     24.86
 90.57    625.00     25.00
 90.67    588.00     24.25
 90.77    584.88     24.18
 90.87    589.00     24.27
 90.97    581.62     24.12
 91.07    604.00     24.58
 91.17    555.00     23.56
 91.27    536.00     23.15
 91.37    575.00     23.98
 91.47    558.00     23.62
 91.57    579.13     24.07
 91.67    544.00     23.32
 91.77    579.00     24.06
 91.87    542.00     23.28
 91.97    580.00     24.08
 92.07    522.88     22.87
 92.17    567.00     23.81
 92.27    614.02     24.78
 92.37    596.25     24.42
 92.47    545.00     23.35
 92.57    560.00     23.66
 92.67    595.00     24.39
 92.77    616.39     24.83
 92.87    598.00     24.45
 92.97    609.00     24.68
 93.07    677.00     26.02
 93.17    652.00     25.53
 93.27    700.24     26.46
 93.37    720.58     26.84
 93.47    756.00     27.50
 93.57    689.00     26.25
 93.67    778.50     27.90
 93.77    766.00     27.68
 93.87    728.00     26.98
 93.97    761.02     27.59
 94.07    818.00     28.60
 94.17    780.91     27.94
 94.27    810.42     28.47
 94.37    908.62     30.14
 94.47    828.47     28.78
 94.57    927.41     30.45
 94.67    941.00     30.68
 94.77    929.62     30.49
 94.87    898.00     29.97
 94.97    925.00     30.41
 95.07    971.00     31.16
 95.17   1028.63     32.07
 95.27    944.59     30.73
 95.37    989.22     31.45
 95.47   1013.79     31.84
 95.57    978.00     31.27
 95.67    953.00     30.87
 95.77    904.00     30.07
 95.87    943.00     30.71
 95.97    874.00     29.56
 96.07    843.00     29.03
 96.17    854.00     29.22
 96.27    819.00     28.62
 96.37    826.00     28.74
 96.47    702.00     26.50
 96.57    749.54     27.38
 96.67    754.00     27.46
 96.77    738.70     27.18
 96.87    870.00     29.50
 96.97    817.00     28.58
 97.07    858.00     29.29
 97.17    967.38     31.10
 97.27   1001.56     31.65
 97.37   1069.00     32.70
 97.47   1148.60     33.89
 97.57   1186.00     34.44
 97.67   1216.09     34.87
 97.77   1264.53     35.56
 97.87   1390.00     37.28
 97.97   1497.00     38.69
 98.07   1520.00     38.99
 98.17   1578.00     39.72
 98.27   1551.00     39.38
 98.37   1505.00     38.79
 98.47   1481.00     38.48
 98.57   1429.00     37.80
 98.67   1362.00     36.91
 98.77   1322.00     36.36
 98.87   1318.59     36.31
 98.97   1156.38     34.01
 99.07   1160.18     34.06
 99.17   1044.00     32.31
 99.27   1030.00     32.09
 99.37    975.30     31.23
 99.47   1013.00     31.83
 99.57    897.77     29.96
 99.67    930.00     30.50
 99.77   1022.00     31.97
 99.87   1048.00     32.37
 99.97    964.52     31.06
100.07   1065.68     32.64
100.17   1160.00     34.06
100.27   1256.00     35.44
100.37   1263.25     35.54
100.47   1436.44     37.90
100.57   1469.00     38.33
100.67   1494.21     38.65
100.77   1653.69     40.67
100.87   1760.87     41.96
100.97   1837.00     42.86
101.07   1954.42     44.21
101.17   1945.00     44.10
101.27   2010.00     44.83
101.37   2056.00     45.34
101.47   2072.00     45.52
101.57   2024.00     44.99
101.67   2027.00     45.02
101.77   2035.00     45.11
101.87   1997.00     44.69
101.97   1895.00     43.53
102.07   1801.00     42.44
102.17   1717.00     41.44
102.27   1614.00     40.17
102.37   1582.00     39.77
102.47   1555.00     39.43
102.57   1463.65     38.26
102.67   1419.41     37.68
102.77   1275.00     35.71
102.87   1302.23     36.09
102.97   1258.00     35.47
103.07   1280.00     35.78
103.17   1237.95     35.18
103.27   1189.00     34.48
103.37   1258.12     35.47
103.47   1142.00     33.79
103.57   1142.01     33.79
103.67   1066.00     32.65
103.77   1116.23     33.41
103.87   1026.00     32.03
103.97   1001.00     31.64
104.07    926.00     30.43
104.17    863.00     29.38
104.27    798.15     28.25
104.37    771.32     27.77
104.47    737.00     27.15
104.57    755.00     27.48
104.67    749.00     27.37
104.77    665.00     25.79
104.87    631.00     25.12
104.97    641.00     25.32
105.07    690.00     26.27
105.17    665.00     25.79
105.27    601.00     24.52
105.37    590.17     24.29
105.47    583.07     24.15
105.57    601.00     24.52
105.67    581.00     24.10
105.77    580.00     24.08
105.87    584.00     24.17
105.97    576.00     24.00
106.07    613.00     24.76
106.17    611.61     24.73
106.27    620.00     24.90
106.37    606.00     24.62
106.47    538.01     23.19
106.57    627.00     25.04
106.67    628.00     25.06
106.77    615.00     24.80
106.87    631.00     25.12
106.97    663.28     25.75
107.07    683.00     26.13
107.17    682.34     26.12
107.27    680.89     26.09
107.37    699.00     26.44
107.47    709.00     26.63
107.57    654.46     25.58
107.67    742.00     27.24
107.77    684.79     26.17
107.87    709.00     26.63
107.97    722.00     26.87
108.07    742.00     27.24
108.17    714.56     26.73
108.27    738.00     27.17
108.37    776.49     27.87
108.47    752.00     27.42
108.57    699.56     26.45
108.67    687.00     26.21
108.77    749.39     27.37
108.87    698.29     26.43
108.97    695.97     26.38
109.07    715.00     26.74
109.17    751.00     27.40
109.27    691.00     26.29
109.37    710.00     26.65
109.47    759.25     27.55
109.57    712.00     26.68
109.67    764.00     27.64
109.77    739.00     27.18
109.87    790.38     28.11
109.97    699.00     26.44
110.07    777.32     27.88
110.17    772.69     27.80
110.27    766.00     27.68
110.37    730.16     27.02
110.47    643.00     25.36
110.57    674.00     25.96
110.67    698.01     26.42
110.77    650.00     25.50
110.87    690.26     26.27
110.97    653.60     25.57
111.07    615.00     24.80
111.17    589.46     24.28
111.27    591.00     24.31
111.37    647.00     25.44
111.47    545.18     23.35
111.57    618.00     24.86
111.67    608.00     24.66
111.77    618.59     24.87
111.87    586.00     24.21
111.97    531.42     23.05
112.07    639.00     25.28
112.17    586.00     24.21
112.27    574.80     23.98
112.37    577.00     24.02
112.47    616.55     24.83
112.57    612.00     24.74
112.67    572.00     23.92
112.77    527.72     22.97
112.87    555.00     23.56
112.97    572.00     23.92
113.07    547.20     23.39
113.17    627.00     25.04
113.27    567.00     23.81
113.37    555.00     23.56
113.47    562.00     23.71
113.57    610.00     24.70
113.67    609.00     24.68
113.77    621.00     24.92
113.87    628.87     25.08
113.97    656.00     25.61
114.07    631.50     25.13
114.17    641.00     25.32
114.27    658.00     25.65
114.37    680.53     26.09
114.47    665.00     25.79
114.57    770.62     27.76
114.67    750.00     27.39
114.77    789.00     28.09
114.87    844.00     29.05
114.97    893.67     29.89
115.07    937.14     30.61
115.17   1035.00     32.17
115.27   1171.00     34.22
115.37   1315.32     36.27
115.47   1443.00     37.99
115.57   1524.62     39.05
115.67   1642.64     40.53
115.77   2037.00     45.13
115.87   2259.00     47.53
115.97   2462.00     49.62
116.07   2795.02     52.87
116.17   3088.00     55.57
116.27   3325.00     57.66
116.37   3637.73     60.31
116.47   4101.00     64.04
116.57   4430.00     66.56
116.67   4851.00     69.65
116.77   5234.00     72.35
116.87   5805.00     76.19
116.97   5813.00     76.24
117.07   6289.00     79.30
117.17   6621.00     81.37
117.27   7090.44     84.20
117.37   7090.61     84.21
117.47   7117.69     84.37
117.57   7266.28     85.24
117.67   7308.00     85.49
117.77   7370.00     85.85
117.87   7032.00     83.86
117.97   6966.00     83.46
118.07   6775.52     82.31
118.17   6315.00     79.47
118.27   5826.00     76.33
118.37   5475.00     73.99
118.47   5270.00     72.59
118.57   4764.35     69.02
118.67   4544.51     67.41
118.77   4202.48     64.83
118.87   3753.00     61.26
118.97   3509.00     59.24
119.07   3079.00     55.49
119.17   2865.21     53.53
119.27   2434.76     49.34
119.37   2290.00     47.85
119.47   2033.00     45.09
119.57   1900.00     43.59
119.67   1699.00     41.22
119.77   1522.00     39.01
119.87   1447.00     38.04
119.97   1273.00     35.68
120.07   1201.45     34.66
120.17   1134.00     33.67
120.27    957.00     30.94
120.37    907.00     30.12
120.47    930.00     30.50
120.57    874.00     29.56
120.67    862.00     29.36
120.77    771.20     27.77
120.87    736.58     27.14
120.97    753.00     27.44
121.07    747.00     27.33
121.17    698.00     26.42
121.27    727.00     26.96
121.37    654.44     25.58
121.47    663.98     25.77
121.57    660.00     25.69
121.67    635.16     25.20
121.77    658.00     25.65
121.87    701.49     26.49
121.97    650.00     25.50
122.07    649.69     25.49
122.17    639.56     25.29
122.27    651.55     25.53
122.37    673.68     25.96
122.47    632.00     25.14
122.57    692.00     26.31
122.67    656.17     25.62
122.77    702.00     26.50
122.87    655.00     25.59
122.97    707.73     26.60
123.07    661.25     25.71
123.17    700.00     26.46
123.27    684.00     26.15
123.37    680.00     26.08
123.47    704.27     26.54
123.57    748.00     27.35
123.67    667.14     25.83
123.77    742.02     27.24
123.87    680.32     26.08
123.97    682.54     26.13
124.07    756.00     27.50
124.17    740.00     27.20
124.27    695.00     26.36
124.37    740.60     27.21
124.47    712.86     26.70
124.57    725.00     26.93
124.67    703.00     26.51
124.77    713.00     26.70
124.87    734.00     27.09
124.97    681.00     26.10
