XYDATA



INTER 1.0 1.0 0 0
TEMP 721.317
  9.97    653.00     25.55
 10.07    686.00     26.19
 10.17    693.00     26.32
 10.27    648.00     25.46
 10.37    617.31     24.85
 10.47    680.00     26.08
 10.57    664.00     25.77
 10.67    662.00     25.73
 10.77    619.98     24.90
 10.87    641.00     25.32
 10.97    590.73     24.30
 11.07    617.00     24.84
 11.17    602.00     24.54
 11.27    688.88     26.25
 11.37    593.66     24.37
 11.47    645.00     25.40
 11.57    660.40     25.70
 11.67    729.00     27.00
 11.77    737.00     27.15
 11.87    662.32     25.74
 11.97    773.00     27.80
 12.07    672.30     25.93
 12.17    802.00     28.32
 12.27    745.61     27.31
 12.37    766.07     27.68
 12.47    753.47     27.45
 12.57    691.00     26.29
 12.67    638.44     25.27
 12.77    660.00     25.69
 12.87    652.00     25.53
 12.97    648.00     25.46
 13.07    625.00     25.00
 13.17    675.00     25.98
 13.27    603.00     24.56
 13.37    626.00     25.02
 13.47    601.00     24.52
 13.57    584.00     24.17
 13.67    587.25     24.23
 13.77    656.60     25.62
 13.87    598.00     24.45
 13.97    603.66     24.57
 14.07    657.23     25.64
 14.17    567.00     23.81
 14.27    592.80     24.35
 14.37    597.41     24.44
 14.47    601.00     24.52
 14.57    586.00     24.21
 14.67    594.18     24.38
 14.77    645.00     25.40
 14.87    685.28     26.18
 14.97    592.00     24.33
 15.07    627.14     25.04
 15.17    583.00     24.15
 15.27    651.00     25.51
 15.37    581.00     24.10
 15.47    623.00     24.96
 15.57    560.00     23.66
 15.67    604.00     24.58
 15.77    625.00     25.00
 15.87    685.36     26.18
 15.97    643.00     25.36
 16.07    660.49     25.70
 16.17    582.00     24.12
 16.27    657.00     25.63
 16.37    589.58     24.28
 16.47    612.00     24.74
 16.57    654.00     25.57
 16.67    610.00     24.70
 16.77    583.25     24.15
 16.87    611.00     24.72
 16.97    602.44     24.54
 17.07    598.64     24.47
 17.17    628.50     25.07
 17.27    641.68     25.33
 17.37    636.00     25.22
 17.47    601.00     24.52
 17.57    637.00     25.24
 17.67    590.50     24.30
 17.77    598.00     24.45
 17.87    613.45     24.77
 17.97    607.12     24.64
 18.07    575.99     24.00
 18.17    572.81     23.93
 18.27    661.06     25.71
 18.37    575.29     23.99
 18.47    636.64     25.23
 18.57    591.00     24.31
 18.67    627.00     25.04
 18.77    674.62     25.97
 18.87    597.62     24.45
 18.97    667.09     25.83
 19.07    651.69     25.53
 19.17    612.93     24.76
 19.27    637.00     25.24
 19.37    578.00     24.04
 19.47    617.00     24.84
 19.57    614.00     24.78
 19.67    584.00     24.17
 19.77    612.41     24.75
 19.87    675.46     25.99
 19.97    617.00     24.84
 20.07    631.00     25.12
 20.17    601.00     24.52
 20.27    614.07     24.78
 20.37    637.00     25.24
 20.47    597.00     24.43
 20.57    595.00     24.39
 20.67    636.03     25.22
 20.77    642.67     25.35
 20.87    637.31     25.24
 20.97    633.68     25.17
 21.07    628.00     25.06
 21.17    608.00     24.66
 21.27    667.24     25.83
 21.37    614.00     24.78
 21.47    601.00     24.52
 21.57    585.04     24.19
 21.67    629.00     25.08
 21.77    625.79     25.02
 21.87    574.82     23.98
 21.97    584.00     24.17
 22.07    604.00     24.58
 22.17    568.87     23.85
 22.27    590.00     24.29
 22.37    632.00     25.14
 22.47    585.00     24.19
 22.57    592.00     24.33
 22.67    623.00     24.96
 22.77    634.00     25.18
 22.87    570.00     23.87
 22.97    585.00     24.19
 23.07    617.00     24.84
 23.17    538.00     23.19
 23.27    575.36     23.99
 23.37    655.47     25.60
 23.47    625.88     25.02
 23.57    655.00     25.59
 23.67    588.11     24.25
 23.77    599.00     24.47
 23.87    628.00     25.06
 23.97    642.86     25.35
 24.07    604.00     24.58
 24.17    665.00     25.79
 24.27    644.00     25.38
 24.37    631.74     25.13
 24.47    627.00     25.04
 24.57    586.01     24.21
 24.67    670.00     25.88
 24.77    690.00     26.27
 24.87    695.00     26.36
 24.97    679.00     26.06
 25.07    706.00     26.57
 25.17    711.00     26.66
 25.27    673.72     25.96
 25.37    672.00     25.92
 25.47    652.00     25.53
 25.57    569.68     23.87
 25.67    574.15     23.96
 25.77    592.33     24.34
 25.87    663.14     25.75
 25.97    655.00     25.59
 26.07    652.36     25.54
 26.17    666.00     25.81
 26.27    625.80     25.02
 26.37    603.82     24.57
 26.47    654.00     25.57
 26.57    575.32     23.99
 26.67    648.00     25.46
 26.77    680.00     26.08
 26.87    635.98     25.22
 26.97    634.85     25.20
 27.07    687.00     26.21
 27.17    738.00     27.17
 27.27    678.00     26.04
 27.37    678.00     26.04
 27.47    620.52     24.91
 27.57    660.18     25.69
 27.67    765.00     27.66
 27.77    847.00     29.10
 27.87    880.00     29.66
 27.97    939.26     30.65
 28.07   1123.00     33.51
 28.17   1502.25     38.76
 28.27   1867.00     43.21
 28.37   2129.00     46.14
 28.47   2006.00     44.79
 28.57   1802.00     42.45
 28.67   1478.93     38.46
 28.77   1449.55     38.07
 28.87   1426.59     37.77
 28.97   1448.25     38.06
 29.07   1461.00     38.22
 29.17   1483.00     38.51
 29.27   1236.00     35.16
 29.37   1112.00     33.35
 29.47    915.72     30.26
 29.57    831.00     28.83
 29.67    726.11     26.95
 29.77    650.81     25.51
 29.87    703.00     26.51
 29.97    605.29     24.60
 30.07    592.52     24.34
 30.17    623.46     24.97
 30.27    624.30     24.99
 30.37    646.50     25.43
 30.47    649.00     25.48
 30.57    681.00     26.10
 30.67    690.00     26.27
 30.77    645.49     25.41
 30.87    701.83     26.49
 30.97    687.00     26.21
 31.07    694.00     26.34
 31.17    717.00     26.78
 31.27    706.00     26.57
 31.37    619.24     24.88
 31.47    664.00     25.77
 31.57    669.00     25.87
 31.67    608.41     24.67
 31.77    614.00     24.78
 31.87    656.00     25.61
 31.97    641.00     25.32
 32.07    627.00     25.04
 32.17    593.00     24.35
 32.27    596.33     24.42
 32.37    613.00     24.76
 32.47    630.00     25.10
 32.57    586.00     24.21
 32.67    587.00     24.23
 32.77    603.00     24.56
 32.87    587.00     24.23
 32.97    588.00     24.25
 33.07    631.81     25.14
 33.17    629.96     25.10
 33.27    626.00     25.02
 33.37    658.74     25.67
 33.47    669.01     25.87
 33.57    624.00     24.98
 33.67    589.00     24.27
 33.77    703.81     26.53
 33.87    814.00     28.53
 33.97    912.00     30.20
 34.07    999.00     31.61
 34.17    998.86     31.60
 34.27    996.92     31.57
 34.37    993.00     31.51
 34.47    875.00     29.58
 34.57    804.00     28.35
 34.67    716.79     26.77
 34.77    639.53     25.29
 34.87    622.00     24.94
 34.97    630.00     25.10
 35.07    600.91     24.51
 35.17    627.00     25.04
 35.27    554.01     23.54
 35.37    576.00     24.00
 35.47    560.00     23.66
 35.57    618.68     24.87
 35.67    549.00     23.43
 35.77    548.00     23.41
 35.87    598.77     24.47
 35.97    553.00     23.52
 36.07    548.57     23.42
 36.17    615.11     24.80
 36.27    516.78     22.73
 36.37    557.00     23.60
 36.47    585.44     24.20
 36.57    606.31     24.62
 36.67    576.00     24.00
 36.77    526.00     22.93
 36.87    565.00     23.77
 36.97    588.66     24.26
 37.07    535.00     23.13
 37.17    579.00     24.06
 37.27    559.00     23.64
 37.37    576.00     24.00
 37.47    555.00     23.56
 37.57    588.00     24.25
 37.67    593.95     24.37
 37.77    544.65     23.34
 37.87    629.00     25.08
 37.97    584.00     24.17
 38.07    584.00     24.17
 38.17    598.00     24.45
 38.27    587.00     24.23
 38.37    550.00     23.45
 38.47    538.38     23.20
 38.57    582.00     24.12
 38.67    523.00     22.87
 38.77    557.00     23.60
 38.87    581.86     24.12
 38.97    512.00     22.63
 39.07    532.00     23.07
 39.17    493.00     22.20
 39.27    507.68     22.53
 39.37    543.00     23.30
 39.47    584.28     24.17
 39.57    540.00     23.24
 39.67    514.00     22.67
 39.77    504.00     22.45
 39.87    556.00     23.58
 39.97    595.50     24.40
 40.07    579.00     24.06
 40.17    507.83     22.54
 40.27    558.00     23.62
 40.37    532.00     23.07
 40.47    531.20     23.05
 40.57    568.00     23.83
 40.67    533.00     23.09
 40.77    548.83     23.43
 40.87    540.00     23.24
 40.97    533.00     23.09
 41.07    547.00     23.39
 41.17    537.82     23.19
 41.27    523.00     22.87
 41.37    568.00     23.83
 41.47    538.00     23.19
 41.57    555.00     23.56
 41.67    599.00     24.47
 41.77    550.00     23.45
 41.87    541.37     23.27
 41.97    548.00     23.41
 42.07    583.61     24.16
 42.17    524.00     22.89
 42.27    569.00     23.85
 42.37    581.59     24.12
 42.47    599.54     24.49
 42.57    587.68     24.24
 42.67    646.00     25.42
 42.77    620.00     24.90
 42.87    645.00     25.40
 42.97    639.36     25.29
 43.07    584.00     24.17
 43.17    593.63     24.36
 43.27    565.00     23.77
 43.37    586.00     24.21
 43.47    569.00     23.85
 43.57    526.90     22.95
 43.67    540.00     23.24
 43.77    565.00     23.77
 43.87    548.97     23.43
 43.97    591.00     24.31
 44.07    597.00     24.43
 44.17    507.76     22.53
 44.27    585.91     24.21
 44.37    521.77     22.84
 44.47    530.00     23.02
 44.57    595.05     24.39
 44.67    593.00     24.35
 44.77    565.00     23.77
 44.87    547.00     23.39
 44.97    536.00     23.15
 45.07    569.00     23.85
 45.17    532.23     23.07
 45.27    524.00     22.89
 45.37    571.00     23.90
 45.47    539.00     23.22
 45.57    537.04     23.17
 45.67    541.25     23.26
 45.77    575.00     23.98
 45.87    526.00     22.93
 45.97    550.00     23.45
 46.07    537.00     23.17
 46.17    570.00     23.87
 46.27    538.00     23.19
 46.37    520.00     22.80
 46.47    596.00     24.41
 46.57    579.00     24.06
 46.67    503.18     22.43
 46.77    581.00     24.10
 46.87    535.00     23.13
 46.97    546.00     23.37
 47.07    547.00     23.39
 47.17    582.00     24.12
 47.27    549.00     23.43
 47.37    631.00     25.12
 47.47    560.09     23.67
 47.57    561.67     23.70
 47.67    598.00     24.45
 47.77    542.20     23.29
 47.87    580.00     24.08
 47.97    658.00     25.65
 48.07    681.00     26.10
 48.17    615.00     24.80
 48.27    608.02     24.66
 48.37    585.00     24.19
 48.47    596.52     24.42
 48.57    608.00     24.66
 48.67    566.11     23.79
 48.77    615.68     24.81
 48.87    587.00     24.23
 48.97    579.71     24.08
 49.07    607.00     24.64
 49.17    607.41     24.65
 49.27    596.00     24.41
 49.37    611.00     24.72
 49.47    656.00     25.61
 49.57    655.01     25.59
 49.67    772.66     27.80
 49.77    831.48     28.84
 49.87    922.21     30.37
 49.97   1098.00     33.14
 50.07   1428.00     37.79
 50.17   1786.00     42.26
 50.27   2179.00     46.68
 50.37   2339.80     48.37
 50.47   2551.00     50.51
 50.57   2245.00     47.38
 50.67   1985.00     44.55
 50.77   1586.00     39.82
 50.87   1312.00     36.22
 50.97   1037.00     32.20
 51.07    866.00     29.43
 51.17    796.00     28.21
 51.27    745.00     27.29
 51.37    674.38     25.97
 51.47    708.87     26.62
 51.57    634.00     25.18
 51.67    652.00     25.53
 51.77    672.10     25.92
 51.87    617.66     24.85
 51.97    645.00     25.40
 52.07    555.00     23.56
 52.17    577.21     24.03
 52.27    635.00     25.20
 52.37    622.00     24.94
 52.47    562.93     23.73
 52.57    605.00     24.60
 52.67    639.46     25.29
 52.77    615.96     24.82
 52.87    620.22     24.90
 52.97    585.00     24.19
 53.07    682.35     26.12
 53.17    705.00     26.55
 53.27    763.00     27.62
 53.37    870.00     29.50
 53.47    974.00     31.21
 53.57   1048.32     32.38
 53.67   1187.00     34.45
 53.77   1219.65     34.92
 53.87   1301.98     36.08
 53.97   1116.00     33.41
 54.07   1058.00     32.53
 54.17    992.18     31.50
 54.27    821.25     28.66
 54.37    782.00     27.96
 54.47    738.26     27.17
 54.57    632.00     25.14
 54.67    632.70     25.15
 54.77    634.00     25.18
 54.87    617.00     24.84
 54.97    601.53     24.53
 55.07    603.00     24.56
 55.17    629.00     25.08
 55.27    582.00     24.12
 55.37    609.00     24.68
 55.47    591.13     24.31
 55.57    606.00     24.62
 55.67    641.00     25.32
 55.77    592.05     24.33
 55.87    657.00     25.63
 55.97    698.56     26.43
 56.07    733.00     27.07
 56.17    725.00     26.93
 56.27    754.90     27.48
 56.37    875.00     29.58
 56.47    972.10     31.18
 56.57   1078.00     32.83
 56.67   1337.00     36.57
 56.77   1662.54     40.77
 56.87   1937.00     44.01
 56.97   2282.00     47.77
 57.07   2572.00     50.71
 57.17   2642.48     51.41
 57.27   2499.06     49.99
 57.37   2305.00     48.01
 57.47   1896.00     43.54
 57.57   1592.00     39.90
 57.67   1357.00     36.84
 57.77   1041.00     32.26
 57.87    923.00     30.38
 57.97    874.52     29.57
 58.07    788.00     28.07
 58.17    776.00     27.86
 58.27    762.00     27.60
 58.37    757.00     27.51
 58.47    757.00     27.51
 58.57    804.00     28.35
 58.67    872.90     29.54
 58.77    982.00     31.34
 58.87   1004.00     31.69
 58.97   1140.60     33.77
 59.07   1191.59     34.52
 59.17   1180.00     34.35
 59.27   1288.00     35.89
 59.37   1349.00     36.73
 59.47   1239.83     35.21
 59.57   1238.00     35.19
 59.67   1198.00     34.61
 59.77   1270.00     35.64
 59.87   1193.00     34.54
 59.97   1198.98     34.63
 60.07   1203.83     34.70
 60.17   1278.73     35.76
 60.27   1392.07     37.31
 60.37   1530.00     39.12
 60.47   1558.00     39.47
 60.57   1500.00     38.73
 60.67   1628.00     40.35
 60.77   1382.00     37.18
 60.87   1263.00     35.54
 60.97   1133.00     33.66
 61.07    914.61     30.24
 61.17    892.00     29.87
 61.27    788.81     28.09
 61.37    747.00     27.33
 61.47    770.00     27.75
 61.57    700.95     26.48
 61.67    790.22     28.11
 61.77    766.00     27.68
 61.87    820.00     28.64
 61.97    897.56     29.96
 62.07   1061.00     32.57
 62.17   1137.00     33.72
 62.27   1280.56     35.78
 62.37   1325.00     36.40
 62.47   1376.00     37.09
 62.57   1323.00     36.37
 62.67   1276.00     35.72
 62.77   1213.46     34.83
 62.87   1059.47     32.55
 62.97    956.00     30.92
 63.07    843.36     29.04
 63.17    773.00     27.80
 63.27    681.05     26.10
 63.37    732.00     27.06
 63.47    649.00     25.48
 63.57    643.00     25.36
 63.67    633.00     25.16
 63.77    666.93     25.83
 63.87    669.86     25.88
 63.97    684.00     26.15
 64.07    675.00     25.98
 64.17    643.72     25.37
 64.27    691.00     26.29
 64.37    791.00     28.12
 64.47    878.00     29.63
 64.57    850.78     29.17
 64.67    959.00     30.97
 64.77   1055.00     32.48
 64.87   1098.58     33.14
 64.97   1157.00     34.01
 65.07   1106.00     33.26
 65.17   1084.00     32.92
 65.27   1116.00     33.41
 65.37    930.18     30.50
 65.47    913.00     30.22
 65.57    858.54     29.30
 65.67    839.30     28.97
 65.77    759.00     27.55
 65.87    684.00     26.15
 65.97    629.00     25.08
 66.07    694.00     26.34
 66.17    661.00     25.71
 66.27    609.00     24.68
 66.37    602.54     24.55
 66.47    684.00     26.15
 66.57    642.49     25.35
 66.67    585.00     24.19
 66.77    572.00     23.92
 66.87    620.44     24.91
 66.97    586.12     24.21
 67.07    634.00     25.18
 67.17    664.90     25.79
 67.27    712.00     26.68
 67.37    787.29     28.06
 67.47    803.00     28.34
 67.57    896.84     29.95
 67.67    952.00     30.85
 67.77   1119.00     33.45
 67.87   1330.00     36.47
 67.97   1478.41     38.45
 68.07   1785.00     42.25
 68.17   1980.53     44.50
 68.27   2192.24     46.82
 68.37   2435.00     49.35
 68.47   2328.00     48.25
 68.57   2436.78     49.36
 68.67   2156.64     46.44
 68.77   1928.00     43.91
 68.87   1775.00     42.13
 68.97   1482.00     38.50
 69.07   1347.52     36.71
 69.17   1111.44     33.34
 69.27    925.86     30.43
 69.37    834.00     28.88
 69.47    775.54     27.85
 69.57    700.95     26.48
 69.67    635.00     25.20
 69.77    675.00     25.98
 69.87    683.56     26.15
 69.97    651.00     25.51
 70.07    619.00     24.88
 70.17    606.00     24.62
 70.27    603.00     24.56
 70.37    624.00     24.98
 70.47    680.00     26.08
 70.57    661.00     25.71
 70.67    643.93     25.38
 70.77    605.00     24.60
 70.87    654.00     25.57
 70.97    642.06     25.34
 71.07    636.00     25.22
 71.17    641.00     25.32
 71.27    665.78     25.80
 71.37    684.70     26.17
 71.47    811.00     28.48
 71.57    892.85     29.88
 71.67    909.13     30.15
 71.77   1107.00     33.27
 71.87   1203.00     34.68
 71.97   1397.00     37.38
 72.07   1555.98     39.45
 72.17   1752.00     41.86
 72.27   1843.33     42.93
 72.37   1887.00     43.44
 72.47   1848.41     42.99
 72.57   1827.00     42.74
 72.67   1710.00     41.35
 72.77   1558.00     39.47
 72.87   1363.00     36.92
 72.97   1247.00     35.31
 73.07   1097.00     33.12
 73.17    896.85     29.95
 73.27    863.00     29.38
 73.37    786.00     28.04
 73.47    748.00     27.35
 73.57    773.00     27.80
 73.67    716.00     26.76
 73.77    672.00     25.92
 73.87    595.88     24.41
 73.97    653.00     25.55
 74.07    624.00     24.98
 74.17    646.00     25.42
 74.27    571.21     23.90
 74.37    559.00     23.64
 74.47    594.00     24.37
 74.57    636.00     25.22
 74.67    622.00     24.94
 74.77    642.00     25.34
 74.87    563.54     23.74
 74.97    669.00     25.87
 75.07    689.00     26.25
 75.17    609.37     24.69
 75.27    670.00     25.88
 75.37    721.00     26.85
 75.47    648.43     25.46
 75.57    562.48     23.72
 75.67    547.91     23.41
 75.77    554.99     23.56
 75.87    655.00     25.59
 75.97    632.00     25.14
 76.07    601.00     24.52
 76.17    628.00     25.06
 76.27    667.25     25.83
 76.37    659.00     25.67
 76.47    692.00     26.31
 76.57    700.85     26.47
 76.67    746.00     27.31
 76.77    710.60     26.66
 76.87    740.01     27.20
 76.97    793.00     28.16
 77.07    723.00     26.89
 77.17    744.12     27.28
 77.27    698.00     26.42
 77.37    680.00     26.08
 77.47    670.86     25.90
 77.57    693.00     26.32
 77.67    650.00     25.50
 77.77    594.12     24.37
 77.87    657.78     25.65
 77.97    600.00     24.49
 78.07    586.00     24.21
 78.17    563.00     23.73
 78.27    610.88     24.72
 78.37    516.26     22.72
 78.47    562.00     23.71
 78.57    525.01     22.91
 78.67    565.00     23.77
 78.77    512.69     22.64
 78.87    584.00     24.17
 78.97    527.00     22.96
 79.07    552.00     23.49
 79.17    575.77     24.00
 79.27    536.81     23.17
 79.37    611.15     24.72
 79.47    577.00     24.02
 79.57    586.49     24.22
 79.67    592.00     24.33
 79.77    589.07     24.27
 79.87    529.00     23.00
 79.97    558.93     23.64
 80.07    579.00     24.06
 80.17    599.00     24.47
 80.27    596.00     24.41
 80.37    616.00     24.82
 80.47    661.58     25.72
 80.57    609.00     24.68
 80.67    595.52     24.40
 80.77    634.00     25.18
 80.87    671.74     25.92
 80.97    761.10     27.59
 81.07    741.00     27.22
 81.17    758.84     27.55
 81.27    839.03     28.97
 81.37    799.00     28.27
 81.47    796.00     28.21
 81.57    832.00     28.84
 81.67    866.31     29.43
 81.77    898.00     29.97
 81.87    820.00     28.64
 81.97    794.14     28.18
 82.07    821.37     28.66
 82.17    820.00     28.64
 82.27    773.00     27.80
 82.37    762.00     27.60
 82.47    754.00     27.46
 82.57    734.26     27.10
 82.67    705.00     26.55
 82.77    693.00     26.32
 82.87    676.00     26.00
 82.97    612.00     24.74
 83.07    622.59     24.95
 83.17    618.00     24.86
 83.27    648.46     25.46
 83.37    585.00     24.19
 83.47    575.00     23.98
 83.57    607.00     24.64
 83.67    584.00     24.17
 83.77    553.00     23.52
 83.87    569.37     23.86
 83.97    560.26     23.67
 84.07    596.00     24.41
 84.17    563.39     23.74
 84.27    634.68     25.19
 84.37    593.00     24.35
 84.47    571.00     23.90
 84.57    598.00     24.45
 84.67    581.00     24.10
 84.77    575.00     23.98
 84.87    622.51     24.95
 84.97    636.17     25.22
 85.07    595.00     24.39
 85.17    533.75     23.10
 85.27    570.00     23.87
 85.37    560.00     23.66
 85.47    577.00     24.02
 85.57    570.00     23.87
 85.67    565.00     23.77
 85.77    575.00     23.98
 85.87    590.00     24.29
 85.97    587.00     24.23
 86.07    556.00     23.58
 86.17    578.00     24.04
 86.27    571.00     23.90
 86.37    561.00     23.69
 86.47    593.00     24.35
 86.57    524.00     22.89
 86.67    567.00     23.81
 86.77    603.00     24.56
 86.87    541.00     23.26
 86.97    561.00     23.69
 87.07    582.18     24.13
 87.17    583.10     24.15
 87.27    655.00     25.59
 87.37    598.17     24.46
 87.47    626.00     25.02
 87.57    601.38     24.52
 87.67    673.00     25.94
 87.77    661.00     25.71
 87.87    730.00     27.02
 87.97    674.32     25.97
 88.07    679.00     26.06
 88.17    700.00     26.46
 88.27    642.00     25.34
 88.37    664.00     25.77
 88.47    672.00     25.92
 88.57    633.00     25.16
 88.67    596.00     24.41
 88.77    636.95     25.24
 88.87    608.00     24.66
 88.97    621.00     24.92
 89.07    583.00     24.15
 89.17    614.47     24.79
 89.27    619.00     24.88
 89.37    610.00     24.70
 89.47    663.00     25.75
 89.57    553.00     23.52
 89.67    606.00     24.62
 89.77    674.22     25.97
 89.87    592.47     24.34
 89.97    633.00     25.16
 90.07    596.00     24.41
 90.17    602.00     24.54
 90.27    655.45     25.60
 90.37    571.00     23.90
 90.47    584.50     24.18
 90.57    596.71     24.43
 90.67    552.50     23.51
 90.77    525.96     22.93
 90.87    519.69     22.80
 90.97    546.00     23.37
 91.07    599.70     24.49
 91.17    547.00     23.39
 91.27    560.00     23.66
 91.37    512.00     22.63
 91.47    553.51     23.53
 91.57    561.48     23.70
 91.67    505.83     22.49
 91.77    570.00     23.87
 91.87    561.00     23.69
 91.97    526.64     22.95
 92.07    555.00     23.56
 92.17    514.00     22.67
 92.27    560.00     23.66
 92.37    597.00     24.43
 92.47    568.65     23.85
 92.57    537.90     23.19
 92.67    561.00     23.69
 92.77    617.34     24.85
 92.87    639.00     25.28
 92.97    617.00     24.84
 93.07    630.84     25.12
 93.17    654.00     25.57
 93.27    708.45     26.62
 93.37    673.17     25.95
 93.47    717.00     26.78
 93.57    711.00     26.66
 93.67    767.00     27.69
 93.77    751.00     27.40
 93.87    754.34     27.47
 93.97    841.00     29.00
 94.07    761.14     27.59
 94.17    867.00     29.44
 94.27    800.78     28.30
 94.37    845.00     29.07
 94.47    858.00     29.29
 94.57    909.00     30.15
 94.67    898.00     29.97
 94.77    887.00     29.78
 94.87    864.75     29.41
 94.97    927.00     30.45
 95.07    876.05     29.60
 95.17    889.95     29.83
 95.27    865.00     29.41
 95.37    950.00     30.82
 95.47    924.00     30.40
 95.57    957.54     30.94
 95.67    901.00     30.02
 95.77    942.00     30.69
 95.87    900.00     30.00
 95.97    771.66     27.78
 96.07    734.18     27.10
 96.17    744.00     27.28
 96.27    768.00     27.71
 96.37    751.00     27.40
 96.47    732.00     27.06
 96.57    779.15     27.91
 96.67    815.03     28.55
 96.77    837.00     28.93
 96.87    784.00     28.00
 96.97    902.00     30.03
 97.07    906.13     30.10
 97.17    900.51     30.01
 97.27   1023.35     31.99
 97.37   1162.00     34.09
 97.47   1151.00     33.93
 97.57   1294.37     35.98
 97.67   1312.00     36.22
 97.77   1305.70     36.13
 97.87   1413.00     37.59
 97.97   1465.00     38.28
 98.07   1481.15     38.49
 98.17   1444.91     38.01
 98.27   1465.60     38.28
 98.37   1416.80     37.64
 98.47   1417.00     37.64
 98.57   1361.53     36.90
 98.67   1321.00     36.35
 98.77   1241.02     35.23
 98.87   1123.00     33.51
 98.97   1053.00     32.45
 99.07   1013.00     31.83
 99.17    996.00     31.56
 99.27    920.00     30.33
 99.37    950.29     30.83
 99.47    959.00     30.97
 99.57    981.22     31.32
 99.67    968.00     31.11
 99.77    919.53     30.32
 99.87   1064.36     32.62
 99.97   1038.00     32.22
100.07   1148.59     33.89
100.17   1228.76     35.05
100.27   1291.00     35.93
100.37   1277.32     35.74
100.47   1472.00     38.37
100.57   1644.00     40.55
100.67   1635.00     40.44
100.77   1657.67     40.71
100.87   1855.00     43.07
100.97   1848.21     42.99
101.07   1899.00     43.58
101.17   2065.00     45.44
101.27   1952.00     44.18
101.37   1957.00     44.24
101.47   2076.85     45.57
101.57   2009.00     44.82
101.67   1954.00     44.20
101.77   1971.25     44.40
101.87   1847.73     42.99
101.97   1773.00     42.11
102.07   1690.00     41.11
102.17   1660.00     40.74
102.27   1519.00     38.97
102.37   1399.00     37.40
102.47   1372.00     37.04
102.57   1341.00     36.62
102.67   1255.00     35.43
102.77   1240.00     35.21
102.87   1327.06     36.43
102.97   1215.50     34.86
103.07   1189.00     34.48
103.17   1137.93     33.73
103.27   1157.00     34.01
103.37   1054.00     32.47
103.47   1158.47     34.04
103.57   1031.29     32.11
103.67    989.85     31.46
103.77    986.93     31.42
103.87    981.26     31.33
103.97    897.00     29.95
104.07    859.00     29.31
104.17    854.93     29.24
104.27    850.00     29.15
104.37    773.36     27.81
104.47    744.00     27.28
104.57    694.00     26.34
104.67    617.75     24.85
104.77    647.00     25.44
104.87    701.00     26.48
104.97    644.00     25.38
105.07    587.00     24.23
105.17    647.00     25.44
105.27    619.00     24.88
105.37    580.00     24.08
105.47    602.00     24.54
105.57    574.00     23.96
105.67    586.00     24.21
105.77    556.00     23.58
105.87    530.00     23.02
105.97    570.68     23.89
106.07    520.00     22.80
106.17    584.73     24.18
106.27    576.00     24.00
106.37    604.00     24.58
106.47    602.00     24.54
106.57    631.45     25.13
106.67    587.77     24.24
106.77    576.12     24.00
106.87    664.00     25.77
106.97    571.60     23.91
107.07    632.82     25.16
107.17    656.00     25.61
107.27    628.00     25.06
107.37    618.00     24.86
107.47    698.00     26.42
107.57    725.00     26.93
107.67    738.00     27.17
107.77    752.74     27.44
107.87    694.00     26.34
107.97    710.00     26.65
108.07    719.00     26.81
108.17    692.58     26.32
108.27    729.72     27.01
108.37    688.00     26.23
108.47    752.00     27.42
108.57    728.67     26.99
108.67    692.00     26.31
108.77    684.00     26.15
108.87    672.72     25.94
108.97    751.45     27.41
109.07    705.00     26.55
109.17    717.00     26.78
109.27    701.75     26.49
109.37    725.57     26.94
109.47    758.59     27.54
109.57    699.00     26.44
109.67    671.86     25.92
109.77    677.07     26.02
109.87    758.00     27.53
109.97    653.00     25.55
110.07    686.00     26.19
110.17    675.00     25.98
110.27    700.00     26.46
110.37    717.33     26.78
110.47    665.00     25.79
110.57    678.00     26.04
110.67    663.00     25.75
110.77    667.00     25.83
110.87    639.00     25.28
110.97    576.00     24.00
111.07    605.00     24.60
111.17    624.32     24.99
111.27    570.00     23.87
111.37    523.19     22.87
111.47    588.00     24.25
111.57    534.00     23.11
111.67    556.81     23.60
111.77    611.00     24.72
111.87    601.00     24.52
111.97    556.00     23.58
112.07    556.00     23.58
112.17    557.00     23.60
112.27    520.41     22.81
112.37    534.36     23.12
112.47    580.29     24.09
112.57    567.00     23.81
112.67    583.00     24.15
112.77    561.00     23.69
112.87    592.54     24.34
112.97    597.00     24.43
113.07    532.00     23.07
113.17    615.25     24.80
113.27    566.00     23.79
113.37    574.00     23.96
113.47    598.00     24.45
113.57    617.00     24.84
113.67    581.00     24.10
113.77    574.00     23.96
113.87    640.81     25.31
113.97    606.00     24.62
114.07    638.10     25.26
114.17    684.42     26.16
114.27    722.79     26.88
114.37    674.93     25.98
114.47    713.00     26.70
114.57    799.00     28.27
114.67    812.00     28.50
114.77    916.00     30.27
114.87    878.51     29.64
114.97    999.00     31.61
115.07   1062.87     32.60
115.17   1190.00     34.50
115.27   1256.47     35.45
115.37   1509.00     38.85
115.47   1687.00     41.07
115.57   1822.20     42.69
115.67   2056.95     45.35
115.77   2336.05     48.33
115.87   2631.00     51.29
115.97   3011.00     54.87
116.07   3283.00     57.30
116.17   3516.00     59.30
116.27   3964.25     62.96
116.37   4263.80     65.30
116.47   4678.29     68.40
116.57   4884.00     69.89
116.67   5262.00     72.54
116.77   5688.01     75.42
116.87   6033.00     77.67
116.97   6456.00     80.35
117.07   6852.00     82.78
117.17   6812.14     82.54
117.27   7061.08     84.03
117.37   7221.00     84.98
117.47   7278.00     85.31
117.57   7043.11     83.92
117.67   7007.29     83.71
117.77   6811.00     82.53
117.87   6721.08     81.98
117.97   6138.00     78.35
118.07   5798.00     76.14
118.17   5678.06     75.35
118.27   5317.67     72.92
118.37   4757.00     68.97
118.47   4551.00     67.46
118.57   4215.08     64.92
118.67   3748.00     61.22
118.77   3541.00     59.51
118.87   3212.28     56.68
118.97   2795.00     52.87
119.07   2471.00     49.71
119.17   2381.78     48.80
119.27   1993.85     44.65
119.37   1849.00     43.00
119.47   1738.00     41.69
119.57   1468.60     38.32
119.67   1370.00     37.01
119.77   1304.00     36.11
119.87   1213.00     34.83
119.97   1191.00     34.51
120.07    972.00     31.18
120.17    952.33     30.86
120.27    866.00     29.43
120.37    863.00     29.38
120.47    886.00     29.77
120.57    779.00     27.91
120.67    816.00     28.57
120.77    724.00     26.91
120.87    687.07     26.21
120.97    678.21     26.04
121.07    691.00     26.29
121.17    655.00     25.59
121.27    626.00     25.02
121.37    670.18     25.89
121.47    703.33     26.52
121.57    591.00     24.31
121.67    620.00     24.90
121.77    663.00     25.75
121.87    604.18     24.58
121.97    601.00     24.52
122.07    653.70     25.57
122.17    602.80     24.55
122.27    598.00     24.45
122.37    624.00     24.98
122.47    660.62     25.70
122.57    606.38     24.62
122.67    622.00     24.94
122.77    618.64     24.87
122.87    676.00     26.00
122.97    599.00     24.47
123.07    688.00     26.23
123.17    676.00     26.00
123.27    667.00     25.83
123.37    668.00     25.85
123.47    620.87     24.92
123.57    686.00     26.19
123.67    673.00     25.94
123.77    680.00     26.08
123.87    690.00     26.27
123.97    674.00     25.96
124.07    654.00     25.57
124.17    685.00     26.17
124.27    618.00     24.86
124.37    631.00     25.12
124.47    664.54     25.78
124.57    674.76     25.98
124.67    631.00     25.12
124.77    633.85     25.18
124.87    629.35     25.09
124.97    647.00     25.44
