XYDATA



INTER 1.0 1.0 0 0
TEMP 1074.0
  9.97    563.00     23.73
 10.07    560.63     23.68
 10.17    637.00     25.24
 10.27    532.18     23.07
 10.37    595.00     24.39
 10.47    574.00     23.96
 10.57    579.00     24.06
 10.67    549.69     23.45
 10.77    558.00     23.62
 10.87    522.67     22.86
 10.97    573.00     23.94
 11.07    587.00     24.23
 11.17    525.37     22.92
 11.27    569.00     23.85
 11.37    575.00     23.98
 11.47    574.00     23.96
 11.57    611.08     24.72
 11.67    559.84     23.66
 11.77    638.00     25.26
 11.87    639.90     25.30
 11.97    644.00     25.38
 12.07    691.86     26.30
 12.17    692.28     26.31
 12.27    701.98     26.49
 12.37    656.82     25.63
 12.47    645.00     25.40
 12.57    608.71     24.67
 12.67    604.00     24.58
 12.77    588.00     24.25
 12.87    586.00     24.21
 12.97    622.96     24.96
 13.07    558.00     23.62
 13.17    612.52     24.75
 13.27    568.00     23.83
 13.37    522.53     22.86
 13.47    553.80     23.53
 13.57    570.27     23.88
 13.67    533.75     23.10
 13.77    538.00     23.19
 13.87    557.00     23.60
 13.97    532.73     23.08
 14.07    552.00     23.49
 14.17    575.00     23.98
 14.27    541.00     23.26
 14.37    563.00     23.73
 14.47    578.92     24.06
 14.57    530.00     23.02
 14.67    532.00     23.07
 14.77    554.00     23.54
 14.87    569.63     23.87
 14.97    548.00     23.41
 15.07    603.02     24.56
 15.17    577.77     24.04
 15.27    549.00     23.43
 15.37    563.65     23.74
 15.47    526.00     22.93
 15.57    605.63     24.61
 15.67    603.00     24.56
 15.77    547.00     23.39
 15.87    589.00     24.27
 15.97    566.96     23.81
 16.07    565.00     23.77
 16.17    609.31     24.68
 16.27    555.00     23.56
 16.37    548.00     23.41
 16.47    595.13     24.40
 16.57    567.45     23.82
 16.67    582.00     24.12
 16.77    586.00     24.21
 16.87    565.00     23.77
 16.97    582.00     24.12
 17.07    591.47     24.32
 17.17    597.69     24.45
 17.27    530.08     23.02
 17.37    523.50     22.88
 17.47    517.00     22.74
 17.57    583.46     24.15
 17.67    536.00     23.15
 17.77    585.49     24.20
 17.87    528.00     22.98
 17.97    539.00     23.22
 18.07    546.00     23.37
 18.17    549.00     23.43
 18.27    501.00     22.38
 18.37    523.00     22.87
 18.47    565.00     23.77
 18.57    549.00     23.43
 18.67    521.18     22.83
 18.77    565.00     23.77
 18.87    602.38     24.54
 18.97    603.26     24.56
 19.07    600.00     24.49
 19.17    590.35     24.30
 19.27    535.00     23.13
 19.37    522.90     22.87
 19.47    556.00     23.58
 19.57    573.00     23.94
 19.67    576.00     24.00
 19.77    532.00     23.07
 19.87    584.00     24.17
 19.97    534.00     23.11
 20.07    560.00     23.66
 20.17    564.71     23.76
 20.27    605.00     24.60
 20.37    552.00     23.49
 20.47    513.00     22.65
 20.57    576.00     24.00
 20.67    573.00     23.94
 20.77    528.00     22.98
 20.87    534.70     23.12
 20.97    567.00     23.81
 21.07    542.00     23.28
 21.17    577.37     24.03
 21.27    560.00     23.66
 21.37    593.00     24.35
 21.47    562.08     23.71
 21.57    537.00     23.17
 21.67    532.00     23.07
 21.77    569.08     23.86
 21.87    512.40     22.64
 21.97    555.00     23.56
 22.07    559.00     23.64
 22.17    590.86     24.31
 22.27    530.07     23.02
 22.37    534.03     23.11
 22.47    521.92     22.85
 22.57    571.56     23.91
 22.67    525.91     22.93
 22.77    592.80     24.35
 22.87    568.00     23.83
 22.97    589.23     24.27
 23.07    558.00     23.62
 23.17    541.18     23.26
 23.27    531.00     23.04
 23.37    536.06     23.15
 23.47    530.58     23.03
 23.57    573.46     23.95
 23.67    538.00     23.19
 23.77    575.00     23.98
 23.87    516.23     22.72
 23.97    601.00     24.52
 24.07    508.30     22.55
 24.17    601.00     24.52
 24.27    554.00     23.54
 24.37    581.74     24.12
 24.47    568.29     23.84
 24.57    645.00     25.40
 24.67    605.91     24.62
 24.77    654.00     25.57
 24.87    596.14     24.42
 24.97    652.00     25.53
 25.07    629.44     25.09
 25.17    520.78     22.82
 25.27    551.00     23.47
 25.37    581.42     24.11
 25.47    519.77     22.80
 25.57    586.00     24.21
 25.67    567.99     23.83
 25.77    534.00     23.11
 25.87    588.00     24.25
 25.97    561.00     23.69
 26.07    561.00     23.69
 26.17    545.00     23.35
 26.27    534.00     23.11
 26.37    505.48     22.48
 26.47    554.00     23.54
 26.57    571.00     23.90
 26.67    575.00     23.98
 26.77    522.00     22.85
 26.87    532.00     23.07
 26.97    555.00     23.56
 27.07    562.00     23.71
 27.17    494.00     22.23
 27.27    501.46     22.39
 27.37    540.00     23.24
 27.47    527.82     22.97
 27.57    574.98     23.98
 27.67    584.55     24.18
 27.77    576.00     24.00
 27.87    629.00     25.08
 27.97    618.00     24.86
 28.07    796.00     28.21
 28.17    942.00     30.69
 28.27    936.00     30.59
 28.37    872.89     29.54
 28.47    744.83     27.29
 28.57    747.00     27.33
 28.67    754.00     27.46
 28.77    713.00     26.70
 28.87    772.00     27.78
 28.97    821.00     28.65
 29.07    754.00     27.46
 29.17    671.00     25.90
 29.27    650.69     25.51
 29.37    605.95     24.62
 29.47    622.00     24.94
 29.57    608.00     24.66
 29.67    598.82     24.47
 29.77    552.02     23.50
 29.87    585.00     24.19
 29.97    587.05     24.23
 30.07    584.00     24.17
 30.17    540.00     23.24
 30.27    559.00     23.64
 30.37    571.00     23.90
 30.47    574.95     23.98
 30.57    534.52     23.12
 30.67    599.00     24.47
 30.77    588.00     24.25
 30.87    619.00     24.88
 30.97    603.00     24.56
 31.07    584.00     24.17
 31.17    583.00     24.15
 31.27    609.00     24.68
 31.37    569.00     23.85
 31.47    550.00     23.45
 31.57    514.00     22.67
 31.67    547.91     23.41
 31.77    546.72     23.38
 31.87    581.00     24.10
 31.97    575.22     23.98
 32.07    534.00     23.11
 32.17    573.65     23.95
 32.27    512.25     22.63
 32.37    550.00     23.45
 32.47    580.00     24.08
 32.57    521.88     22.84
 32.67    499.02     22.34
 32.77    491.32     22.17
 32.87    547.00     23.39
 32.97    501.71     22.40
 33.07    540.00     23.24
 33.17    578.32     24.05
 33.27    515.29     22.70
 33.37    586.00     24.21
 33.47    586.00     24.21
 33.57    574.84     23.98
 33.67    617.00     24.84
 33.77    707.52     26.60
 33.87    899.00     29.98
 33.97    984.10     31.37
 34.07   1061.00     32.57
 34.17   1009.00     31.76
 34.27    885.00     29.75
 34.37    808.67     28.44
 34.47    647.00     25.44
 34.57    604.00     24.58
 34.67    604.94     24.60
 34.77    503.00     22.43
 34.87    571.13     23.90
 34.97    502.00     22.41
 35.07    507.00     22.52
 35.17    492.58     22.19
 35.27    525.00     22.91
 35.37    543.00     23.30
 35.47    499.39     22.35
 35.57    554.10     23.54
 35.67    500.58     22.37
 35.77    551.77     23.49
 35.87    553.00     23.52
 35.97    520.00     22.80
 36.07    550.75     23.47
 36.17    529.00     23.00
 36.27    551.00     23.47
 36.37    491.00     22.16
 36.47    528.96     23.00
 36.57    517.00     22.74
 36.67    497.61     22.31
 36.77    502.00     22.41
 36.87    517.00     22.74
 36.97    510.00     22.58
 37.07    553.84     23.53
 37.17    517.00     22.74
 37.27    560.49     23.67
 37.37    565.85     23.79
 37.47    558.00     23.62
 37.57    505.00     22.47
 37.67    517.00     22.74
 37.77    510.00     22.58
 37.87    574.00     23.96
 37.97    543.47     23.31
 38.07    490.00     22.14
 38.17    513.00     22.65
 38.27    496.00     22.27
 38.37    507.00     22.52
 38.47    528.00     22.98
 38.57    546.50     23.38
 38.67    520.00     22.80
 38.77    528.00     22.98
 38.87    522.24     22.85
 38.97    509.00     22.56
 39.07    543.57     23.31
 39.17    525.00     22.91
 39.27    493.00     22.20
 39.37    527.00     22.96
 39.47    469.00     21.66
 39.57    483.00     21.98
 39.67    469.00     21.66
 39.77    486.00     22.05
 39.87    514.00     22.67
 39.97    525.00     22.91
 40.07    472.91     21.75
 40.17    523.00     22.87
 40.27    509.00     22.56
 40.37    524.07     22.89
 40.47    463.00     21.52
 40.57    529.08     23.00
 40.67    468.38     21.64
 40.77    546.00     23.37
 40.87    484.00     22.00
 40.97    497.00     22.29
 41.07    516.45     22.73
 41.17    459.00     21.42
 41.27    534.00     23.11
 41.37    495.15     22.25
 41.47    530.00     23.02
 41.57    487.00     22.07
 41.67    523.00     22.87
 41.77    569.00     23.85
 41.87    467.58     21.62
 41.97    500.00     22.36
 42.07    516.00     22.72
 42.17    504.00     22.45
 42.27    513.87     22.67
 42.37    588.19     24.25
 42.47    585.72     24.20
 42.57    657.00     25.63
 42.67    558.00     23.62
 42.77    603.99     24.58
 42.87    627.00     25.04
 42.97    564.00     23.75
 43.07    555.00     23.56
 43.17    565.88     23.79
 43.27    525.00     22.91
 43.37    524.00     22.89
 43.47    500.00     22.36
 43.57    504.00     22.45
 43.67    488.00     22.09
 43.77    528.00     22.98
 43.87    486.00     22.05
 43.97    550.00     23.45
 44.07    461.00     21.47
 44.17    505.00     22.47
 44.27    466.34     21.59
 44.37    512.00     22.63
 44.47    488.00     22.09
 44.57    481.68     21.95
 44.67    475.82     21.81
 44.77    513.00     22.65
 44.87    492.00     22.18
 44.97    524.58     22.90
 45.07    481.00     21.93
 45.17    466.78     21.61
 45.27    519.00     22.78
 45.37    504.00     22.45
 45.47    542.00     23.28
 45.57    520.69     22.82
 45.67    472.69     21.74
 45.77    521.05     22.83
 45.87    459.40     21.43
 45.97    507.00     22.52
 46.07    485.00     22.02
 46.17    498.00     22.32
 46.27    520.00     22.80
 46.37    511.00     22.61
 46.47    502.30     22.41
 46.57    523.00     22.87
 46.67    515.00     22.69
 46.77    476.00     21.82
 46.87    514.00     22.67
 46.97    480.94     21.93
 47.07    495.00     22.25
 47.17    486.00     22.05
 47.27    549.00     23.43
 47.37    486.00     22.05
 47.47    509.54     22.57
 47.57    556.00     23.58
 47.67    562.00     23.71
 47.77    632.75     25.15
 47.87    645.00     25.40
 47.97    546.36     23.37
 48.07    584.85     24.18
 48.17    532.00     23.07
 48.27    557.00     23.60
 48.37    550.00     23.45
 48.47    536.00     23.15
 48.57    552.70     23.51
 48.67    552.40     23.50
 48.77    553.34     23.52
 48.87    541.81     23.28
 48.97    586.00     24.21
 49.07    615.33     24.81
 49.17    545.00     23.35
 49.27    590.00     24.29
 49.37    666.00     25.81
 49.47    717.45     26.79
 49.57    801.00     28.30
 49.67    874.00     29.56
 49.77   1070.87     32.72
 49.87   1447.00     38.04
 49.97   1892.00     43.50
 50.07   2314.00     48.10
 50.17   2577.83     50.77
 50.27   2526.71     50.27
 50.37   2360.00     48.58
 50.47   1856.68     43.09
 50.57   1368.00     36.99
 50.67   1183.42     34.40
 50.77    910.08     30.17
 50.87    749.00     27.37
 50.97    671.00     25.90
 51.07    631.00     25.12
 51.17    615.93     24.82
 51.27    611.85     24.74
 51.37    563.03     23.73
 51.47    521.74     22.84
 51.57    575.00     23.98
 51.67    578.00     24.04
 51.77    534.00     23.11
 51.87    512.89     22.65
 51.97    542.77     23.30
 52.07    567.54     23.82
 52.17    524.56     22.90
 52.27    548.00     23.41
 52.37    539.59     23.23
 52.47    568.00     23.83
 52.57    545.00     23.35
 52.67    600.00     24.49
 52.77    572.65     23.93
 52.87    578.60     24.05
 52.97    727.00     26.96
 53.07    794.00     28.18
 53.17    948.00     30.79
 53.27   1019.02     31.92
 53.37   1114.00     33.38
 53.47   1178.00     34.32
 53.57   1131.00     33.63
 53.67   1073.00     32.76
 53.77   1002.35     31.66
 53.87    834.00     28.88
 53.97    795.00     28.20
 54.07    659.00     25.67
 54.17    644.00     25.38
 54.27    556.00     23.58
 54.37    572.45     23.93
 54.47    602.00     24.54
 54.57    553.00     23.52
 54.67    574.00     23.96
 54.77    586.70     24.22
 54.87    547.00     23.39
 54.97    528.00     22.98
 55.07    532.38     23.07
 55.17    571.00     23.90
 55.27    573.84     23.95
 55.37    549.00     23.43
 55.47    543.78     23.32
 55.57    594.00     24.37
 55.67    542.00     23.28
 55.77    600.00     24.49
 55.87    614.15     24.78
 55.97    641.00     25.32
 56.07    649.00     25.48
 56.17    745.16     27.30
 56.27    913.59     30.23
 56.37   1097.00     33.12
 56.47   1406.00     37.50
 56.57   1702.00     41.26
 56.67   2143.00     46.29
 56.77   2495.00     49.95
 56.87   2654.00     51.52
 56.97   2491.00     49.91
 57.07   2297.20     47.93
 57.17   2048.00     45.25
 57.27   1587.91     39.85
 57.37   1331.34     36.49
 57.47   1028.00     32.06
 57.57    905.00     30.08
 57.67    796.00     28.21
 57.77    776.00     27.86
 57.87    716.00     26.76
 57.97    673.48     25.95
 58.07    682.00     26.12
 58.17    726.51     26.95
 58.27    805.00     28.37
 58.37    867.42     29.45
 58.47    972.00     31.18
 58.57   1140.00     33.76
 58.67   1263.61     35.55
 58.77   1423.00     37.72
 58.87   1579.00     39.74
 58.97   1582.00     39.77
 59.07   1547.81     39.34
 59.17   1570.65     39.63
 59.27   1400.00     37.42
 59.37   1344.82     36.67
 59.47   1272.59     35.67
 59.57   1186.80     34.45
 59.67   1097.51     33.13
 59.77   1087.58     32.98
 59.87   1202.94     34.68
 59.97   1313.00     36.24
 60.07   1397.00     37.38
 60.17   1545.00     39.31
 60.27   1558.00     39.47
 60.37   1559.00     39.48
 60.47   1430.86     37.83
 60.57   1182.56     34.39
 60.67   1124.00     33.53
 60.77    861.22     29.35
 60.87    767.98     27.71
 60.97    710.00     26.65
 61.07    700.00     26.46
 61.17    629.00     25.08
 61.27    620.00     24.90
 61.37    669.00     25.87
 61.47    659.17     25.67
 61.57    790.44     28.11
 61.67    893.00     29.88
 61.77    910.00     30.17
 61.87   1169.50     34.20
 61.97   1307.45     36.16
 62.07   1380.37     37.15
 62.17   1489.95     38.60
 62.27   1366.00     36.96
 62.37   1352.66     36.78
 62.47   1229.42     35.06
 62.57   1039.00     32.23
 62.67    910.24     30.17
 62.77    735.00     27.11
 62.87    743.07     27.26
 62.97    608.00     24.66
 63.07    604.00     24.58
 63.17    570.00     23.87
 63.27    603.33     24.56
 63.37    609.47     24.69
 63.47    576.00     24.00
 63.57    598.00     24.45
 63.67    579.00     24.06
 63.77    632.00     25.14
 63.87    646.45     25.43
 63.97    657.00     25.63
 64.07    755.00     27.48
 64.17    819.00     28.62
 64.27    900.00     30.00
 64.37    917.00     30.28
 64.47    982.00     31.34
 64.57   1020.00     31.94
 64.67   1016.00     31.87
 64.77    992.00     31.50
 64.87    923.62     30.39
 64.97    961.19     31.00
 65.07    815.00     28.55
 65.17    796.00     28.21
 65.27    765.27     27.66
 65.37    705.00     26.55
 65.47    593.00     24.35
 65.57    630.00     25.10
 65.67    570.00     23.87
 65.77    591.09     24.31
 65.87    578.00     24.04
 65.97    548.00     23.41
 66.07    587.63     24.24
 66.17    544.00     23.32
 66.27    600.18     24.50
 66.37    574.00     23.96
 66.47    551.00     23.47
 66.57    529.00     23.00
 66.67    526.00     22.93
 66.77    562.68     23.72
 66.87    576.00     24.00
 66.97    573.00     23.94
 67.07    626.00     25.02
 67.17    683.49     26.14
 67.27    817.00     28.58
 67.37    881.00     29.68
 67.47   1106.00     33.26
 67.57   1246.00     35.30
 67.67   1562.95     39.53
 67.77   1863.35     43.17
 67.87   2072.00     45.52
 67.97   2253.00     47.47
 68.07   2363.00     48.61
 68.17   2410.00     49.09
 68.27   2218.00     47.10
 68.37   2104.00     45.87
 68.47   1809.00     42.53
 68.57   1565.41     39.57
 68.67   1295.00     35.99
 68.77   1033.00     32.14
 68.87    925.99     30.43
 68.97    768.96     27.73
 69.07    729.00     27.00
 69.17    651.00     25.51
 69.27    587.65     24.24
 69.37    614.73     24.79
 69.47    608.74     24.67
 69.57    641.00     25.32
 69.67    555.00     23.56
 69.77    602.31     24.54
 69.87    591.00     24.31
 69.97    560.00     23.66
 70.07    572.00     23.92
 70.17    586.00     24.21
 70.27    547.00     23.39
 70.37    554.00     23.54
 70.47    571.05     23.90
 70.57    606.00     24.62
 70.67    584.19     24.17
 70.77    584.46     24.18
 70.87    616.66     24.83
 70.97    623.00     24.96
 71.07    582.00     24.12
 71.17    700.00     26.46
 71.27    789.00     28.09
 71.37    951.00     30.84
 71.47   1091.00     33.03
 71.57   1231.00     35.09
 71.67   1450.00     38.08
 71.77   1661.66     40.76
 71.87   1764.37     42.00
 71.97   1959.64     44.27
 72.07   1894.90     43.53
 72.17   1898.00     43.57
 72.27   1732.08     41.62
 72.37   1685.00     41.05
 72.47   1427.74     37.79
 72.57   1340.72     36.62
 72.67   1194.00     34.55
 72.77   1111.00     33.33
 72.87   1023.53     31.99
 72.97    864.48     29.40
 73.07    813.26     28.52
 73.17    860.48     29.33
 73.27    704.00     26.53
 73.37    684.09     26.16
 73.47    677.99     26.04
 73.57    609.00     24.68
 73.67    612.00     24.74
 73.77    611.99     24.74
 73.87    590.00     24.29
 73.97    603.19     24.56
 74.07    572.00     23.92
 74.17    614.00     24.78
 74.27    601.00     24.52
 74.37    635.00     25.20
 74.47    636.00     25.22
 74.57    636.00     25.22
 74.67    555.18     23.56
 74.77    604.67     24.59
 74.87    614.00     24.78
 74.97    600.00     24.49
 75.07    607.00     24.64
 75.17    611.00     24.72
 75.27    606.00     24.62
 75.37    605.00     24.60
 75.47    542.00     23.28
 75.57    553.00     23.52
 75.67    575.00     23.98
 75.77    542.00     23.28
 75.87    576.00     24.00
 75.97    573.51     23.95
 76.07    630.00     25.10
 76.17    669.00     25.87
 76.27    694.00     26.34
 76.37    718.93     26.81
 76.47    713.00     26.70
 76.57    663.24     25.75
 76.67    755.92     27.49
 76.77    728.59     26.99
 76.87    638.00     25.26
 76.97    603.00     24.56
 77.07    606.00     24.62
 77.17    588.00     24.25
 77.27    559.49     23.65
 77.37    542.00     23.28
 77.47    562.63     23.72
 77.57    559.00     23.64
 77.67    548.96     23.43
 77.77    497.00     22.29
 77.87    525.00     22.91
 77.97    521.00     22.83
 78.07    570.77     23.89
 78.17    529.00     23.00
 78.27    555.95     23.58
 78.37    532.88     23.08
 78.47    539.00     23.22
 78.57    520.00     22.80
 78.67    487.00     22.07
 78.77    529.09     23.00
 78.87    538.00     23.19
 78.97    544.00     23.32
 79.07    552.00     23.49
 79.17    482.00     21.95
 79.27    483.00     21.98
 79.37    513.00     22.65
 79.47    505.00     22.47
 79.57    556.00     23.58
 79.67    555.00     23.56
 79.77    549.00     23.43
 79.87    557.00     23.60
 79.97    586.96     24.23
 80.07    533.00     23.09
 80.17    526.00     22.93
 80.27    601.48     24.53
 80.37    597.00     24.43
 80.47    626.00     25.02
 80.57    619.00     24.88
 80.67    599.00     24.47
 80.77    626.00     25.02
 80.87    660.15     25.69
 80.97    712.78     26.70
 81.07    702.08     26.50
 81.17    748.00     27.35
 81.27    718.00     26.80
 81.37    798.74     28.26
 81.47    777.16     27.88
 81.57    744.00     27.28
 81.67    739.00     27.18
 81.77    760.40     27.58
 81.87    733.00     27.07
 81.97    662.83     25.75
 82.07    676.00     26.00
 82.17    628.17     25.06
 82.27    628.00     25.06
 82.37    681.00     26.10
 82.47    613.00     24.76
 82.57    592.99     24.35
 82.67    534.00     23.11
 82.77    562.19     23.71
 82.87    534.00     23.11
 82.97    573.00     23.94
 83.07    550.00     23.45
 83.17    533.00     23.09
 83.27    571.00     23.90
 83.37    531.43     23.05
 83.47    531.30     23.05
 83.57    547.10     23.39
 83.67    596.00     24.41
 83.77    565.00     23.77
 83.87    577.68     24.04
 83.97    551.00     23.47
 84.07    583.00     24.15
 84.17    542.00     23.28
 84.27    547.95     23.41
 84.37    571.00     23.90
 84.47    570.00     23.87
 84.57    549.00     23.43
 84.67    556.00     23.58
 84.77    514.88     22.69
 84.87    536.00     23.15
 84.97    512.00     22.63
 85.07    510.00     22.58
 85.17    530.24     23.03
 85.27    540.30     23.24
 85.37    541.00     23.26
 85.47    511.00     22.61
 85.57    468.00     21.63
 85.67    493.34     22.21
 85.77    554.00     23.54
 85.87    508.00     22.54
 85.97    538.07     23.20
 86.07    529.01     23.00
 86.17    537.00     23.17
 86.27    558.00     23.62
 86.37    508.00     22.54
 86.47    587.00     24.23
 86.57    531.00     23.04
 86.67    555.00     23.56
 86.77    560.00     23.66
 86.87    575.00     23.98
 86.97    585.00     24.19
 87.07    619.00     24.88
 87.17    648.00     25.46
 87.27    659.00     25.67
 87.37    655.53     25.60
 87.47    683.08     26.14
 87.57    662.13     25.73
 87.67    658.00     25.65
 87.77    691.00     26.29
 87.87    562.52     23.72
 87.97    582.00     24.12
 88.07    594.27     24.38
 88.17    597.00     24.43
 88.27    612.00     24.74
 88.37    523.36     22.88
 88.47    606.00     24.62
 88.57    595.00     24.39
 88.67    623.00     24.96
 88.77    611.68     24.73
 88.87    618.39     24.87
 88.97    594.00     24.37
 89.07    664.00     25.77
 89.17    618.00     24.86
 89.27    603.00     24.56
 89.37    600.71     24.51
 89.47    597.56     24.45
 89.57    584.84     24.18
 89.67    598.00     24.45
 89.77    557.66     23.61
 89.87    547.00     23.39
 89.97    574.00     23.96
 90.07    541.00     23.26
 90.17    531.77     23.06
 90.27    567.62     23.82
 90.37    556.00     23.58
 90.47    491.00     22.16
 90.57    518.02     22.76
 90.67    525.00     22.91
 90.77    544.15     23.33
 90.87    531.00     23.04
 90.97    497.00     22.29
 91.07    508.00     22.54
 91.17    536.91     23.17
 91.27    555.00     23.56
 91.37    541.00     23.26
 91.47    551.73     23.49
 91.57    555.00     23.56
 91.67    545.21     23.35
 91.77    509.00     22.56
 91.87    539.00     23.22
 91.97    509.09     22.56
 92.07    562.00     23.71
 92.17    534.00     23.11
 92.27    561.00     23.69
 92.37    628.67     25.07
 92.47    654.48     25.58
 92.57    595.00     24.39
 92.67    707.00     26.59
 92.77    691.32     26.29
 92.87    693.00     26.32
 92.97    720.00     26.83
 93.07    788.00     28.07
 93.17    776.00     27.86
 93.27    777.12     27.88
 93.37    790.00     28.11
 93.47    859.54     29.32
 93.57    864.00     29.39
 93.67    870.00     29.50
 93.77    792.19     28.15
 93.87    864.00     29.39
 93.97    796.16     28.22
 94.07    809.14     28.45
 94.17    854.00     29.22
 94.27    925.00     30.41
 94.37    878.00     29.63
 94.47    884.00     29.73
 94.57    926.68     30.44
 94.67    930.87     30.51
 94.77    951.00     30.84
 94.87    901.00     30.02
 94.97    893.00     29.88
 95.07    868.00     29.46
 95.17    888.00     29.80
 95.27    762.62     27.62
 95.37    851.00     29.17
 95.47    815.32     28.55
 95.57    733.00     27.07
 95.67    785.00     28.02
 95.77    720.00     26.83
 95.87    648.91     25.47
 95.97    706.00     26.57
 96.07    667.18     25.83
 96.17    676.86     26.02
 96.27    725.00     26.93
 96.37    731.00     27.04
 96.47    751.04     27.41
 96.57    832.00     28.84
 96.67    935.02     30.58
 96.77    952.00     30.85
 96.87   1012.00     31.81
 96.97   1117.81     33.43
 97.07   1214.52     34.85
 97.17   1311.00     36.21
 97.27   1394.00     37.34
 97.37   1438.00     37.92
 97.47   1486.00     38.55
 97.57   1425.00     37.75
 97.67   1428.00     37.79
 97.77   1453.00     38.12
 97.87   1326.00     36.41
 97.97   1263.00     35.54
 98.07   1242.00     35.24
 98.17   1138.00     33.73
 98.27   1063.00     32.60
 98.37   1034.77     32.17
 98.47    890.96     29.85
 98.57    891.00     29.85
 98.67    862.00     29.36
 98.77    876.94     29.61
 98.87    764.00     27.64
 98.97    798.00     28.25
 99.07    767.00     27.69
 99.17    811.00     28.48
 99.27    847.00     29.10
 99.37    979.08     31.29
 99.47   1007.95     31.75
 99.57   1129.52     33.61
 99.67   1214.47     34.85
 99.77   1286.00     35.86
 99.87   1410.00     37.55
 99.97   1506.00     38.81
100.07   1691.00     41.12
100.17   1685.02     41.05
100.27   1926.22     43.89
100.37   1958.00     44.25
100.47   2157.00     46.44
100.57   2018.08     44.92
100.67   2051.91     45.30
100.77   2021.00     44.96
100.87   2078.00     45.59
100.97   2124.00     46.09
101.07   2019.00     44.93
101.17   1933.00     43.97
101.27   1835.92     42.85
101.37   1657.00     40.71
101.47   1568.00     39.60
101.57   1545.85     39.32
101.67   1484.62     38.53
101.77   1378.00     37.12
101.87   1292.03     35.94
101.97   1182.18     34.38
102.07   1143.73     33.82
102.17   1113.00     33.36
102.27   1087.00     32.97
102.37   1111.83     33.34
102.47   1160.65     34.07
102.57   1063.00     32.60
102.67   1074.47     32.78
102.77   1020.00     31.94
102.87    976.14     31.24
102.97    941.00     30.68
103.07    960.64     30.99
103.17    897.00     29.95
103.27    828.00     28.77
103.37    832.97     28.86
103.47    741.00     27.22
103.57    797.00     28.23
103.67    681.00     26.10
103.77    692.00     26.31
103.87    585.19     24.19
103.97    640.69     25.31
104.07    647.00     25.44
104.17    608.00     24.66
104.27    573.00     23.94
104.37    565.00     23.77
104.47    528.00     22.98
104.57    533.00     23.09
104.67    537.00     23.17
104.77    584.00     24.17
104.87    569.46     23.86
104.97    547.67     23.40
105.07    510.00     22.58
105.17    543.00     23.30
105.27    532.00     23.07
105.37    559.95     23.66
105.47    556.00     23.58
105.57    563.00     23.73
105.67    542.00     23.28
105.77    497.00     22.29
105.87    573.00     23.94
105.97    566.00     23.79
106.07    570.00     23.87
106.17    624.13     24.98
106.27    631.00     25.12
106.37    572.00     23.92
106.47    601.00     24.52
106.57    630.00     25.10
106.67    674.94     25.98
106.77    614.00     24.78
106.87    653.00     25.55
106.97    648.00     25.46
107.07    680.00     26.08
107.17    651.84     25.53
107.27    675.00     25.98
107.37    681.00     26.10
107.47    752.26     27.43
107.57    680.00     26.08
107.67    661.00     25.71
107.77    647.00     25.44
107.87    686.00     26.19
107.97    697.00     26.40
108.07    645.00     25.40
108.17    724.92     26.92
108.27    667.00     25.83
108.37    677.00     26.02
108.47    736.04     27.13
108.57    669.75     25.88
108.67    663.00     25.75
108.77    719.00     26.81
108.87    648.00     25.46
108.97    691.74     26.30
109.07    715.00     26.74
109.17    660.00     25.69
109.27    669.00     25.87
109.37    652.00     25.53
109.47    678.00     26.04
109.57    616.00     24.82
109.67    613.00     24.76
109.77    645.90     25.41
109.87    612.00     24.74
109.97    581.00     24.10
110.07    553.00     23.52
110.17    558.00     23.62
110.27    579.00     24.06
110.37    557.00     23.60
110.47    554.00     23.54
110.57    579.00     24.06
110.67    513.62     22.66
110.77    535.27     23.14
110.87    575.00     23.98
110.97    549.00     23.43
111.07    561.86     23.70
111.17    542.00     23.28
111.27    522.57     22.86
111.37    574.00     23.96
111.47    549.52     23.44
111.57    563.03     23.73
111.67    529.00     23.00
111.77    508.68     22.55
111.87    550.00     23.45
111.97    587.82     24.24
112.07    577.00     24.02
112.17    580.00     24.08
112.27    626.05     25.02
112.37    541.24     23.26
112.47    621.00     24.92
112.57    595.00     24.39
112.67    585.24     24.19
112.77    669.04     25.87
112.87    600.84     24.51
112.97    680.00     26.08
113.07    689.00     26.25
113.17    705.55     26.56
113.27    749.59     27.38
113.37    714.00     26.72
113.47    784.22     28.00
113.57    838.00     28.95
113.67    890.00     29.83
113.77    890.01     29.83
113.87    921.00     30.35
113.97    957.00     30.94
114.07   1056.96     32.51
114.17   1167.00     34.16
114.27   1150.00     33.91
114.37   1246.00     35.30
114.47   1296.00     36.00
114.57   1379.78     37.15
114.67   1555.82     39.44
114.77   1740.00     41.71
114.87   1928.00     43.91
114.97   2105.00     45.88
115.07   2307.00     48.03
115.17   2509.63     50.10
115.27   2877.56     53.64
115.37   3146.00     56.09
115.47   3478.01     58.97
115.57   3626.00     60.22
115.67   4095.27     63.99
115.77   4497.00     67.06
115.87   4776.00     69.11
115.97   5182.00     71.99
116.07   5587.00     74.75
116.17   6061.00     77.85
116.27   6311.00     79.44
116.37   6650.00     81.55
116.47   6754.00     82.18
116.57   6887.00     82.99
116.67   6913.20     83.15
116.77   7089.85     84.20
116.87   6968.00     83.47
116.97   6698.00     81.84
117.07   6492.00     80.57
117.17   6143.56     78.38
117.27   5728.00     75.68
117.37   5281.00     72.67
117.47   4972.00     70.51
117.57   4716.00     68.67
117.67   4308.72     65.64
117.77   4093.00     63.98
117.87   3706.00     60.88
117.97   3327.00     57.68
118.07   2923.00     54.06
118.17   2600.01     50.99
118.27   2315.00     48.11
118.37   1938.00     44.02
118.47   1772.00     42.10
118.57   1586.52     39.83
118.67   1413.00     37.59
118.77   1327.00     36.43
118.87   1184.45     34.42
118.97    957.00     30.94
119.07    947.00     30.77
119.17    863.00     29.38
119.27    776.70     27.87
119.37    797.00     28.23
119.47    661.00     25.71
119.57    739.23     27.19
119.67    683.00     26.13
119.77    662.00     25.73
119.87    620.00     24.90
119.97    589.00     24.27
120.07    600.00     24.49
120.17    614.15     24.78
120.27    609.18     24.68
120.37    557.00     23.60
120.47    557.00     23.60
120.57    590.00     24.29
120.67    553.00     23.52
120.77    557.62     23.61
120.87    598.78     24.47
120.97    567.00     23.81
121.07    561.34     23.69
121.17    562.00     23.71
121.27    618.00     24.86
121.37    579.00     24.06
121.47    581.00     24.10
121.57    582.00     24.12
121.67    572.91     23.94
121.77    540.62     23.25
121.87    566.35     23.80
121.97    558.66     23.64
122.07    582.09     24.13
122.17    608.01     24.66
122.27    549.00     23.43
122.37    623.00     24.96
122.47    555.00     23.56
122.57    606.57     24.63
122.67    647.00     25.44
122.77    631.00     25.12
122.87    595.45     24.40
122.97    607.85     24.65
123.07    656.00     25.61
123.17    654.00     25.57
123.27    641.00     25.32
123.37    658.85     25.67
123.47    597.00     24.43
123.57    647.53     25.45
123.67    619.04     24.88
123.77    656.23     25.62
123.87    577.79     24.04
123.97    609.92     24.70
124.07    608.00     24.66
124.17    627.41     25.05
124.27    617.25     24.84
124.37    630.00     25.10
124.47    634.64     25.19
124.57    549.00     23.43
124.67    617.13     24.84
124.77    581.00     24.10
124.87    608.33     24.66
124.97    575.81     24.00
