XYDATA



INTER 1.0 1.0 0 0
TEMP 1074.0
  9.97    666.00     25.81
 10.07    600.00     24.49
 10.17    593.00     24.35
 10.27    551.38     23.48
 10.37    585.00     24.19
 10.47    572.00     23.92
 10.57    562.14     23.71
 10.67    625.00     25.00
 10.77    586.00     24.21
 10.87    583.00     24.15
 10.97    586.00     24.21
 11.07    601.62     24.53
 11.17    562.28     23.71
 11.27    576.59     24.01
 11.37    597.00     24.43
 11.47    580.00     24.08
 11.57    632.00     25.14
 11.67    643.00     25.36
 11.77    634.00     25.18
 11.87    654.00     25.57
 11.97    669.01     25.87
 12.07    664.00     25.77
 12.17    665.90     25.81
 12.27    684.00     26.15
 12.37    679.00     26.06
 12.47    655.00     25.59
 12.57    632.15     25.14
 12.67    556.00     23.58
 12.77    575.79     24.00
 12.87    603.19     24.56
 12.97    558.09     23.62
 13.07    548.00     23.41
 13.17    613.20     24.76
 13.27    557.00     23.60
 13.37    559.00     23.64
 13.47    575.92     24.00
 13.57    549.06     23.43
 13.67    595.00     24.39
 13.77    543.39     23.31
 13.87    558.40     23.63
 13.97    556.00     23.58
 14.07    542.16     23.28
 14.17    574.00     23.96
 14.27    532.00     23.07
 14.37    553.00     23.52
 14.47    616.00     24.82
 14.57    556.43     23.59
 14.67    606.00     24.62
 14.77    519.00     22.78
 14.87    530.50     23.03
 14.97    539.00     23.22
 15.07    545.90     23.36
 15.17    619.00     24.88
 15.27    504.00     22.45
 15.37    553.00     23.52
 15.47    586.00     24.21
 15.57    521.00     22.83
 15.67    548.00     23.41
 15.77    566.00     23.79
 15.87    612.64     24.75
 15.97    585.00     24.19
 16.07    539.00     23.22
 16.17    612.00     24.74
 16.27    549.00     23.43
 16.37    525.00     22.91
 16.47    621.00     24.92
 16.57    610.72     24.71
 16.67    550.00     23.45
 16.77    560.00     23.66
 16.87    541.46     23.27
 16.97    593.00     24.35
 17.07    540.06     23.24
 17.17    567.00     23.81
 17.27    533.00     23.09
 17.37    551.00     23.47
 17.47    526.02     22.94
 17.57    545.00     23.35
 17.67    555.00     23.56
 17.77    507.00     22.52
 17.87    544.00     23.32
 17.97    542.00     23.28
 18.07    580.00     24.08
 18.17    565.00     23.77
 18.27    595.00     24.39
 18.37    592.71     24.35
 18.47    554.00     23.54
 18.57    599.00     24.47
 18.67    591.07     24.31
 18.77    575.92     24.00
 18.87    546.04     23.37
 18.97    564.00     23.75
 19.07    572.34     23.92
 19.17    555.00     23.56
 19.27    528.82     23.00
 19.37    523.66     22.88
 19.47    530.63     23.04
 19.57    596.00     24.41
 19.67    593.79     24.37
 19.77    593.00     24.35
 19.87    551.71     23.49
 19.97    549.00     23.43
 20.07    556.00     23.58
 20.17    553.00     23.52
 20.27    522.71     22.86
 20.37    527.81     22.97
 20.47    584.02     24.17
 20.57    598.96     24.47
 20.67    557.00     23.60
 20.77    543.00     23.30
 20.87    595.46     24.40
 20.97    545.00     23.35
 21.07    494.00     22.23
 21.17    550.53     23.46
 21.27    577.00     24.02
 21.37    536.00     23.15
 21.47    527.00     22.96
 21.57    562.00     23.71
 21.67    563.73     23.74
 21.77    582.82     24.14
 21.87    567.51     23.82
 21.97    552.00     23.49
 22.07    513.41     22.66
 22.17    530.00     23.02
 22.27    582.24     24.13
 22.37    589.00     24.27
 22.47    527.00     22.96
 22.57    562.00     23.71
 22.67    544.00     23.32
 22.77    544.00     23.32
 22.87    571.00     23.90
 22.97    583.88     24.16
 23.07    573.14     23.94
 23.17    569.00     23.85
 23.27    560.00     23.66
 23.37    532.99     23.09
 23.47    554.08     23.54
 23.57    542.00     23.28
 23.67    524.45     22.90
 23.77    544.34     23.33
 23.87    584.55     24.18
 23.97    578.94     24.06
 24.07    587.02     24.23
 24.17    546.00     23.37
 24.27    557.71     23.62
 24.37    605.36     24.60
 24.47    619.11     24.88
 24.57    609.00     24.68
 24.67    601.56     24.53
 24.77    675.00     25.98
 24.87    587.43     24.24
 24.97    612.39     24.75
 25.07    621.91     24.94
 25.17    568.00     23.83
 25.27    589.97     24.29
 25.37    558.43     23.63
 25.47    580.00     24.08
 25.57    554.00     23.54
 25.67    561.00     23.69
 25.77    557.00     23.60
 25.87    574.00     23.96
 25.97    539.00     23.22
 26.07    576.48     24.01
 26.17    575.00     23.98
 26.27    510.50     22.59
 26.37    541.00     23.26
 26.47    534.26     23.11
 26.57    518.00     22.76
 26.67    552.00     23.49
 26.77    528.87     23.00
 26.87    537.00     23.17
 26.97    564.70     23.76
 27.07    538.97     23.22
 27.17    531.00     23.04
 27.27    549.00     23.43
 27.37    567.99     23.83
 27.47    515.23     22.70
 27.57    583.79     24.16
 27.67    593.00     24.35
 27.77    537.27     23.18
 27.87    621.43     24.93
 27.97    634.02     25.18
 28.07    766.11     27.68
 28.17    867.92     29.46
 28.27    910.00     30.17
 28.37    828.00     28.77
 28.47    805.49     28.38
 28.57    722.75     26.88
 28.67    661.18     25.71
 28.77    721.15     26.85
 28.87    776.44     27.86
 28.97    825.00     28.72
 29.07    808.01     28.43
 29.17    676.00     26.00
 29.27    615.52     24.81
 29.37    620.00     24.90
 29.47    654.00     25.57
 29.57    564.70     23.76
 29.67    549.08     23.43
 29.77    542.56     23.29
 29.87    603.00     24.56
 29.97    582.00     24.12
 30.07    564.00     23.75
 30.17    562.00     23.71
 30.27    522.00     22.85
 30.37    513.48     22.66
 30.47    520.99     22.83
 30.57    531.03     23.04
 30.67    579.00     24.06
 30.77    598.00     24.45
 30.87    612.00     24.74
 30.97    598.32     24.46
 31.07    610.00     24.70
 31.17    572.43     23.93
 31.27    533.55     23.10
 31.37    566.00     23.79
 31.47    531.00     23.04
 31.57    528.00     22.98
 31.67    514.00     22.67
 31.77    516.45     22.73
 31.87    540.74     23.25
 31.97    523.50     22.88
 32.07    531.00     23.04
 32.17    537.93     23.19
 32.27    528.00     22.98
 32.37    519.62     22.80
 32.47    545.33     23.35
 32.57    509.00     22.56
 32.67    559.00     23.64
 32.77    537.00     23.17
 32.87    495.92     22.27
 32.97    528.04     22.98
 33.07    542.00     23.28
 33.17    519.00     22.78
 33.27    555.00     23.56
 33.37    570.44     23.88
 33.47    581.00     24.10
 33.57    589.00     24.27
 33.67    634.00     25.18
 33.77    781.00     27.95
 33.87    910.00     30.17
 33.97   1016.00     31.87
 34.07   1088.85     33.00
 34.17    973.11     31.19
 34.27    920.49     30.34
 34.37    749.00     27.37
 34.47    631.00     25.12
 34.57    609.49     24.69
 34.67    561.00     23.69
 34.77    564.00     23.75
 34.87    561.00     23.69
 34.97    514.00     22.67
 35.07    536.74     23.17
 35.17    511.00     22.61
 35.27    491.91     22.18
 35.37    547.00     23.39
 35.47    528.81     23.00
 35.57    528.00     22.98
 35.67    493.00     22.20
 35.77    537.28     23.18
 35.87    523.00     22.87
 35.97    478.29     21.87
 36.07    496.00     22.27
 36.17    489.00     22.11
 36.27    530.00     23.02
 36.37    507.00     22.52
 36.47    538.00     23.19
 36.57    502.24     22.41
 36.67    468.00     21.63
 36.77    549.99     23.45
 36.87    492.00     22.18
 36.97    526.13     22.94
 37.07    508.00     22.54
 37.17    489.15     22.12
 37.27    530.06     23.02
 37.37    497.42     22.30
 37.47    489.00     22.11
 37.57    485.00     22.02
 37.67    492.00     22.18
 37.77    502.00     22.41
 37.87    530.00     23.02
 37.97    525.00     22.91
 38.07    526.00     22.93
 38.17    526.00     22.93
 38.27    528.00     22.98
 38.37    493.00     22.20
 38.47    482.67     21.97
 38.57    480.16     21.91
 38.67    472.05     21.73
 38.77    517.00     22.74
 38.87    490.00     22.14
 38.97    482.15     21.96
 39.07    489.00     22.11
 39.17    456.00     21.35
 39.27    501.00     22.38
 39.37    525.00     22.91
 39.47    531.00     23.04
 39.57    524.00     22.89
 39.67    478.22     21.87
 39.77    505.65     22.49
 39.87    498.00     22.32
 39.97    508.00     22.54
 40.07    467.00     21.61
 40.17    493.00     22.20
 40.27    464.00     21.54
 40.37    515.00     22.69
 40.47    487.00     22.07
 40.57    508.00     22.54
 40.67    543.00     23.30
 40.77    515.80     22.71
 40.87    478.00     21.86
 40.97    475.19     21.80
 41.07    523.00     22.87
 41.17    456.00     21.35
 41.27    529.00     23.00
 41.37    523.00     22.87
 41.47    499.00     22.34
 41.57    474.88     21.79
 41.67    551.00     23.47
 41.77    508.24     22.54
 41.87    468.00     21.63
 41.97    461.00     21.47
 42.07    541.00     23.26
 42.17    508.59     22.55
 42.27    529.00     23.00
 42.37    543.00     23.30
 42.47    545.60     23.36
 42.57    599.00     24.47
 42.67    620.00     24.90
 42.77    622.00     24.94
 42.87    593.00     24.35
 42.97    612.93     24.76
 43.07    548.60     23.42
 43.17    543.00     23.30
 43.27    507.00     22.52
 43.37    510.21     22.59
 43.47    503.00     22.43
 43.57    476.56     21.83
 43.67    503.00     22.43
 43.77    526.00     22.93
 43.87    491.00     22.16
 43.97    502.00     22.41
 44.07    525.00     22.91
 44.17    491.68     22.17
 44.27    465.75     21.58
 44.37    512.00     22.63
 44.47    477.00     21.84
 44.57    493.55     22.22
 44.67    519.00     22.78
 44.77    514.29     22.68
 44.87    529.00     23.00
 44.97    527.49     22.97
 45.07    534.00     23.11
 45.17    519.00     22.78
 45.27    471.49     21.71
 45.37    544.09     23.33
 45.47    477.52     21.85
 45.57    495.00     22.25
 45.67    464.61     21.55
 45.77    451.00     21.24
 45.87    466.20     21.59
 45.97    525.00     22.91
 46.07    515.00     22.69
 46.17    476.00     21.82
 46.27    515.00     22.69
 46.37    508.57     22.55
 46.47    532.63     23.08
 46.57    524.13     22.89
 46.67    541.15     23.26
 46.77    493.36     22.21
 46.87    533.00     23.09
 46.97    526.00     22.93
 47.07    498.15     22.32
 47.17    494.00     22.23
 47.27    517.56     22.75
 47.37    521.75     22.84
 47.47    525.00     22.91
 47.57    560.00     23.66
 47.67    549.00     23.43
 47.77    617.00     24.84
 47.87    567.00     23.81
 47.97    599.00     24.47
 48.07    551.00     23.47
 48.17    570.00     23.87
 48.27    518.00     22.76
 48.37    567.11     23.81
 48.47    535.72     23.15
 48.57    533.64     23.10
 48.67    538.00     23.19
 48.77    521.00     22.83
 48.87    560.00     23.66
 48.97    548.00     23.41
 49.07    568.00     23.83
 49.17    540.00     23.24
 49.27    592.95     24.35
 49.37    646.00     25.42
 49.47    673.32     25.95
 49.57    787.00     28.05
 49.67    870.00     29.50
 49.77   1148.00     33.88
 49.87   1496.00     38.68
 49.97   1848.00     42.99
 50.07   2202.03     46.93
 50.17   2470.00     49.70
 50.27   2478.81     49.79
 50.37   2198.89     46.89
 50.47   1830.00     42.78
 50.57   1437.55     37.92
 50.67   1033.00     32.14
 50.77    857.00     29.27
 50.87    739.00     27.18
 50.97    643.00     25.36
 51.07    625.00     25.00
 51.17    612.00     24.74
 51.27    600.00     24.49
 51.37    608.00     24.66
 51.47    547.57     23.40
 51.57    585.00     24.19
 51.67    565.33     23.78
 51.77    517.00     22.74
 51.87    503.75     22.44
 51.97    573.14     23.94
 52.07    557.00     23.60
 52.17    494.45     22.24
 52.27    529.00     23.00
 52.37    535.00     23.13
 52.47    590.00     24.29
 52.57    571.00     23.90
 52.67    557.00     23.60
 52.77    633.84     25.18
 52.87    668.00     25.85
 52.97    703.00     26.51
 53.07    793.00     28.16
 53.17    921.00     30.35
 53.27   1039.00     32.23
 53.37   1212.00     34.81
 53.47   1184.00     34.41
 53.57   1181.00     34.37
 53.67   1102.00     33.20
 53.77    976.33     31.25
 53.87    902.51     30.04
 53.97    787.00     28.05
 54.07    687.25     26.22
 54.17    630.00     25.10
 54.27    594.00     24.37
 54.37    601.00     24.52
 54.47    558.00     23.62
 54.57    570.44     23.88
 54.67    570.67     23.89
 54.77    525.86     22.93
 54.87    577.00     24.02
 54.97    554.00     23.54
 55.07    547.00     23.39
 55.17    523.00     22.87
 55.27    536.68     23.17
 55.37    555.08     23.56
 55.47    551.00     23.47
 55.57    574.00     23.96
 55.67    559.00     23.64
 55.77    600.00     24.49
 55.87    594.00     24.37
 55.97    679.14     26.06
 56.07    698.00     26.42
 56.17    792.75     28.16
 56.27    900.91     30.02
 56.37   1179.00     34.34
 56.47   1470.95     38.35
 56.57   1765.00     42.01
 56.67   2161.00     46.49
 56.77   2422.21     49.22
 56.87   2678.00     51.75
 56.97   2546.48     50.46
 57.07   2302.00     47.98
 57.17   2093.00     45.75
 57.27   1640.35     40.50
 57.37   1260.23     35.50
 57.47   1050.00     32.40
 57.57    897.00     29.95
 57.67    805.00     28.37
 57.77    656.30     25.62
 57.87    706.00     26.57
 57.97    667.00     25.83
 58.07    657.00     25.63
 58.17    728.00     26.98
 58.27    744.13     27.28
 58.37    866.00     29.43
 58.47    884.00     29.73
 58.57   1055.00     32.48
 58.67   1171.00     34.22
 58.77   1258.60     35.48
 58.87   1351.00     36.76
 58.97   1465.00     38.28
 59.07   1517.96     38.96
 59.17   1469.00     38.33
 59.27   1399.90     37.42
 59.37   1323.66     36.38
 59.47   1245.23     35.29
 59.57   1158.00     34.03
 59.67   1126.00     33.56
 59.77   1189.00     34.48
 59.87   1226.00     35.01
 59.97   1396.00     37.36
 60.07   1435.27     37.88
 60.17   1492.00     38.63
 60.27   1508.73     38.84
 60.37   1513.00     38.90
 60.47   1353.13     36.78
 60.57   1278.00     35.75
 60.67   1115.32     33.40
 60.77   1006.00     31.72
 60.87    801.00     28.30
 60.97    711.43     26.67
 61.07    706.65     26.58
 61.17    693.00     26.32
 61.27    670.00     25.88
 61.37    605.93     24.62
 61.47    693.00     26.32
 61.57    731.00     27.04
 61.67    839.52     28.97
 61.77   1001.00     31.64
 61.87   1078.00     32.83
 61.97   1229.00     35.06
 62.07   1371.37     37.03
 62.17   1434.00     37.87
 62.27   1370.66     37.02
 62.37   1296.00     36.00
 62.47   1268.09     35.61
 62.57   1036.00     32.19
 62.67    942.00     30.69
 62.77    805.76     28.39
 62.87    680.00     26.08
 62.97    608.00     24.66
 63.07    606.00     24.62
 63.17    594.75     24.39
 63.27    581.00     24.10
 63.37    580.00     24.08
 63.47    617.00     24.84
 63.57    526.90     22.95
 63.67    561.31     23.69
 63.77    650.00     25.50
 63.87    587.04     24.23
 63.97    705.00     26.55
 64.07    717.65     26.79
 64.17    796.00     28.21
 64.27    802.09     28.32
 64.37    899.00     29.98
 64.47    968.00     31.11
 64.57    988.86     31.45
 64.67   1065.00     32.63
 64.77   1002.00     31.65
 64.87   1000.00     31.62
 64.97    947.53     30.78
 65.07    866.00     29.43
 65.17    800.49     28.29
 65.27    757.00     27.51
 65.37    713.30     26.71
 65.47    620.58     24.91
 65.57    621.17     24.92
 65.67    581.26     24.11
 65.77    566.00     23.79
 65.87    576.00     24.00
 65.97    541.00     23.26
 66.07    569.57     23.87
 66.17    581.00     24.10
 66.27    591.46     24.32
 66.37    528.00     22.98
 66.47    527.00     22.96
 66.57    605.00     24.60
 66.67    586.00     24.21
 66.77    563.00     23.73
 66.87    624.70     24.99
 66.97    596.07     24.41
 67.07    623.34     24.97
 67.17    699.77     26.45
 67.27    766.00     27.68
 67.37    880.00     29.66
 67.47   1095.00     33.09
 67.57   1304.00     36.11
 67.67   1521.00     39.00
 67.77   1843.00     42.93
 67.87   2031.00     45.07
 67.97   2199.00     46.89
 68.07   2473.00     49.73
 68.17   2417.00     49.16
 68.27   2314.47     48.11
 68.37   2106.00     45.89
 68.47   1860.00     43.13
 68.57   1568.00     39.60
 68.67   1247.00     35.31
 68.77   1032.00     32.12
 68.87    857.00     29.27
 68.97    740.63     27.21
 69.07    713.00     26.70
 69.17    671.14     25.91
 69.27    640.51     25.31
 69.37    588.00     24.25
 69.47    586.00     24.21
 69.57    597.00     24.43
 69.67    583.13     24.15
 69.77    599.00     24.47
 69.87    537.85     23.19
 69.97    507.00     22.52
 70.07    570.00     23.87
 70.17    602.61     24.55
 70.27    578.00     24.04
 70.37    560.00     23.66
 70.47    566.00     23.79
 70.57    574.00     23.96
 70.67    574.94     23.98
 70.77    564.00     23.75
 70.87    618.01     24.86
 70.97    610.00     24.70
 71.07    637.00     25.24
 71.17    735.00     27.11
 71.27    822.00     28.67
 71.37    932.00     30.53
 71.47   1050.09     32.41
 71.57   1264.00     35.55
 71.67   1445.99     38.03
 71.77   1562.00     39.52
 71.87   1813.00     42.58
 71.97   1908.90     43.69
 72.07   1938.63     44.03
 72.17   1805.86     42.50
 72.27   1705.62     41.30
 72.37   1616.53     40.21
 72.47   1452.00     38.11
 72.57   1308.21     36.17
 72.67   1147.00     33.87
 72.77   1012.00     31.81
 72.87    995.66     31.55
 72.97    791.00     28.12
 73.07    737.00     27.15
 73.17    752.00     27.42
 73.27    707.00     26.59
 73.37    689.00     26.25
 73.47    625.00     25.00
 73.57    586.00     24.21
 73.67    638.00     25.26
 73.77    606.00     24.62
 73.87    589.00     24.27
 73.97    568.00     23.83
 74.07    564.00     23.75
 74.17    623.05     24.96
 74.27    603.00     24.56
 74.37    563.95     23.75
 74.47    601.17     24.52
 74.57    548.33     23.42
 74.67    625.00     25.00
 74.77    596.19     24.42
 74.87    606.00     24.62
 74.97    588.65     24.26
 75.07    589.00     24.27
 75.17    616.00     24.82
 75.27    579.00     24.06
 75.37    575.00     23.98
 75.47    550.00     23.45
 75.57    562.00     23.71
 75.67    595.05     24.39
 75.77    578.00     24.04
 75.87    600.78     24.51
 75.97    634.00     25.18
 76.07    628.00     25.06
 76.17    625.54     25.01
 76.27    709.00     26.63
 76.37    645.00     25.40
 76.47    706.00     26.57
 76.57    753.00     27.44
 76.67    725.00     26.93
 76.77    675.35     25.99
 76.87    694.00     26.34
 76.97    638.00     25.26
 77.07    616.14     24.82
 77.17    580.00     24.08
 77.27    558.58     23.63
 77.37    556.00     23.58
 77.47    568.00     23.83
 77.57    481.00     21.93
 77.67    486.00     22.05
 77.77    510.30     22.59
 77.87    497.10     22.30
 77.97    502.66     22.42
 78.07    510.00     22.58
 78.17    533.61     23.10
 78.27    510.00     22.58
 78.37    526.00     22.93
 78.47    555.00     23.56
 78.57    526.74     22.95
 78.67    519.00     22.78
 78.77    517.00     22.74
 78.87    510.00     22.58
 78.97    502.00     22.41
 79.07    544.34     23.33
 79.17    482.00     21.95
 79.27    518.00     22.76
 79.37    500.48     22.37
 79.47    565.00     23.77
 79.57    552.00     23.49
 79.67    523.42     22.88
 79.77    596.00     24.41
 79.87    550.00     23.45
 79.97    525.00     22.91
 80.07    561.19     23.69
 80.17    507.00     22.52
 80.27    601.00     24.52
 80.37    579.00     24.06
 80.47    563.00     23.73
 80.57    657.24     25.64
 80.67    641.00     25.32
 80.77    691.00     26.29
 80.87    663.49     25.76
 80.97    689.00     26.25
 81.07    708.00     26.61
 81.17    702.19     26.50
 81.27    760.24     27.57
 81.37    790.00     28.11
 81.47    761.45     27.59
 81.57    770.00     27.75
 81.67    744.00     27.28
 81.77    797.00     28.23
 81.87    744.17     27.28
 81.97    662.09     25.73
 82.07    664.93     25.79
 82.17    691.00     26.29
 82.27    649.44     25.48
 82.37    600.00     24.49
 82.47    588.00     24.25
 82.57    625.01     25.00
 82.67    601.00     24.52
 82.77    576.00     24.00
 82.87    595.30     24.40
 82.97    548.49     23.42
 83.07    587.23     24.23
 83.17    538.00     23.19
 83.27    594.36     24.38
 83.37    530.00     23.02
 83.47    520.91     22.82
 83.57    565.00     23.77
 83.67    534.23     23.11
 83.77    544.00     23.32
 83.87    580.00     24.08
 83.97    591.81     24.33
 84.07    530.00     23.02
 84.17    551.00     23.47
 84.27    583.00     24.15
 84.37    568.00     23.83
 84.47    580.75     24.10
 84.57    595.00     24.39
 84.67    608.00     24.66
 84.77    570.12     23.88
 84.87    570.16     23.88
 84.97    521.00     22.83
 85.07    523.41     22.88
 85.17    551.00     23.47
 85.27    526.00     22.93
 85.37    552.00     23.49
 85.47    514.32     22.68
 85.57    511.00     22.61
 85.67    557.00     23.60
 85.77    538.00     23.19
 85.87    520.00     22.80
 85.97    539.00     23.22
 86.07    504.96     22.47
 86.17    550.00     23.45
 86.27    553.34     23.52
 86.37    535.00     23.13
 86.47    528.00     22.98
 86.57    525.92     22.93
 86.67    558.00     23.62
 86.77    585.17     24.19
 86.87    617.64     24.85
 86.97    615.00     24.80
 87.07    664.00     25.77
 87.17    657.00     25.63
 87.27    657.00     25.63
 87.37    649.82     25.49
 87.47    604.00     24.58
 87.57    608.93     24.68
 87.67    646.00     25.42
 87.77    622.00     24.94
 87.87    594.16     24.38
 87.97    615.00     24.80
 88.07    622.00     24.94
 88.17    546.14     23.37
 88.27    559.55     23.65
 88.37    529.60     23.01
 88.47    596.00     24.41
 88.57    547.55     23.40
 88.67    573.95     23.96
 88.77    554.97     23.56
 88.87    601.00     24.52
 88.97    552.00     23.49
 89.07    627.32     25.05
 89.17    605.00     24.60
 89.27    605.00     24.60
 89.37    570.00     23.87
 89.47    596.00     24.41
 89.57    558.55     23.63
 89.67    566.00     23.79
 89.77    559.54     23.65
 89.87    574.00     23.96
 89.97    588.51     24.26
 90.07    561.59     23.70
 90.17    548.29     23.42
 90.27    590.61     24.30
 90.37    505.00     22.47
 90.47    496.77     22.29
 90.57    524.00     22.89
 90.67    533.04     23.09
 90.77    500.64     22.37
 90.87    528.00     22.98
 90.97    516.72     22.73
 91.07    493.00     22.20
 91.17    549.00     23.43
 91.27    485.00     22.02
 91.37    564.03     23.75
 91.47    502.00     22.41
 91.57    534.00     23.11
 91.67    573.04     23.94
 91.77    485.00     22.02
 91.87    537.00     23.17
 91.97    554.00     23.54
 92.07    557.00     23.60
 92.17    607.68     24.65
 92.27    576.75     24.02
 92.37    580.00     24.08
 92.47    654.89     25.59
 92.57    640.42     25.31
 92.67    690.17     26.27
 92.77    689.08     26.25
 92.87    730.00     27.02
 92.97    751.00     27.40
 93.07    747.00     27.33
 93.17    748.27     27.35
 93.27    730.94     27.04
 93.37    795.00     28.20
 93.47    817.17     28.59
 93.57    804.00     28.35
 93.67    831.00     28.83
 93.77    791.00     28.12
 93.87    857.00     29.27
 93.97    846.00     29.09
 94.07    861.90     29.36
 94.17    866.00     29.43
 94.27    862.00     29.36
 94.37    929.00     30.48
 94.47    847.00     29.10
 94.57    937.00     30.61
 94.67    872.00     29.53
 94.77    913.00     30.22
 94.87    947.00     30.77
 94.97    926.33     30.44
 95.07    951.00     30.84
 95.17    876.44     29.60
 95.27    866.00     29.43
 95.37    757.00     27.51
 95.47    784.75     28.01
 95.57    731.00     27.04
 95.67    709.00     26.63
 95.77    670.00     25.88
 95.87    686.96     26.21
 95.97    691.00     26.29
 96.07    653.37     25.56
 96.17    723.00     26.89
 96.27    696.00     26.38
 96.37    787.63     28.06
 96.47    846.00     29.09
 96.57    843.00     29.03
 96.67    927.00     30.45
 96.77   1033.00     32.14
 96.87   1065.00     32.63
 96.97   1141.00     33.78
 97.07   1246.00     35.30
 97.17   1294.00     35.97
 97.27   1309.85     36.19
 97.37   1388.48     37.26
 97.47   1445.00     38.01
 97.57   1418.00     37.66
 97.67   1430.00     37.82
 97.77   1412.12     37.58
 97.87   1319.00     36.32
 97.97   1293.00     35.96
 98.07   1204.00     34.70
 98.17   1200.36     34.65
 98.27   1098.00     33.14
 98.37   1083.00     32.91
 98.47    961.00     31.00
 98.57    910.00     30.17
 98.67    879.00     29.65
 98.77    785.00     28.02
 98.87    775.14     27.84
 98.97    818.00     28.60
 99.07    830.00     28.81
 99.17    850.00     29.15
 99.27    870.00     29.50
 99.37    901.97     30.03
 99.47   1072.00     32.74
 99.57   1134.00     33.67
 99.67   1175.31     34.28
 99.77   1321.45     36.35
 99.87   1424.00     37.74
 99.97   1495.22     38.67
100.07   1687.00     41.07
100.17   1841.00     42.91
100.27   1853.99     43.06
100.37   1929.52     43.93
100.47   1954.00     44.20
100.57   2058.00     45.37
100.67   2077.00     45.57
100.77   2087.00     45.68
100.87   2049.00     45.27
100.97   2005.00     44.78
101.07   2000.19     44.72
101.17   1758.00     41.93
101.27   1742.00     41.74
101.37   1699.00     41.22
101.47   1656.94     40.71
101.57   1496.00     38.68
101.67   1415.00     37.62
101.77   1376.00     37.09
101.87   1261.00     35.51
101.97   1228.00     35.04
102.07   1166.00     34.15
102.17   1189.00     34.48
102.27   1194.53     34.56
102.37   1112.00     33.35
102.47   1079.52     32.86
102.57   1027.00     32.05
102.67   1038.00     32.22
102.77   1010.30     31.79
102.87    974.00     31.21
102.97    983.00     31.35
103.07    864.00     29.39
103.17    830.00     28.81
103.27    871.00     29.51
103.37    775.00     27.84
103.47    775.00     27.84
103.57    736.00     27.13
103.67    652.08     25.54
103.77    726.00     26.94
103.87    660.00     25.69
103.97    610.00     24.70
104.07    628.66     25.07
104.17    613.00     24.76
104.27    553.00     23.52
104.37    594.00     24.37
104.47    588.00     24.25
104.57    555.00     23.56
104.67    521.08     22.83
104.77    571.00     23.90
104.87    560.00     23.66
104.97    507.01     22.52
105.07    560.26     23.67
105.17    551.00     23.47
105.27    541.00     23.26
105.37    561.52     23.70
105.47    534.00     23.11
105.57    532.74     23.08
105.67    508.41     22.55
105.77    571.83     23.91
105.87    584.00     24.17
105.97    587.00     24.23
106.07    556.00     23.58
106.17    562.24     23.71
106.27    586.00     24.21
106.37    630.61     25.11
106.47    586.00     24.21
106.57    563.00     23.73
106.67    631.75     25.13
106.77    684.95     26.17
106.87    633.81     25.18
106.97    663.00     25.75
107.07    644.00     25.38
107.17    670.31     25.89
107.27    704.00     26.53
107.37    633.00     25.16
107.47    663.00     25.75
107.57    716.00     26.76
107.67    623.00     24.96
107.77    677.00     26.02
107.87    723.00     26.89
107.97    683.00     26.13
108.07    688.00     26.23
108.17    665.99     25.81
108.27    640.00     25.30
108.37    665.00     25.79
108.47    634.00     25.18
108.57    713.00     26.70
108.67    707.00     26.59
108.77    677.00     26.02
108.87    656.35     25.62
108.97    697.00     26.40
109.07    697.00     26.40
109.17    672.00     25.92
109.27    697.81     26.42
109.37    649.83     25.49
109.47    658.00     25.65
109.57    622.00     24.94
109.67    700.00     26.46
109.77    628.27     25.07
109.87    635.00     25.20
109.97    605.00     24.60
110.07    558.90     23.64
110.17    624.00     24.98
110.27    572.00     23.92
110.37    610.00     24.70
110.47    566.00     23.79
110.57    570.00     23.87
110.67    501.00     22.38
110.77    545.00     23.35
110.87    558.00     23.62
110.97    553.00     23.52
111.07    494.05     22.23
111.17    550.00     23.45
111.27    503.81     22.45
111.37    550.00     23.45
111.47    545.00     23.35
111.57    542.00     23.28
111.67    568.31     23.84
111.77    513.79     22.67
111.87    562.00     23.71
111.97    582.00     24.12
112.07    604.09     24.58
112.17    554.55     23.55
112.27    559.00     23.64
112.37    584.32     24.17
112.47    569.00     23.85
112.57    595.00     24.39
112.67    568.64     23.85
112.77    585.48     24.20
112.87    645.00     25.40
112.97    696.94     26.40
113.07    703.84     26.53
113.17    732.93     27.07
113.27    687.00     26.21
113.37    764.37     27.65
113.47    761.00     27.59
113.57    798.45     28.26
113.67    819.24     28.62
113.77    821.00     28.65
113.87    824.00     28.71
113.97    971.52     31.17
114.07    998.00     31.59
114.17   1005.00     31.70
114.27   1029.00     32.08
114.37   1191.95     34.52
114.47   1295.00     35.99
114.57   1447.00     38.04
114.67   1467.09     38.30
114.77   1720.54     41.48
114.87   1886.00     43.43
114.97   2008.53     44.82
115.07   2249.01     47.42
115.17   2735.00     52.30
115.27   2956.00     54.37
115.37   3040.33     55.14
115.47   3467.23     58.88
115.57   3728.00     61.06
115.67   4225.35     65.00
115.77   4527.30     67.29
115.87   4975.25     70.54
115.97   5286.00     72.70
116.07   5658.92     75.23
116.17   6005.00     77.49
116.27   6168.00     78.54
116.37   6460.00     80.37
116.47   6814.00     82.55
116.57   6663.00     81.63
116.67   6804.00     82.49
116.77   6819.00     82.58
116.87   6748.00     82.15
116.97   6501.00     80.63
117.07   6172.00     78.56
117.17   5937.00     77.05
117.27   5750.23     75.83
117.37   5191.00     72.05
117.47   4930.00     70.21
117.57   4504.00     67.11
117.67   4128.55     64.25
117.77   3841.00     61.98
117.87   3464.00     58.86
117.97   3092.17     55.61
118.07   2741.01     52.35
118.17   2587.01     50.86
118.27   2138.00     46.24
118.37   1996.00     44.68
118.47   1751.95     41.86
118.57   1548.00     39.34
118.67   1420.14     37.68
118.77   1342.48     36.64
118.87   1186.53     34.45
118.97   1037.36     32.21
119.07    996.14     31.56
119.17    875.30     29.59
119.27    843.00     29.03
119.37    788.00     28.07
119.47    720.00     26.83
119.57    755.72     27.49
119.67    722.00     26.87
119.77    640.25     25.30
119.87    581.00     24.10
119.97    650.00     25.50
120.07    606.00     24.62
120.17    607.00     24.64
120.27    554.00     23.54
120.37    621.00     24.92
120.47    621.00     24.92
120.57    562.00     23.71
120.67    514.00     22.67
120.77    565.00     23.77
120.87    601.00     24.52
120.97    563.77     23.74
121.07    615.73     24.81
121.17    546.00     23.37
121.27    610.04     24.70
121.37    572.00     23.92
121.47    596.00     24.41
121.57    598.00     24.45
121.67    640.00     25.30
121.77    631.70     25.13
121.87    632.38     25.15
121.97    600.75     24.51
122.07    594.84     24.39
122.17    635.00     25.20
122.27    620.00     24.90
122.37    576.00     24.00
122.47    587.78     24.24
122.57    632.37     25.15
122.67    643.16     25.36
122.77    653.01     25.55
122.87    656.00     25.61
122.97    627.75     25.05
123.07    575.00     23.98
123.17    659.00     25.67
123.27    621.00     24.92
123.37    671.00     25.90
123.47    664.00     25.77
123.57    611.00     24.72
123.67    622.00     24.94
123.77    606.00     24.62
123.87    630.00     25.10
123.97    598.38     24.46
124.07    650.00     25.50
124.17    656.96     25.63
124.27    623.00     24.96
124.37    598.21     24.46
124.47    584.00     24.17
124.57    608.00     24.66
124.67    646.00     25.42
124.77    549.74     23.45
124.87    627.00     25.04
124.97    547.00     23.39
