XYDATA



INTER 1.0 1.0 0 0
TEMP 783.479
  9.97    612.00     24.74
 10.07    631.00     25.12
 10.17    624.99     25.00
 10.27    614.93     24.80
 10.37    626.00     25.02
 10.47    613.52     24.77
 10.57    580.00     24.08
 10.67    621.00     24.92
 10.77    669.00     25.87
 10.87    709.00     26.63
 10.97    611.50     24.73
 11.07    599.03     24.48
 11.17    590.09     24.29
 11.27    655.00     25.59
 11.37    614.66     24.79
 11.47    632.00     25.14
 11.57    676.00     26.00
 11.67    562.05     23.71
 11.77    577.11     24.02
 11.87    695.00     26.36
 11.97    618.33     24.87
 12.07    684.07     26.15
 12.17    740.00     27.20
 12.27    758.00     27.53
 12.37    755.48     27.49
 12.47    682.91     26.13
 12.57    659.00     25.67
 12.67    673.56     25.95
 12.77    582.00     24.12
 12.87    676.05     26.00
 12.97    526.00     22.93
 13.07    615.00     24.80
 13.17    585.00     24.19
 13.27    623.00     24.96
 13.37    604.88     24.59
 13.47    596.00     24.41
 13.57    624.00     24.98
 13.67    666.04     25.81
 13.77    652.00     25.53
 13.87    609.00     24.68
 13.97    596.00     24.41
 14.07    588.00     24.25
 14.17    598.00     24.45
 14.27    570.00     23.87
 14.37    643.00     25.36
 14.47    589.58     24.28
 14.57    567.00     23.81
 14.67    585.00     24.19
 14.77    659.17     25.67
 14.87    629.00     25.08
 14.97    574.00     23.96
 15.07    559.65     23.66
 15.17    548.00     23.41
 15.27    560.00     23.66
 15.37    599.00     24.47
 15.47    557.00     23.60
 15.57    638.29     25.26
 15.67    615.00     24.80
 15.77    615.00     24.80
 15.87    629.00     25.08
 15.97    583.00     24.15
 16.07    596.00     24.41
 16.17    618.00     24.86
 16.27    602.00     24.54
 16.37    568.00     23.83
 16.47    595.00     24.39
 16.57    630.00     25.10
 16.67    576.00     24.00
 16.77    623.17     24.96
 16.87    588.00     24.25
 16.97    578.00     24.04
 17.07    669.29     25.87
 17.17    613.00     24.76
 17.27    595.90     24.41
 17.37    625.00     25.00
 17.47    617.33     24.85
 17.57    604.00     24.58
 17.67    585.00     24.19
 17.77    599.00     24.47
 17.87    625.77     25.02
 17.97    624.13     24.98
 18.07    609.00     24.68
 18.17    577.00     24.02
 18.27    600.35     24.50
 18.37    549.00     23.43
 18.47    617.00     24.84
 18.57    615.16     24.80
 18.67    601.31     24.52
 18.77    624.00     24.98
 18.87    561.00     23.69
 18.97    619.35     24.89
 19.07    655.00     25.59
 19.17    644.14     25.38
 19.27    633.97     25.18
 19.37    567.00     23.81
 19.47    597.00     24.43
 19.57    561.00     23.69
 19.67    606.00     24.62
 19.77    553.00     23.52
 19.87    596.00     24.41
 19.97    573.00     23.94
 20.07    590.00     24.29
 20.17    574.00     23.96
 20.27    598.00     24.45
 20.37    649.27     25.48
 20.47    589.00     24.27
 20.57    639.18     25.28
 20.67    621.00     24.92
 20.77    578.00     24.04
 20.87    588.00     24.25
 20.97    639.70     25.29
 21.07    578.00     24.04
 21.17    564.00     23.75
 21.27    585.00     24.19
 21.37    606.00     24.62
 21.47    593.00     24.35
 21.57    574.00     23.96
 21.67    589.00     24.27
 21.77    619.00     24.88
 21.87    561.31     23.69
 21.97    570.00     23.87
 22.07    640.33     25.30
 22.17    595.00     24.39
 22.27    624.94     25.00
 22.37    598.57     24.47
 22.47    555.62     23.57
 22.57    657.69     25.65
 22.67    622.00     24.94
 22.77    608.00     24.66
 22.87    607.00     24.64
 22.97    641.00     25.32
 23.07    578.00     24.04
 23.17    593.42     24.36
 23.27    600.00     24.49
 23.37    596.00     24.41
 23.47    638.53     25.27
 23.57    556.28     23.59
 23.67    584.00     24.17
 23.77    622.00     24.94
 23.87    646.24     25.42
 23.97    553.16     23.52
 24.07    633.00     25.16
 24.17    593.00     24.35
 24.27    647.00     25.44
 24.37    618.51     24.87
 24.47    668.42     25.85
 24.57    634.00     25.18
 24.67    716.00     26.76
 24.77    696.10     26.38
 24.87    656.80     25.63
 24.97    726.00     26.94
 25.07    678.00     26.04
 25.17    668.74     25.86
 25.27    665.00     25.79
 25.37    580.00     24.08
 25.47    677.00     26.02
 25.57    597.63     24.45
 25.67    604.00     24.58
 25.77    570.15     23.88
 25.87    649.97     25.49
 25.97    601.00     24.52
 26.07    626.00     25.02
 26.17    609.86     24.70
 26.27    642.32     25.34
 26.37    624.00     24.98
 26.47    634.53     25.19
 26.57    562.37     23.71
 26.67    608.24     24.66
 26.77    613.00     24.76
 26.87    641.98     25.34
 26.97    639.00     25.28
 27.07    674.00     25.96
 27.17    667.00     25.83
 27.27    656.00     25.61
 27.37    695.00     26.36
 27.47    598.46     24.46
 27.57    565.10     23.77
 27.67    674.39     25.97
 27.77    682.00     26.12
 27.87    708.00     26.61
 27.97    726.00     26.94
 28.07    814.00     28.53
 28.17    825.02     28.72
 28.27    957.00     30.94
 28.37    971.00     31.16
 28.47    967.00     31.10
 28.57    857.00     29.27
 28.67    793.00     28.16
 28.77    801.00     28.30
 28.87    889.00     29.82
 28.97    800.53     28.29
 29.07    973.00     31.19
 29.17    937.00     30.61
 29.27    756.99     27.51
 29.37    672.43     25.93
 29.47    685.52     26.18
 29.57    712.00     26.68
 29.67    668.00     25.85
 29.77    643.00     25.36
 29.87    697.00     26.40
 29.97    693.00     26.32
 30.07    674.00     25.96
 30.17    655.00     25.59
 30.27    532.36     23.07
 30.37    667.00     25.83
 30.47    550.92     23.47
 30.57    630.00     25.10
 30.67    630.00     25.10
 30.77    689.00     26.25
 30.87    655.00     25.59
 30.97    703.00     26.51
 31.07    701.84     26.49
 31.17    689.00     26.25
 31.27    684.90     26.17
 31.37    665.00     25.79
 31.47    614.03     24.78
 31.57    623.00     24.96
 31.67    610.00     24.70
 31.77    547.40     23.40
 31.87    593.00     24.35
 31.97    592.00     24.33
 32.07    596.32     24.42
 32.17    580.62     24.10
 32.27    586.00     24.21
 32.37    572.00     23.92
 32.47    597.00     24.43
 32.57    576.00     24.00
 32.67    583.00     24.15
 32.77    607.00     24.64
 32.87    577.00     24.02
 32.97    619.00     24.88
 33.07    640.00     25.30
 33.17    565.27     23.78
 33.27    600.98     24.51
 33.37    608.00     24.66
 33.47    618.61     24.87
 33.57    610.72     24.71
 33.67    716.11     26.76
 33.77    693.00     26.32
 33.87    756.00     27.50
 33.97    883.00     29.72
 34.07    927.00     30.45
 34.17   1040.00     32.25
 34.27   1068.73     32.69
 34.37    931.00     30.51
 34.47    907.90     30.13
 34.57    797.74     28.24
 34.67    661.00     25.71
 34.77    653.45     25.56
 34.87    587.52     24.24
 34.97    625.00     25.00
 35.07    584.00     24.17
 35.17    554.00     23.54
 35.27    585.00     24.19
 35.37    539.16     23.22
 35.47    539.42     23.23
 35.57    599.51     24.48
 35.67    573.00     23.94
 35.77    533.53     23.10
 35.87    554.00     23.54
 35.97    486.00     22.05
 36.07    562.85     23.72
 36.17    561.90     23.70
 36.27    565.00     23.77
 36.37    511.40     22.61
 36.47    498.00     22.32
 36.57    573.00     23.94
 36.67    531.00     23.04
 36.77    507.00     22.52
 36.87    508.80     22.56
 36.97    596.88     24.43
 37.07    491.00     22.16
 37.17    563.35     23.73
 37.27    502.77     22.42
 37.37    575.00     23.98
 37.47    593.25     24.36
 37.57    505.00     22.47
 37.67    549.00     23.43
 37.77    559.00     23.64
 37.87    559.04     23.64
 37.97    501.00     22.38
 38.07    572.74     23.93
 38.17    522.00     22.85
 38.27    597.20     24.44
 38.37    524.00     22.89
 38.47    500.35     22.37
 38.57    542.01     23.28
 38.67    490.00     22.14
 38.77    485.00     22.02
 38.87    478.00     21.86
 38.97    515.00     22.69
 39.07    552.00     23.49
 39.17    503.00     22.43
 39.27    498.74     22.33
 39.37    565.24     23.77
 39.47    540.00     23.24
 39.57    509.00     22.56
 39.67    512.00     22.63
 39.77    576.17     24.00
 39.87    502.55     22.42
 39.97    481.00     21.93
 40.07    516.00     22.72
 40.17    529.00     23.00
 40.27    537.06     23.17
 40.37    556.43     23.59
 40.47    538.40     23.20
 40.57    555.48     23.57
 40.67    514.00     22.67
 40.77    483.09     21.98
 40.87    591.00     24.31
 40.97    516.00     22.72
 41.07    546.24     23.37
 41.17    498.00     22.32
 41.27    494.00     22.23
 41.37    567.52     23.82
 41.47    524.00     22.89
 41.57    514.00     22.67
 41.67    523.00     22.87
 41.77    497.00     22.29
 41.87    498.57     22.33
 41.97    515.00     22.69
 42.07    509.00     22.56
 42.17    490.00     22.14
 42.27    543.00     23.30
 42.37    534.35     23.12
 42.47    558.00     23.62
 42.57    590.70     24.30
 42.67    564.00     23.75
 42.77    602.00     24.54
 42.87    660.78     25.71
 42.97    571.00     23.90
 43.07    612.00     24.74
 43.17    605.22     24.60
 43.27    577.00     24.02
 43.37    529.00     23.00
 43.47    525.75     22.93
 43.57    502.90     22.43
 43.67    524.00     22.89
 43.77    532.00     23.07
 43.87    480.17     21.91
 43.97    525.85     22.93
 44.07    505.00     22.47
 44.17    505.00     22.47
 44.27    484.00     22.00
 44.37    570.62     23.89
 44.47    524.14     22.89
 44.57    535.63     23.14
 44.67    525.00     22.91
 44.77    500.00     22.36
 44.87    502.23     22.41
 44.97    537.00     23.17
 45.07    515.00     22.69
 45.17    510.00     22.58
 45.27    537.00     23.17
 45.37    522.00     22.85
 45.47    479.03     21.89
 45.57    559.00     23.64
 45.67    477.60     21.85
 45.77    521.07     22.83
 45.87    546.00     23.37
 45.97    549.00     23.43
 46.07    484.94     22.02
 46.17    521.00     22.83
 46.27    502.00     22.41
 46.37    552.78     23.51
 46.47    520.00     22.80
 46.57    472.42     21.74
 46.67    544.24     23.33
 46.77    574.79     23.97
 46.87    526.00     22.93
 46.97    524.07     22.89
 47.07    549.40     23.44
 47.17    532.00     23.07
 47.27    579.00     24.06
 47.37    572.37     23.92
 47.47    573.00     23.94
 47.57    508.30     22.55
 47.67    577.00     24.02
 47.77    601.00     24.52
 47.87    601.21     24.52
 47.97    633.00     25.16
 48.07    614.00     24.78
 48.17    610.00     24.70
 48.27    594.00     24.37
 48.37    589.81     24.29
 48.47    587.66     24.24
 48.57    581.00     24.10
 48.67    549.00     23.43
 48.77    585.00     24.19
 48.87    584.65     24.18
 48.97    564.00     23.75
 49.07    521.00     22.83
 49.17    522.35     22.85
 49.27    567.00     23.81
 49.37    607.01     24.64
 49.47    622.00     24.94
 49.57    601.96     24.53
 49.67    651.00     25.51
 49.77    810.00     28.46
 49.87    912.00     30.20
 49.97   1266.00     35.58
 50.07   1544.00     39.29
 50.17   1902.00     43.61
 50.27   2164.00     46.52
 50.37   2353.00     48.51
 50.47   2324.00     48.21
 50.57   2124.00     46.09
 50.67   1705.53     41.30
 50.77   1355.00     36.81
 50.87   1096.00     33.11
 50.97    895.85     29.93
 51.07    793.00     28.16
 51.17    737.00     27.15
 51.27    673.00     25.94
 51.37    635.00     25.20
 51.47    661.00     25.71
 51.57    615.00     24.80
 51.67    565.00     23.77
 51.77    545.95     23.37
 51.87    576.00     24.00
 51.97    594.00     24.37
 52.07    528.56     22.99
 52.17    613.41     24.77
 52.27    591.12     24.31
 52.37    565.00     23.77
 52.47    614.65     24.79
 52.57    588.00     24.25
 52.67    557.00     23.60
 52.77    666.00     25.81
 52.87    592.00     24.33
 52.97    585.71     24.20
 53.07    698.11     26.42
 53.17    791.49     28.13
 53.27    772.00     27.78
 53.37    917.23     30.29
 53.47   1029.00     32.08
 53.57   1113.14     33.36
 53.67   1155.29     33.99
 53.77   1223.00     34.97
 53.87   1163.00     34.10
 53.97   1081.00     32.88
 54.07    933.00     30.55
 54.17    836.73     28.93
 54.27    815.00     28.55
 54.37    739.00     27.18
 54.47    609.52     24.69
 54.57    633.00     25.16
 54.67    584.00     24.17
 54.77    566.00     23.79
 54.87    590.00     24.29
 54.97    544.00     23.32
 55.07    607.00     24.64
 55.17    631.70     25.13
 55.27    577.00     24.02
 55.37    573.00     23.94
 55.47    622.64     24.95
 55.57    611.00     24.72
 55.67    616.00     24.82
 55.77    688.00     26.23
 55.87    631.00     25.12
 55.97    642.00     25.34
 56.07    701.00     26.48
 56.17    693.00     26.32
 56.27    770.00     27.75
 56.37    970.46     31.15
 56.47    913.00     30.22
 56.57   1162.00     34.09
 56.67   1416.00     37.63
 56.77   1762.00     41.98
 56.87   2074.80     45.55
 56.97   2427.38     49.27
 57.07   2536.00     50.36
 57.17   2609.00     51.08
 57.27   2321.00     48.18
 57.37   2093.00     45.75
 57.47   1723.92     41.52
 57.57   1431.78     37.84
 57.67   1223.00     34.97
 57.77   1115.18     33.39
 57.87    868.89     29.48
 57.97    822.61     28.68
 58.07    755.00     27.48
 58.17    795.00     28.20
 58.27    777.08     27.88
 58.37    765.00     27.66
 58.47    782.75     27.98
 58.57    791.00     28.12
 58.67    797.24     28.24
 58.77    900.70     30.01
 58.87   1020.00     31.94
 58.97   1032.76     32.14
 59.07   1185.00     34.42
 59.17   1243.36     35.26
 59.27   1167.91     34.17
 59.37   1278.61     35.76
 59.47   1225.13     35.00
 59.57   1165.00     34.13
 59.67   1115.78     33.40
 59.77   1199.00     34.63
 59.87   1076.13     32.80
 59.97   1222.00     34.96
 60.07   1180.09     34.35
 60.17   1363.00     36.92
 60.27   1508.00     38.83
 60.37   1474.26     38.40
 60.47   1623.00     40.29
 60.57   1495.00     38.67
 60.67   1479.00     38.46
 60.77   1309.00     36.18
 60.87   1208.00     34.76
 60.97   1017.50     31.90
 61.07    948.62     30.80
 61.17    785.49     28.03
 61.27    781.00     27.95
 61.37    674.18     25.96
 61.47    764.69     27.65
 61.57    729.00     27.00
 61.67    764.00     27.64
 61.77    837.00     28.93
 61.87    863.68     29.39
 61.97    960.00     30.98
 62.07   1096.00     33.11
 62.17   1199.00     34.63
 62.27   1298.33     36.03
 62.37   1385.27     37.22
 62.47   1290.20     35.92
 62.57   1315.47     36.27
 62.67   1243.20     35.26
 62.77   1104.11     33.23
 62.87    956.00     30.92
 62.97    840.00     28.98
 63.07    800.61     28.29
 63.17    734.99     27.11
 63.27    736.30     27.13
 63.37    634.00     25.18
 63.47    596.47     24.42
 63.57    568.61     23.85
 63.67    626.00     25.02
 63.77    635.00     25.20
 63.87    600.00     24.49
 63.97    630.17     25.10
 64.07    602.03     24.54
 64.17    711.00     26.66
 64.27    680.00     26.08
 64.37    861.00     29.34
 64.47    865.00     29.41
 64.57    894.00     29.90
 64.67    997.93     31.59
 64.77    939.37     30.65
 64.87   1040.00     32.25
 64.97   1047.00     32.36
 65.07   1050.00     32.40
 65.17   1002.00     31.65
 65.27    983.51     31.36
 65.37    848.00     29.12
 65.47    774.82     27.84
 65.57    812.00     28.50
 65.67    709.00     26.63
 65.77    652.00     25.53
 65.87    635.54     25.21
 65.97    616.00     24.82
 66.07    641.00     25.32
 66.17    668.04     25.85
 66.27    603.00     24.56
 66.37    632.42     25.15
 66.47    549.77     23.45
 66.57    610.00     24.70
 66.67    593.00     24.35
 66.77    619.00     24.88
 66.87    598.00     24.45
 66.97    632.69     25.15
 67.07    577.00     24.02
 67.17    650.00     25.50
 67.27    705.59     26.56
 67.37    672.00     25.92
 67.47    846.05     29.09
 67.57    914.49     30.24
 67.67   1047.71     32.37
 67.77   1288.00     35.89
 67.87   1400.00     37.42
 67.97   1608.00     40.10
 68.07   1906.00     43.66
 68.17   2231.61     47.24
 68.27   2296.00     47.92
 68.37   2430.00     49.30
 68.47   2275.00     47.70
 68.57   2131.00     46.16
 68.67   2105.00     45.88
 68.77   1807.00     42.51
 68.87   1526.00     39.06
 68.97   1344.00     36.66
 69.07   1123.00     33.51
 69.17    932.00     30.53
 69.27    854.00     29.22
 69.37    765.94     27.68
 69.47    726.74     26.96
 69.57    741.60     27.23
 69.67    663.00     25.75
 69.77    579.99     24.08
 69.87    652.00     25.53
 69.97    614.00     24.78
 70.07    658.92     25.67
 70.17    590.02     24.29
 70.27    621.00     24.92
 70.37    637.00     25.24
 70.47    581.00     24.10
 70.57    619.00     24.88
 70.67    559.85     23.66
 70.77    594.94     24.39
 70.87    609.00     24.68
 70.97    618.00     24.86
 71.07    610.00     24.70
 71.17    705.00     26.55
 71.27    707.00     26.59
 71.37    683.00     26.13
 71.47    838.00     28.95
 71.57    912.00     30.20
 71.67   1012.00     31.81
 71.77   1234.36     35.13
 71.87   1309.44     36.19
 71.97   1575.98     39.70
 72.07   1660.00     40.74
 72.17   1798.00     42.40
 72.27   1897.49     43.56
 72.37   1860.00     43.13
 72.47   1819.00     42.65
 72.57   1704.72     41.29
 72.67   1610.40     40.13
 72.77   1466.00     38.29
 72.87   1280.64     35.79
 72.97   1116.72     33.42
 73.07   1004.00     31.69
 73.17    850.00     29.15
 73.27    824.00     28.71
 73.37    716.42     26.77
 73.47    624.72     24.99
 73.57    739.00     27.18
 73.67    641.99     25.34
 73.77    670.00     25.88
 73.87    614.42     24.79
 73.97    641.18     25.32
 74.07    567.63     23.83
 74.17    569.00     23.85
 74.27    680.00     26.08
 74.37    632.00     25.14
 74.47    564.41     23.76
 74.57    590.07     24.29
 74.67    620.89     24.92
 74.77    569.62     23.87
 74.87    596.53     24.42
 74.97    627.00     25.04
 75.07    641.00     25.32
 75.17    669.00     25.87
 75.27    636.00     25.22
 75.37    656.00     25.61
 75.47    637.00     25.24
 75.57    523.99     22.89
 75.67    577.00     24.02
 75.77    582.62     24.14
 75.87    590.00     24.29
 75.97    590.00     24.29
 76.07    575.16     23.98
 76.17    550.52     23.46
 76.27    671.05     25.90
 76.37    668.00     25.85
 76.47    652.13     25.54
 76.57    635.04     25.20
 76.67    704.00     26.53
 76.77    729.00     27.00
 76.87    693.00     26.32
 76.97    730.00     27.02
 77.07    688.00     26.23
 77.17    697.88     26.42
 77.27    644.98     25.40
 77.37    627.37     25.05
 77.47    645.93     25.42
 77.57    557.00     23.60
 77.67    546.00     23.37
 77.77    567.00     23.81
 77.87    560.00     23.66
 77.97    598.81     24.47
 78.07    597.88     24.45
 78.17    570.00     23.87
 78.27    544.00     23.32
 78.37    481.00     21.93
 78.47    551.00     23.47
 78.57    548.76     23.43
 78.67    529.00     23.00
 78.77    540.00     23.24
 78.87    537.00     23.17
 78.97    546.00     23.37
 79.07    507.46     22.53
 79.17    538.00     23.19
 79.27    540.00     23.24
 79.37    528.00     22.98
 79.47    529.00     23.00
 79.57    501.87     22.40
 79.67    558.00     23.62
 79.77    559.00     23.64
 79.87    553.01     23.52
 79.97    523.00     22.87
 80.07    561.00     23.69
 80.17    539.62     23.23
 80.27    541.22     23.26
 80.37    606.65     24.63
 80.47    556.00     23.58
 80.57    532.38     23.07
 80.67    614.19     24.78
 80.77    578.60     24.05
 80.87    604.00     24.58
 80.97    623.00     24.96
 81.07    646.86     25.43
 81.17    714.00     26.72
 81.27    690.00     26.27
 81.37    731.00     27.04
 81.47    751.00     27.40
 81.57    767.41     27.70
 81.67    793.80     28.17
 81.77    739.00     27.18
 81.87    790.00     28.11
 81.97    768.00     27.71
 82.07    754.92     27.48
 82.17    748.00     27.35
 82.27    717.00     26.78
 82.37    703.00     26.51
 82.47    682.00     26.12
 82.57    629.30     25.09
 82.67    654.34     25.58
 82.77    622.00     24.94
 82.87    582.00     24.12
 82.97    609.09     24.68
 83.07    563.00     23.73
 83.17    557.00     23.60
 83.27    598.00     24.45
 83.37    611.49     24.73
 83.47    534.00     23.11
 83.57    554.19     23.54
 83.67    621.20     24.92
 83.77    551.00     23.47
 83.87    548.00     23.41
 83.97    523.00     22.87
 84.07    593.00     24.35
 84.17    585.93     24.21
 84.27    590.66     24.30
 84.37    585.07     24.19
 84.47    598.00     24.45
 84.57    551.18     23.48
 84.67    511.00     22.61
 84.77    537.00     23.17
 84.87    536.00     23.15
 84.97    537.00     23.17
 85.07    550.00     23.45
 85.17    530.00     23.02
 85.27    545.00     23.35
 85.37    565.48     23.78
 85.47    539.98     23.24
 85.57    541.00     23.26
 85.67    539.00     23.22
 85.77    573.00     23.94
 85.87    485.27     22.03
 85.97    563.00     23.73
 86.07    533.20     23.09
 86.17    556.00     23.58
 86.27    536.00     23.15
 86.37    560.00     23.66
 86.47    550.00     23.45
 86.57    516.00     22.72
 86.67    547.00     23.39
 86.77    577.84     24.04
 86.87    526.74     22.95
 86.97    565.00     23.77
 87.07    580.25     24.09
 87.17    554.00     23.54
 87.27    598.00     24.45
 87.37    561.75     23.70
 87.47    661.06     25.71
 87.57    630.00     25.10
 87.67    688.00     26.23
 87.77    641.00     25.32
 87.87    650.00     25.50
 87.97    617.00     24.84
 88.07    589.24     24.27
 88.17    610.00     24.70
 88.27    675.50     25.99
 88.37    628.85     25.08
 88.47    579.00     24.06
 88.57    626.00     25.02
 88.67    635.66     25.21
 88.77    543.37     23.31
 88.87    569.00     23.85
 88.97    557.00     23.60
 89.07    569.05     23.85
 89.17    553.48     23.53
 89.27    606.00     24.62
 89.37    568.04     23.83
 89.47    620.00     24.90
 89.57    560.97     23.68
 89.67    646.00     25.42
 89.77    662.75     25.74
 89.87    595.00     24.39
 89.97    576.66     24.01
 90.07    631.50     25.13
 90.17    589.00     24.27
 90.27    573.00     23.94
 90.37    620.15     24.90
 90.47    571.00     23.90
 90.57    555.00     23.56
 90.67    548.00     23.41
 90.77    510.00     22.58
 90.87    548.00     23.41
 90.97    578.19     24.05
 91.07    579.00     24.06
 91.17    535.00     23.13
 91.27    510.00     22.58
 91.37    500.00     22.36
 91.47    583.33     24.15
 91.57    552.00     23.49
 91.67    569.84     23.87
 91.77    512.00     22.63
 91.87    538.86     23.21
 91.97    538.72     23.21
 92.07    520.08     22.81
 92.17    516.50     22.73
 92.27    516.00     22.72
 92.37    594.94     24.39
 92.47    598.35     24.46
 92.57    574.00     23.96
 92.67    577.00     24.02
 92.77    637.00     25.24
 92.87    613.00     24.76
 92.97    647.00     25.44
 93.07    628.00     25.06
 93.17    701.88     26.49
 93.27    670.00     25.88
 93.37    692.49     26.32
 93.47    735.00     27.11
 93.57    767.00     27.69
 93.67    702.00     26.50
 93.77    733.00     27.07
 93.87    800.00     28.28
 93.97    821.83     28.67
 94.07    751.32     27.41
 94.17    838.00     28.95
 94.27    830.00     28.81
 94.37    861.00     29.34
 94.47    814.00     28.53
 94.57    887.00     29.78
 94.67    823.74     28.70
 94.77    896.00     29.93
 94.87    842.53     29.03
 94.97    919.00     30.32
 95.07    843.05     29.04
 95.17    908.41     30.14
 95.27    932.00     30.53
 95.37    920.00     30.33
 95.47    897.00     29.95
 95.57    848.00     29.12
 95.67    826.00     28.74
 95.77    834.00     28.88
 95.87    790.00     28.11
 95.97    775.00     27.84
 96.07    701.68     26.49
 96.17    729.84     27.02
 96.27    794.49     28.19
 96.37    742.75     27.25
 96.47    715.00     26.74
 96.57    698.02     26.42
 96.67    774.00     27.82
 96.77    875.67     29.59
 96.87    798.27     28.25
 96.97    889.00     29.82
 97.07    894.04     29.90
 97.17   1026.00     32.03
 97.27   1068.90     32.69
 97.37   1120.00     33.47
 97.47   1279.00     35.76
 97.57   1281.65     35.80
 97.67   1288.00     35.89
 97.77   1360.00     36.88
 97.87   1468.00     38.31
 97.97   1472.00     38.37
 98.07   1481.38     38.49
 98.17   1422.00     37.71
 98.27   1384.85     37.21
 98.37   1363.00     36.92
 98.47   1285.66     35.86
 98.57   1292.00     35.94
 98.67   1169.00     34.19
 98.77   1083.69     32.92
 98.87   1065.00     32.63
 98.97   1046.00     32.34
 99.07    989.70     31.46
 99.17    937.00     30.61
 99.27    931.00     30.51
 99.37    906.00     30.10
 99.47    916.00     30.27
 99.57    954.10     30.89
 99.67    903.00     30.05
 99.77   1029.98     32.09
 99.87   1091.00     33.03
 99.97   1111.00     33.33
100.07   1174.00     34.26
100.17   1302.03     36.08
100.27   1401.14     37.43
100.37   1454.00     38.13
100.47   1593.00     39.91
100.57   1594.57     39.93
100.67   1715.00     41.41
100.77   1819.00     42.65
100.87   1874.00     43.29
100.97   1946.00     44.11
101.07   1963.00     44.31
101.17   2030.00     45.06
101.27   1980.00     44.50
101.37   1986.00     44.56
101.47   1978.00     44.47
101.57   1880.00     43.36
101.67   1862.00     43.15
101.77   1800.92     42.44
101.87   1737.00     41.68
101.97   1636.00     40.45
102.07   1582.00     39.77
102.17   1435.06     37.88
102.27   1425.00     37.75
102.37   1394.00     37.34
102.47   1335.00     36.54
102.57   1205.00     34.71
102.67   1235.47     35.15
102.77   1227.09     35.03
102.87   1271.39     35.66
102.97   1194.00     34.55
103.07   1156.00     34.00
103.17   1051.00     32.42
103.27   1063.00     32.60
103.37   1074.00     32.77
103.47   1044.00     32.31
103.57   1003.00     31.67
103.67    901.43     30.02
103.77    941.00     30.68
103.87    892.00     29.87
103.97    781.18     27.95
104.07    759.82     27.56
104.17    751.40     27.41
104.27    766.00     27.68
104.37    683.63     26.15
104.47    635.04     25.20
104.57    659.00     25.67
104.67    651.00     25.51
104.77    599.82     24.49
104.87    589.00     24.27
104.97    624.00     24.98
105.07    610.00     24.70
105.17    600.00     24.49
105.27    565.00     23.77
105.37    563.00     23.73
105.47    572.00     23.92
105.57    549.00     23.43
105.67    506.20     22.50
105.77    577.00     24.02
105.87    593.00     24.35
105.97    587.00     24.23
106.07    558.00     23.62
106.17    540.00     23.24
106.27    564.00     23.75
106.37    591.00     24.31
106.47    591.00     24.31
106.57    615.66     24.81
106.67    645.09     25.40
106.77    630.73     25.11
106.87    607.00     24.64
106.97    664.00     25.77
107.07    663.60     25.76
107.17    628.00     25.06
107.27    665.00     25.79
107.37    676.00     26.00
107.47    730.74     27.03
107.57    740.49     27.21
107.67    709.00     26.63
107.77    669.00     25.87
107.87    721.99     26.87
107.97    683.00     26.13
108.07    692.00     26.31
108.17    759.15     27.55
108.27    703.00     26.51
108.37    678.00     26.04
108.47    686.19     26.20
108.57    678.00     26.04
108.67    695.53     26.37
108.77    716.00     26.76
108.87    711.00     26.66
108.97    674.00     25.96
109.07    669.78     25.88
109.17    676.00     26.00
109.27    702.73     26.51
109.37    677.00     26.02
109.47    729.00     27.00
109.57    697.00     26.40
109.67    739.61     27.20
109.77    670.24     25.89
109.87    672.00     25.92
109.97    682.00     26.12
110.07    637.91     25.26
110.17    653.00     25.55
110.27    710.45     26.65
110.37    682.36     26.12
110.47    645.00     25.40
110.57    617.00     24.84
110.67    629.51     25.09
110.77    624.00     24.98
110.87    602.00     24.54
110.97    555.92     23.58
111.07    559.00     23.64
111.17    567.00     23.81
111.27    578.37     24.05
111.37    605.79     24.61
111.47    559.84     23.66
111.57    600.00     24.49
111.67    520.85     22.82
111.77    585.35     24.19
111.87    592.00     24.33
111.97    581.00     24.10
112.07    557.00     23.60
112.17    546.00     23.37
112.27    566.00     23.79
112.37    577.00     24.02
112.47    554.00     23.54
112.57    578.38     24.05
112.67    544.92     23.34
112.77    584.00     24.17
112.87    629.00     25.08
112.97    585.00     24.19
113.07    591.46     24.32
113.17    621.83     24.94
113.27    634.28     25.18
113.37    546.13     23.37
113.47    586.00     24.21
113.57    619.00     24.88
113.67    679.23     26.06
113.77    614.00     24.78
113.87    637.67     25.25
113.97    676.00     26.00
114.07    664.28     25.77
114.17    671.09     25.91
114.27    695.48     26.37
114.37    763.00     27.62
114.47    774.58     27.83
114.57    858.00     29.29
114.67    864.00     29.39
114.77    897.84     29.96
114.87   1010.92     31.79
114.97   1175.00     34.28
115.07   1289.00     35.90
115.17   1366.00     36.96
115.27   1503.73     38.78
115.37   1644.23     40.55
115.47   2017.00     44.91
115.57   2193.77     46.84
115.67   2458.00     49.58
115.77   2831.00     53.21
115.87   3086.00     55.55
115.97   3340.00     57.79
116.07   3789.00     61.55
116.17   3940.82     62.78
116.27   4273.92     65.38
116.37   4764.00     69.02
116.47   5198.00     72.10
116.57   5523.00     74.32
116.67   5863.17     76.57
116.77   6257.00     79.10
116.87   6567.46     81.04
116.97   6697.00     81.84
117.07   6744.00     82.12
117.17   6894.00     83.03
117.27   7059.12     84.02
117.37   7000.00     83.67
117.47   6739.50     82.09
117.57   6642.00     81.50
117.67   6464.00     80.40
117.77   6171.00     78.56
117.87   5777.44     76.01
117.97   5469.00     73.95
118.07   5111.00     71.49
118.17   4931.09     70.22
118.27   4489.00     67.00
118.37   4123.00     64.21
118.47   3957.00     62.90
118.57   3440.00     58.65
118.67   3268.67     57.17
118.77   2811.00     53.02
118.87   2605.00     51.04
118.97   2312.00     48.08
119.07   2028.00     45.03
119.17   1850.74     43.02
119.27   1639.00     40.48
119.37   1467.00     38.30
119.47   1368.59     36.99
119.57   1239.78     35.21
119.67   1144.00     33.82
119.77   1046.52     32.35
119.87   1058.29     32.53
119.97    993.00     31.51
120.07    953.74     30.88
120.17    913.84     30.23
120.27    864.13     29.40
120.37    764.00     27.64
120.47    726.74     26.96
120.57    753.00     27.44
120.67    668.00     25.85
120.77    704.31     26.54
120.87    723.81     26.90
120.97    610.25     24.70
121.07    609.00     24.68
121.17    636.00     25.22
121.27    629.00     25.08
121.37    662.00     25.73
121.47    584.00     24.17
121.57    660.57     25.70
121.67    593.00     24.35
121.77    594.00     24.37
121.87    647.38     25.44
121.97    654.05     25.57
122.07    646.00     25.42
122.17    625.00     25.00
122.27    582.00     24.12
122.37    611.00     24.72
122.47    626.21     25.02
122.57    602.00     24.54
122.67    593.00     24.35
122.77    670.34     25.89
122.87    651.00     25.51
122.97    613.00     24.76
123.07    638.38     25.27
123.17    675.00     25.98
123.27    655.00     25.59
123.37    652.00     25.53
123.47    597.48     24.44
123.57    679.00     26.06
123.67    708.00     26.61
123.77    623.00     24.96
123.87    638.00     25.26
123.97    663.00     25.75
124.07    665.00     25.79
124.17    645.00     25.40
124.27    632.00     25.14
124.37    641.00     25.32
124.47    572.81     23.93
124.57    612.00     24.74
124.67    637.00     25.24
124.77    570.00     23.87
124.87    576.69     24.01
124.97    686.00     26.19
