XYDATA



INTER 1.0 1.0 0 0
TEMP 1074.0
  9.97    605.14     24.60
 10.07    534.00     23.11
 10.17    573.00     23.94
 10.27    624.00     24.98
 10.37    608.00     24.66
 10.47    607.58     24.65
 10.57    629.00     25.08
 10.67    603.30     24.56
 10.77    592.00     24.33
 10.87    583.00     24.15
 10.97    549.77     23.45
 11.07    600.00     24.49
 11.17    559.63     23.66
 11.27    597.00     24.43
 11.37    585.00     24.19
 11.47    576.43     24.01
 11.57    605.00     24.60
 11.67    630.47     25.11
 11.77    622.00     24.94
 11.87    597.73     24.45
 11.97    670.00     25.88
 12.07    634.13     25.18
 12.17    678.00     26.04
 12.27    659.00     25.67
 12.37    629.00     25.08
 12.47    656.42     25.62
 12.57    558.57     23.63
 12.67    579.00     24.06
 12.77    626.87     25.04
 12.87    557.00     23.60
 12.97    579.00     24.06
 13.07    531.59     23.06
 13.17    551.00     23.47
 13.27    532.00     23.07
 13.37    589.00     24.27
 13.47    574.09     23.96
 13.57    579.00     24.06
 13.67    582.96     24.14
 13.77    558.37     23.63
 13.87    561.00     23.69
 13.97    520.00     22.80
 14.07    615.87     24.82
 14.17    583.00     24.15
 14.27    589.78     24.29
 14.37    565.00     23.77
 14.47    606.87     24.63
 14.57    550.07     23.45
 14.67    577.79     24.04
 14.77    535.00     23.13
 14.87    537.52     23.18
 14.97    534.00     23.11
 15.07    609.22     24.68
 15.17    559.00     23.64
 15.27    532.21     23.07
 15.37    550.00     23.45
 15.47    579.00     24.06
 15.57    572.00     23.92
 15.67    512.88     22.65
 15.77    569.63     23.87
 15.87    542.11     23.28
 15.97    539.00     23.22
 16.07    561.00     23.69
 16.17    508.00     22.54
 16.27    512.00     22.63
 16.37    559.00     23.64
 16.47    582.00     24.12
 16.57    549.00     23.43
 16.67    560.00     23.66
 16.77    563.98     23.75
 16.87    564.14     23.75
 16.97    568.23     23.84
 17.07    584.00     24.17
 17.17    545.00     23.35
 17.27    577.19     24.02
 17.37    549.00     23.43
 17.47    548.00     23.41
 17.57    565.00     23.77
 17.67    573.19     23.94
 17.77    534.00     23.11
 17.87    556.00     23.58
 17.97    584.00     24.17
 18.07    603.00     24.56
 18.17    561.00     23.69
 18.27    585.00     24.19
 18.37    594.36     24.38
 18.47    582.38     24.13
 18.57    533.00     23.09
 18.67    580.25     24.09
 18.77    552.00     23.49
 18.87    557.00     23.60
 18.97    540.00     23.24
 19.07    537.36     23.18
 19.17    597.58     24.45
 19.27    543.00     23.30
 19.37    550.76     23.47
 19.47    551.00     23.47
 19.57    532.00     23.07
 19.67    596.00     24.41
 19.77    561.90     23.70
 19.87    557.85     23.62
 19.97    506.97     22.52
 20.07    536.00     23.15
 20.17    528.00     22.98
 20.27    537.00     23.17
 20.37    508.00     22.54
 20.47    527.51     22.97
 20.57    591.00     24.31
 20.67    564.42     23.76
 20.77    583.08     24.15
 20.87    530.12     23.02
 20.97    521.00     22.83
 21.07    531.00     23.04
 21.17    528.00     22.98
 21.27    538.97     23.22
 21.37    565.00     23.77
 21.47    553.00     23.52
 21.57    595.94     24.41
 21.67    549.00     23.43
 21.77    512.00     22.63
 21.87    544.00     23.32
 21.97    567.74     23.83
 22.07    511.00     22.61
 22.17    560.21     23.67
 22.27    543.00     23.30
 22.37    562.35     23.71
 22.47    570.23     23.88
 22.57    568.00     23.83
 22.67    552.57     23.51
 22.77    496.55     22.28
 22.87    583.00     24.15
 22.97    566.00     23.79
 23.07    522.00     22.85
 23.17    540.00     23.24
 23.27    556.00     23.58
 23.37    530.71     23.04
 23.47    511.39     22.61
 23.57    536.16     23.16
 23.67    565.30     23.78
 23.77    545.00     23.35
 23.87    526.00     22.93
 23.97    546.32     23.37
 24.07    569.00     23.85
 24.17    528.00     22.98
 24.27    618.00     24.86
 24.37    516.79     22.73
 24.47    587.00     24.23
 24.57    576.11     24.00
 24.67    638.00     25.26
 24.77    626.45     25.03
 24.87    644.44     25.39
 24.97    656.00     25.61
 25.07    587.00     24.23
 25.17    562.00     23.71
 25.27    562.49     23.72
 25.37    532.20     23.07
 25.47    563.00     23.73
 25.57    535.00     23.13
 25.67    515.43     22.70
 25.77    542.24     23.29
 25.87    545.00     23.35
 25.97    551.00     23.47
 26.07    516.99     22.74
 26.17    539.33     23.22
 26.27    522.00     22.85
 26.37    552.00     23.49
 26.47    565.00     23.77
 26.57    553.00     23.52
 26.67    542.00     23.28
 26.77    545.89     23.36
 26.87    540.93     23.26
 26.97    565.00     23.77
 27.07    521.00     22.83
 27.17    511.00     22.61
 27.27    544.00     23.32
 27.37    542.00     23.28
 27.47    549.00     23.43
 27.57    582.78     24.14
 27.67    594.15     24.38
 27.77    593.00     24.35
 27.87    620.00     24.90
 27.97    663.00     25.75
 28.07    790.14     28.11
 28.17    857.00     29.27
 28.27    989.41     31.45
 28.37    970.00     31.14
 28.47    768.81     27.73
 28.57    688.00     26.23
 28.67    687.00     26.21
 28.77    778.00     27.89
 28.87    848.91     29.14
 28.97    757.00     27.51
 29.07    777.00     27.87
 29.17    721.00     26.85
 29.27    600.57     24.51
 29.37    586.00     24.21
 29.47    610.00     24.70
 29.57    564.00     23.75
 29.67    574.41     23.97
 29.77    544.50     23.33
 29.87    553.31     23.52
 29.97    518.25     22.76
 30.07    543.00     23.30
 30.17    532.00     23.07
 30.27    557.00     23.60
 30.37    567.00     23.81
 30.47    542.00     23.28
 30.57    548.00     23.41
 30.67    543.00     23.30
 30.77    577.00     24.02
 30.87    635.00     25.20
 30.97    669.00     25.87
 31.07    590.00     24.29
 31.17    591.00     24.31
 31.27    572.89     23.94
 31.37    544.00     23.32
 31.47    537.00     23.17
 31.57    533.15     23.09
 31.67    575.14     23.98
 31.77    553.00     23.52
 31.87    559.00     23.64
 31.97    565.16     23.77
 32.07    542.00     23.28
 32.17    506.00     22.49
 32.27    519.47     22.79
 32.37    516.48     22.73
 32.47    527.00     22.96
 32.57    501.09     22.39
 32.67    584.00     24.17
 32.77    542.00     23.28
 32.87    577.00     24.02
 32.97    522.00     22.85
 33.07    508.06     22.54
 33.17    594.00     24.37
 33.27    541.74     23.28
 33.37    560.00     23.66
 33.47    582.00     24.12
 33.57    605.00     24.60
 33.67    624.00     24.98
 33.77    753.00     27.44
 33.87    815.02     28.55
 33.97   1026.00     32.03
 34.07   1026.00     32.03
 34.17   1001.03     31.64
 34.27    867.23     29.45
 34.37    777.00     27.87
 34.47    648.00     25.46
 34.57    609.00     24.68
 34.67    597.76     24.45
 34.77    543.00     23.30
 34.87    506.71     22.51
 34.97    530.00     23.02
 35.07    563.00     23.73
 35.17    504.00     22.45
 35.27    537.00     23.17
 35.37    538.00     23.19
 35.47    517.00     22.74
 35.57    502.71     22.42
 35.67    527.00     22.96
 35.77    539.00     23.22
 35.87    505.00     22.47
 35.97    516.72     22.73
 36.07    496.79     22.29
 36.17    517.00     22.74
 36.27    494.99     22.25
 36.37    506.04     22.50
 36.47    488.00     22.09
 36.57    541.00     23.26
 36.67    536.00     23.15
 36.77    490.07     22.14
 36.87    491.38     22.17
 36.97    519.00     22.78
 37.07    524.55     22.90
 37.17    471.20     21.71
 37.27    494.00     22.23
 37.37    521.00     22.83
 37.47    496.00     22.27
 37.57    487.83     22.09
 37.67    481.00     21.93
 37.77    522.00     22.85
 37.87    545.00     23.35
 37.97    469.00     21.66
 38.07    535.16     23.13
 38.17    518.33     22.77
 38.27    495.85     22.27
 38.37    466.00     21.59
 38.47    492.00     22.18
 38.57    510.70     22.60
 38.67    480.00     21.91
 38.77    508.00     22.54
 38.87    553.00     23.52
 38.97    466.90     21.61
 39.07    506.00     22.49
 39.17    473.00     21.75
 39.27    491.00     22.16
 39.37    526.00     22.93
 39.47    518.36     22.77
 39.57    499.00     22.34
 39.67    552.24     23.50
 39.77    513.00     22.65
 39.87    465.00     21.56
 39.97    546.00     23.37
 40.07    490.67     22.15
 40.17    509.00     22.56
 40.27    510.00     22.58
 40.37    531.34     23.05
 40.47    544.47     23.33
 40.57    509.00     22.56
 40.67    504.75     22.47
 40.77    540.83     23.26
 40.87    546.20     23.37
 40.97    507.00     22.52
 41.07    487.00     22.07
 41.17    498.00     22.32
 41.27    486.00     22.05
 41.37    544.00     23.32
 41.47    512.00     22.63
 41.57    547.02     23.39
 41.67    496.00     22.27
 41.77    472.00     21.73
 41.87    470.00     21.68
 41.97    532.80     23.08
 42.07    495.17     22.25
 42.17    520.00     22.80
 42.27    493.76     22.22
 42.37    551.85     23.49
 42.47    595.00     24.39
 42.57    610.00     24.70
 42.67    653.92     25.57
 42.77    589.00     24.27
 42.87    588.00     24.25
 42.97    550.78     23.47
 43.07    552.00     23.49
 43.17    492.12     22.18
 43.27    477.39     21.85
 43.37    508.10     22.54
 43.47    492.00     22.18
 43.57    501.00     22.38
 43.67    499.10     22.34
 43.77    498.00     22.32
 43.87    537.06     23.17
 43.97    477.76     21.86
 44.07    504.00     22.45
 44.17    542.54     23.29
 44.27    471.95     21.72
 44.37    485.00     22.02
 44.47    523.56     22.88
 44.57    489.05     22.11
 44.67    527.00     22.96
 44.77    491.00     22.16
 44.87    505.24     22.48
 44.97    529.00     23.00
 45.07    538.40     23.20
 45.17    552.76     23.51
 45.27    535.00     23.13
 45.37    521.00     22.83
 45.47    485.00     22.02
 45.57    520.00     22.80
 45.67    469.29     21.66
 45.77    543.55     23.31
 45.87    477.85     21.86
 45.97    536.00     23.15
 46.07    498.00     22.32
 46.17    496.00     22.27
 46.27    495.00     22.25
 46.37    509.00     22.56
 46.47    500.00     22.36
 46.57    498.00     22.32
 46.67    511.00     22.61
 46.77    548.91     23.43
 46.87    520.20     22.81
 46.97    475.00     21.79
 47.07    512.99     22.65
 47.17    544.00     23.32
 47.27    549.00     23.43
 47.37    540.97     23.26
 47.47    541.24     23.26
 47.57    560.00     23.66
 47.67    602.47     24.55
 47.77    625.00     25.00
 47.87    606.00     24.62
 47.97    588.00     24.25
 48.07    583.17     24.15
 48.17    569.00     23.85
 48.27    581.00     24.10
 48.37    510.00     22.58
 48.47    519.00     22.78
 48.57    560.00     23.66
 48.67    527.98     22.98
 48.77    536.00     23.15
 48.87    512.55     22.64
 48.97    495.00     22.25
 49.07    533.00     23.09
 49.17    599.00     24.47
 49.27    601.59     24.53
 49.37    664.00     25.77
 49.47    692.00     26.31
 49.57    829.00     28.79
 49.67    954.00     30.89
 49.77   1069.29     32.70
 49.87   1450.10     38.08
 49.97   1847.00     42.98
 50.07   2270.00     47.64
 50.17   2598.00     50.97
 50.27   2475.00     49.75
 50.37   2325.00     48.22
 50.47   1868.00     43.22
 50.57   1462.96     38.25
 50.67   1104.95     33.24
 50.77    819.95     28.63
 50.87    712.44     26.69
 50.97    706.68     26.58
 51.07    635.00     25.20
 51.17    573.38     23.95
 51.27    637.00     25.24
 51.37    619.20     24.88
 51.47    525.94     22.93
 51.57    511.62     22.62
 51.67    568.00     23.83
 51.77    583.00     24.15
 51.87    568.00     23.83
 51.97    512.43     22.64
 52.07    527.46     22.97
 52.17    547.17     23.39
 52.27    578.50     24.05
 52.37    594.00     24.37
 52.47    559.45     23.65
 52.57    555.77     23.57
 52.67    538.28     23.20
 52.77    631.21     25.12
 52.87    658.00     25.65
 52.97    742.00     27.24
 53.07    805.00     28.37
 53.17    866.00     29.43
 53.27    990.00     31.46
 53.37   1177.00     34.31
 53.47   1193.00     34.54
 53.57   1168.00     34.18
 53.67   1174.33     34.27
 53.77   1006.48     31.73
 53.87    849.00     29.14
 53.97    725.41     26.93
 54.07    648.00     25.46
 54.17    649.00     25.48
 54.27    590.00     24.29
 54.37    573.00     23.94
 54.47    565.00     23.77
 54.57    561.00     23.69
 54.67    566.00     23.79
 54.77    532.00     23.07
 54.87    567.00     23.81
 54.97    546.00     23.37
 55.07    552.00     23.49
 55.17    575.00     23.98
 55.27    553.00     23.52
 55.37    517.67     22.75
 55.47    578.00     24.04
 55.57    569.00     23.85
 55.67    593.00     24.35
 55.77    577.00     24.02
 55.87    570.00     23.87
 55.97    601.00     24.52
 56.07    654.00     25.57
 56.17    708.00     26.61
 56.27    857.00     29.27
 56.37   1163.63     34.11
 56.47   1506.14     38.81
 56.57   1822.31     42.69
 56.67   2166.00     46.54
 56.77   2490.00     49.90
 56.87   2616.00     51.15
 56.97   2579.00     50.78
 57.07   2329.00     48.26
 57.17   2042.00     45.19
 57.27   1568.40     39.60
 57.37   1261.60     35.52
 57.47   1059.00     32.54
 57.57    840.94     29.00
 57.67    806.00     28.39
 57.77    745.00     27.29
 57.87    698.00     26.42
 57.97    674.00     25.96
 58.07    710.00     26.65
 58.17    706.00     26.57
 58.27    727.00     26.96
 58.37    878.97     29.65
 58.47    943.00     30.71
 58.57   1084.00     32.92
 58.67   1248.00     35.33
 58.77   1330.00     36.47
 58.87   1526.00     39.06
 58.97   1538.00     39.22
 59.07   1525.86     39.06
 59.17   1587.00     39.84
 59.27   1399.00     37.40
 59.37   1310.35     36.20
 59.47   1289.00     35.90
 59.57   1135.64     33.70
 59.67   1088.00     32.98
 59.77   1122.00     33.50
 59.87   1195.00     34.57
 59.97   1341.00     36.62
 60.07   1462.00     38.24
 60.17   1538.02     39.22
 60.27   1603.29     40.04
 60.37   1540.96     39.26
 60.47   1451.00     38.09
 60.57   1336.00     36.55
 60.67   1006.00     31.72
 60.77    847.83     29.12
 60.87    770.05     27.75
 60.97    690.00     26.27
 61.07    630.57     25.11
 61.17    629.00     25.08
 61.27    627.00     25.04
 61.37    639.49     25.29
 61.47    682.00     26.12
 61.57    749.00     27.37
 61.67    796.00     28.21
 61.77    901.00     30.02
 61.87   1120.04     33.47
 61.97   1256.78     35.45
 62.07   1339.92     36.60
 62.17   1459.41     38.20
 62.27   1383.00     37.19
 62.37   1298.00     36.03
 62.47   1151.49     33.93
 62.57   1036.00     32.19
 62.67    955.00     30.90
 62.77    767.00     27.69
 62.87    672.00     25.92
 62.97    643.00     25.36
 63.07    581.40     24.11
 63.17    596.00     24.41
 63.27    601.00     24.52
 63.37    581.98     24.12
 63.47    545.20     23.35
 63.57    584.00     24.17
 63.67    541.53     23.27
 63.77    616.00     24.82
 63.87    649.00     25.48
 63.97    663.34     25.76
 64.07    721.11     26.85
 64.17    767.00     27.69
 64.27    837.00     28.93
 64.37    947.88     30.79
 64.47   1023.96     32.00
 64.57    973.00     31.19
 64.67   1051.79     32.43
 64.77    984.00     31.37
 64.87    943.23     30.71
 64.97    923.00     30.38
 65.07    882.00     29.70
 65.17    810.00     28.46
 65.27    690.00     26.27
 65.37    737.04     27.15
 65.47    683.58     26.15
 65.57    581.63     24.12
 65.67    646.27     25.42
 65.77    588.00     24.25
 65.87    577.00     24.02
 65.97    576.79     24.02
 66.07    589.00     24.27
 66.17    551.00     23.47
 66.27    594.00     24.37
 66.37    597.00     24.43
 66.47    548.00     23.41
 66.57    553.90     23.54
 66.67    567.00     23.81
 66.77    566.00     23.79
 66.87    582.00     24.12
 66.97    560.00     23.66
 67.07    617.00     24.84
 67.17    652.00     25.53
 67.27    724.00     26.91
 67.37    868.00     29.46
 67.47   1057.00     32.51
 67.57   1287.00     35.87
 67.67   1554.74     39.43
 67.77   1847.00     42.98
 67.87   2075.00     45.55
 67.97   2347.37     48.45
 68.07   2448.00     49.48
 68.17   2425.26     49.25
 68.27   2287.00     47.82
 68.37   2106.00     45.89
 68.47   1836.00     42.85
 68.57   1537.00     39.20
 68.67   1278.52     35.76
 68.77   1065.02     32.63
 68.87    856.00     29.26
 68.97    782.92     27.98
 69.07    675.00     25.98
 69.17    643.00     25.36
 69.27    699.00     26.44
 69.37    679.00     26.06
 69.47    571.00     23.90
 69.57    625.00     25.00
 69.67    598.00     24.45
 69.77    590.17     24.29
 69.87    642.00     25.34
 69.97    519.25     22.79
 70.07    609.03     24.68
 70.17    564.00     23.75
 70.27    603.00     24.56
 70.37    571.00     23.90
 70.47    596.00     24.41
 70.57    562.00     23.71
 70.67    567.00     23.81
 70.77    605.00     24.60
 70.87    608.00     24.66
 70.97    623.00     24.96
 71.07    677.00     26.02
 71.17    760.27     27.57
 71.27    784.00     28.00
 71.37    955.00     30.90
 71.47   1010.00     31.78
 71.57   1184.00     34.41
 71.67   1404.00     37.47
 71.77   1592.00     39.90
 71.87   1704.72     41.29
 71.97   1927.00     43.90
 72.07   1909.00     43.69
 72.17   1917.87     43.79
 72.27   1733.00     41.63
 72.37   1669.00     40.85
 72.47   1504.00     38.78
 72.57   1364.00     36.93
 72.67   1153.00     33.96
 72.77   1051.25     32.42
 72.87    947.00     30.77
 72.97    871.03     29.51
 73.07    823.00     28.69
 73.17    845.96     29.09
 73.27    773.17     27.81
 73.37    750.69     27.40
 73.47    661.44     25.72
 73.57    632.26     25.14
 73.67    647.00     25.44
 73.77    582.00     24.12
 73.87    556.03     23.58
 73.97    644.00     25.38
 74.07    590.49     24.30
 74.17    597.00     24.43
 74.27    625.00     25.00
 74.37    568.00     23.83
 74.47    581.19     24.11
 74.57    684.00     26.15
 74.67    588.82     24.27
 74.77    541.62     23.27
 74.87    664.00     25.77
 74.97    606.00     24.62
 75.07    595.00     24.39
 75.17    660.00     25.69
 75.27    588.00     24.25
 75.37    572.00     23.92
 75.47    539.00     23.22
 75.57    574.00     23.96
 75.67    548.00     23.41
 75.77    591.00     24.31
 75.87    595.00     24.39
 75.97    627.00     25.04
 76.07    646.00     25.42
 76.17    665.15     25.79
 76.27    678.00     26.04
 76.37    620.00     24.90
 76.47    741.04     27.22
 76.57    692.00     26.31
 76.67    684.00     26.15
 76.77    715.57     26.75
 76.87    640.00     25.30
 76.97    652.00     25.53
 77.07    587.89     24.25
 77.17    575.00     23.98
 77.27    567.13     23.81
 77.37    576.00     24.00
 77.47    507.00     22.52
 77.57    565.00     23.77
 77.67    521.00     22.83
 77.77    501.00     22.38
 77.87    522.00     22.85
 77.97    501.00     22.38
 78.07    544.18     23.33
 78.17    565.00     23.77
 78.27    530.00     23.02
 78.37    531.00     23.04
 78.47    541.02     23.26
 78.57    503.67     22.44
 78.67    498.00     22.32
 78.77    545.10     23.35
 78.87    508.00     22.54
 78.97    576.04     24.00
 79.07    506.32     22.50
 79.17    540.00     23.24
 79.27    528.00     22.98
 79.37    512.00     22.63
 79.47    561.69     23.70
 79.57    539.51     23.23
 79.67    511.00     22.61
 79.77    547.00     23.39
 79.87    541.00     23.26
 79.97    531.82     23.06
 80.07    523.90     22.89
 80.17    555.00     23.56
 80.27    555.00     23.56
 80.37    541.00     23.26
 80.47    561.47     23.70
 80.57    619.28     24.89
 80.67    621.00     24.92
 80.77    680.75     26.09
 80.87    646.00     25.42
 80.97    671.00     25.90
 81.07    729.32     27.01
 81.17    699.00     26.44
 81.27    698.00     26.42
 81.37    747.00     27.33
 81.47    705.97     26.57
 81.57    714.00     26.72
 81.67    765.00     27.66
 81.77    785.00     28.02
 81.87    734.00     27.09
 81.97    720.77     26.85
 82.07    705.00     26.55
 82.17    673.00     25.94
 82.27    612.18     24.74
 82.37    639.00     25.28
 82.47    616.00     24.82
 82.57    582.00     24.12
 82.67    556.03     23.58
 82.77    531.66     23.06
 82.87    543.00     23.30
 82.97    551.03     23.47
 83.07    542.00     23.28
 83.17    553.91     23.54
 83.27    578.00     24.04
 83.37    588.00     24.25
 83.47    569.39     23.86
 83.57    521.43     22.83
 83.67    573.00     23.94
 83.77    575.00     23.98
 83.87    573.86     23.96
 83.97    567.00     23.81
 84.07    585.00     24.19
 84.17    570.61     23.89
 84.27    605.61     24.61
 84.37    546.60     23.38
 84.47    623.00     24.96
 84.57    541.51     23.27
 84.67    574.00     23.96
 84.77    526.00     22.93
 84.87    521.20     22.83
 84.97    558.00     23.62
 85.07    521.00     22.83
 85.17    536.00     23.15
 85.27    508.00     22.54
 85.37    498.00     22.32
 85.47    540.48     23.25
 85.57    544.00     23.32
 85.67    563.78     23.74
 85.77    546.00     23.37
 85.87    514.00     22.67
 85.97    513.00     22.65
 86.07    558.00     23.62
 86.17    525.00     22.91
 86.27    556.00     23.58
 86.37    496.91     22.29
 86.47    537.00     23.17
 86.57    572.00     23.92
 86.67    580.00     24.08
 86.77    568.31     23.84
 86.87    538.00     23.19
 86.97    606.00     24.62
 87.07    654.00     25.57
 87.17    628.00     25.06
 87.27    606.73     24.63
 87.37    652.15     25.54
 87.47    648.00     25.46
 87.57    674.00     25.96
 87.67    661.52     25.72
 87.77    622.00     24.94
 87.87    671.00     25.90
 87.97    628.97     25.08
 88.07    581.00     24.10
 88.17    593.00     24.35
 88.27    574.00     23.96
 88.37    554.04     23.54
 88.47    562.00     23.71
 88.57    603.00     24.56
 88.67    550.00     23.45
 88.77    585.00     24.19
 88.87    551.64     23.49
 88.97    610.00     24.70
 89.07    619.14     24.88
 89.17    547.43     23.40
 89.27    606.00     24.62
 89.37    615.00     24.80
 89.47    616.00     24.82
 89.57    577.00     24.02
 89.67    635.42     25.21
 89.77    549.00     23.43
 89.87    577.00     24.02
 89.97    541.89     23.28
 90.07    525.00     22.91
 90.17    558.00     23.62
 90.27    519.00     22.78
 90.37    527.00     22.96
 90.47    519.00     22.78
 90.57    529.00     23.00
 90.67    526.00     22.93
 90.77    529.80     23.02
 90.87    561.00     23.69
 90.97    541.00     23.26
 91.07    568.10     23.83
 91.17    500.00     22.36
 91.27    511.00     22.61
 91.37    484.00     22.00
 91.47    550.00     23.45
 91.57    553.00     23.52
 91.67    517.00     22.74
 91.77    525.00     22.91
 91.87    554.00     23.54
 91.97    552.00     23.49
 92.07    600.28     24.50
 92.17    607.65     24.65
 92.27    568.00     23.83
 92.37    639.02     25.28
 92.47    627.00     25.04
 92.57    620.81     24.92
 92.67    644.00     25.38
 92.77    636.00     25.22
 92.87    739.00     27.18
 92.97    812.00     28.50
 93.07    824.00     28.71
 93.17    781.24     27.95
 93.27    798.00     28.25
 93.37    844.62     29.06
 93.47    773.00     27.80
 93.57    795.76     28.21
 93.67    815.75     28.56
 93.77    786.00     28.04
 93.87    785.59     28.03
 93.97    814.67     28.54
 94.07    853.00     29.21
 94.17    809.22     28.45
 94.27    866.69     29.44
 94.37    916.29     30.27
 94.47    856.00     29.26
 94.57    878.00     29.63
 94.67    933.30     30.55
 94.77    907.00     30.12
 94.87    951.65     30.85
 94.97    860.46     29.33
 95.07    897.43     29.96
 95.17    861.00     29.34
 95.27    845.00     29.07
 95.37    820.32     28.64
 95.47    782.00     27.96
 95.57    831.00     28.83
 95.67    695.31     26.37
 95.77    666.00     25.81
 95.87    620.00     24.90
 95.97    687.00     26.21
 96.07    696.53     26.39
 96.17    675.00     25.98
 96.27    736.00     27.13
 96.37    768.00     27.71
 96.47    760.73     27.58
 96.57    859.00     29.31
 96.67    924.00     30.40
 96.77    982.00     31.34
 96.87   1040.00     32.25
 96.97   1131.00     33.63
 97.07   1182.00     34.38
 97.17   1254.00     35.41
 97.27   1324.00     36.39
 97.37   1359.00     36.86
 97.47   1352.87     36.78
 97.57   1406.00     37.50
 97.67   1452.00     38.11
 97.77   1418.17     37.66
 97.87   1332.00     36.50
 97.97   1322.00     36.36
 98.07   1271.32     35.66
 98.17   1139.00     33.75
 98.27   1132.84     33.66
 98.37   1034.00     32.16
 98.47    930.25     30.50
 98.57    907.00     30.12
 98.67    814.67     28.54
 98.77    833.57     28.87
 98.87    775.59     27.85
 98.97    843.34     29.04
 99.07    781.00     27.95
 99.17    842.00     29.02
 99.27    879.00     29.65
 99.37    925.14     30.42
 99.47   1004.00     31.69
 99.57   1034.00     32.16
 99.67   1177.00     34.31
 99.77   1290.97     35.93
 99.87   1369.00     37.00
 99.97   1530.00     39.12
100.07   1665.00     40.80
100.17   1763.42     41.99
100.27   1883.00     43.39
100.37   1985.83     44.56
100.47   2070.87     45.51
100.57   2125.11     46.10
100.67   2086.00     45.67
100.77   2142.00     46.28
100.87   2080.00     45.61
100.97   1932.51     43.96
101.07   1854.00     43.06
101.17   1887.00     43.44
101.27   1796.00     42.38
101.37   1656.43     40.70
101.47   1577.87     39.72
101.57   1535.03     39.18
101.67   1438.54     37.93
101.77   1405.34     37.49
101.87   1361.21     36.89
101.97   1218.00     34.90
102.07   1132.00     33.65
102.17   1109.00     33.30
102.27   1087.00     32.97
102.37   1143.00     33.81
102.47   1031.24     32.11
102.57   1044.00     32.31
102.67   1129.00     33.60
102.77   1050.00     32.40
102.87   1027.00     32.05
102.97    936.00     30.59
103.07    984.00     31.37
103.17    914.70     30.24
103.27    856.44     29.27
103.37    837.17     28.93
103.47    755.00     27.48
103.57    708.52     26.62
103.67    707.00     26.59
103.77    685.98     26.19
103.87    689.92     26.27
103.97    634.00     25.18
104.07    640.04     25.30
104.17    535.87     23.15
104.27    564.00     23.75
104.37    560.00     23.66
104.47    556.00     23.58
104.57    553.06     23.52
104.67    552.66     23.51
104.77    518.15     22.76
104.87    514.00     22.67
104.97    572.00     23.92
105.07    566.00     23.79
105.17    564.79     23.77
105.27    528.56     22.99
105.37    574.00     23.96
105.47    546.14     23.37
105.57    506.15     22.50
105.67    546.00     23.37
105.77    549.04     23.43
105.87    576.04     24.00
105.97    583.00     24.15
106.07    559.31     23.65
106.17    577.00     24.02
106.27    617.00     24.84
106.37    583.00     24.15
106.47    625.00     25.00
106.57    607.00     24.64
106.67    620.00     24.90
106.77    695.83     26.38
106.87    621.30     24.93
106.97    692.49     26.32
107.07    682.76     26.13
107.17    674.15     25.96
107.27    686.00     26.19
107.37    668.00     25.85
107.47    674.00     25.96
107.57    695.00     26.36
107.67    703.00     26.51
107.77    669.83     25.88
107.87    683.00     26.13
107.97    683.00     26.13
108.07    647.00     25.44
108.17    663.00     25.75
108.27    671.00     25.90
108.37    718.10     26.80
108.47    712.00     26.68
108.57    669.00     25.87
108.67    746.00     27.31
108.77    670.63     25.90
108.87    659.00     25.67
108.97    667.00     25.83
109.07    696.75     26.40
109.17    720.00     26.83
109.27    687.08     26.21
109.37    698.00     26.42
109.47    673.00     25.94
109.57    655.00     25.59
109.67    645.00     25.40
109.77    590.00     24.29
109.87    640.00     25.30
109.97    607.00     24.64
110.07    566.00     23.79
110.17    598.00     24.45
110.27    530.20     23.03
110.37    573.25     23.94
110.47    565.00     23.77
110.57    531.23     23.05
110.67    506.00     22.49
110.77    563.00     23.73
110.87    561.66     23.70
110.97    544.11     23.33
111.07    592.00     24.33
111.17    588.00     24.25
111.27    530.94     23.04
111.37    546.00     23.37
111.47    537.00     23.17
111.57    563.00     23.73
111.67    570.00     23.87
111.77    601.84     24.53
111.87    566.00     23.79
111.97    553.00     23.52
112.07    558.38     23.63
112.17    593.00     24.35
112.27    632.34     25.15
112.37    644.22     25.38
112.47    597.00     24.43
112.57    607.00     24.64
112.67    604.00     24.58
112.77    678.93     26.06
112.87    649.00     25.48
112.97    715.00     26.74
113.07    691.00     26.29
113.17    672.45     25.93
113.27    692.22     26.31
113.37    803.00     28.34
113.47    844.59     29.06
113.57    808.00     28.43
113.67    897.99     29.97
113.77    866.00     29.43
113.87    926.01     30.43
113.97    985.00     31.38
114.07   1049.00     32.39
114.17   1068.00     32.68
114.27   1201.00     34.66
114.37   1279.00     35.76
114.47   1342.00     36.63
114.57   1436.78     37.90
114.67   1525.40     39.06
114.77   1627.72     40.34
114.87   2044.00     45.21
114.97   2103.00     45.86
115.07   2220.78     47.13
115.17   2468.00     49.68
115.27   2758.60     52.52
115.37   3187.00     56.45
115.47   3562.59     59.69
115.57   3743.00     61.18
115.67   4192.00     64.75
115.77   4443.51     66.66
115.87   4645.00     68.15
115.97   5249.00     72.45
116.07   5478.00     74.01
116.17   6020.28     77.59
116.27   6399.00     79.99
116.37   6615.00     81.33
116.47   6886.00     82.98
116.57   6973.00     83.50
116.67   7128.00     84.43
116.77   7052.00     83.98
116.87   6790.98     82.41
116.97   6818.00     82.57
117.07   6409.00     80.06
117.17   6257.23     79.10
117.27   5581.00     74.71
117.37   5590.54     74.77
117.47   5094.00     71.37
117.57   4554.57     67.49
117.67   4372.00     66.12
117.77   3805.48     61.69
117.87   3688.00     60.73
117.97   3322.00     57.64
118.07   2860.71     53.49
118.17   2402.89     49.02
118.27   2281.09     47.76
118.37   1930.19     43.93
118.47   1759.33     41.94
118.57   1556.00     39.45
118.67   1456.00     38.16
118.77   1286.68     35.87
118.87   1117.00     33.42
118.97   1012.00     31.81
119.07    993.43     31.52
119.17    943.00     30.71
119.27    807.00     28.41
119.37    767.25     27.70
119.47    695.00     26.36
119.57    701.00     26.48
119.67    721.00     26.85
119.77    665.00     25.79
119.87    623.00     24.96
119.97    625.43     25.01
120.07    642.00     25.34
120.17    630.62     25.11
120.27    587.00     24.23
120.37    627.73     25.05
120.47    577.00     24.02
120.57    558.00     23.62
120.67    587.00     24.23
120.77    544.22     23.33
120.87    543.00     23.30
120.97    548.68     23.42
121.07    596.00     24.41
121.17    563.00     23.73
121.27    547.20     23.39
121.37    599.25     24.48
121.47    570.19     23.88
121.57    607.60     24.65
121.67    572.93     23.94
121.77    610.33     24.70
121.87    560.45     23.67
121.97    617.00     24.84
122.07    603.00     24.56
122.17    601.00     24.52
122.27    619.00     24.88
122.37    600.00     24.49
122.47    615.00     24.80
122.57    675.78     26.00
122.67    598.09     24.46
122.77    686.00     26.19
122.87    688.19     26.23
122.97    602.86     24.55
123.07    635.00     25.20
123.17    663.46     25.76
123.27    647.00     25.44
123.37    685.49     26.18
123.47    652.78     25.55
123.57    597.12     24.44
123.67    650.00     25.50
123.77    623.45     24.97
123.87    620.00     24.90
123.97    613.92     24.78
124.07    626.00     25.02
124.17    588.64     24.26
124.27    635.00     25.20
124.37    599.00     24.47
124.47    615.00     24.80
124.57    598.20     24.46
124.67    611.47     24.73
124.77    629.53     25.09
124.87    574.04     23.96
124.97    546.48     23.38
