XYDATA



INTER 1.0 1.0 0 0
TEMP 987.857
  9.97    652.00     25.53
 10.07    557.20     23.61
 10.17    614.00     24.78
 10.27    606.00     24.62
 10.37    580.00     24.08
 10.47    577.25     24.03
 10.57    617.00     24.84
 10.67    604.00     24.58
 10.77    603.00     24.56
 10.87    589.00     24.27
 10.97    530.00     23.02
 11.07    547.61     23.40
 11.17    538.86     23.21
 11.27    567.00     23.81
 11.37    598.00     24.45
 11.47    620.00     24.90
 11.57    636.00     25.22
 11.67    583.18     24.15
 11.77    587.41     24.24
 11.87    594.74     24.39
 11.97    638.00     25.26
 12.07    672.00     25.92
 12.17    661.35     25.72
 12.27    696.00     26.38
 12.37    668.00     25.85
 12.47    693.05     26.33
 12.57    608.00     24.66
 12.67    549.37     23.44
 12.77    602.00     24.54
 12.87    559.00     23.64
 12.97    553.00     23.52
 13.07    593.00     24.35
 13.17    560.00     23.66
 13.27    536.40     23.16
 13.37    548.00     23.41
 13.47    574.00     23.96
 13.57    595.55     24.40
 13.67    619.34     24.89
 13.77    549.00     23.43
 13.87    543.00     23.30
 13.97    608.00     24.66
 14.07    544.00     23.32
 14.17    558.00     23.62
 14.27    543.00     23.30
 14.37    535.00     23.13
 14.47    555.00     23.56
 14.57    562.00     23.71
 14.67    550.00     23.45
 14.77    543.20     23.31
 14.87    587.96     24.25
 14.97    559.00     23.64
 15.07    540.00     23.24
 15.17    560.00     23.66
 15.27    501.00     22.38
 15.37    571.00     23.90
 15.47    557.23     23.61
 15.57    530.00     23.02
 15.67    555.00     23.56
 15.77    607.00     24.64
 15.87    585.30     24.19
 15.97    532.02     23.07
 16.07    553.00     23.52
 16.17    531.00     23.04
 16.27    510.00     22.58
 16.37    546.00     23.37
 16.47    520.93     22.82
 16.57    548.00     23.41
 16.67    560.00     23.66
 16.77    583.00     24.15
 16.87    593.80     24.37
 16.97    557.00     23.60
 17.07    585.00     24.19
 17.17    552.00     23.49
 17.27    528.55     22.99
 17.37    539.38     23.22
 17.47    555.00     23.56
 17.57    535.46     23.14
 17.67    556.00     23.58
 17.77    559.76     23.66
 17.87    550.00     23.45
 17.97    592.00     24.33
 18.07    559.18     23.65
 18.17    519.00     22.78
 18.27    586.00     24.21
 18.37    536.03     23.15
 18.47    516.28     22.72
 18.57    598.14     24.46
 18.67    589.17     24.27
 18.77    545.03     23.35
 18.87    587.19     24.23
 18.97    607.00     24.64
 19.07    538.81     23.21
 19.17    562.00     23.71
 19.27    577.00     24.02
 19.37    595.00     24.39
 19.47    552.00     23.49
 19.57    540.00     23.24
 19.67    588.74     24.26
 19.77    545.00     23.35
 19.87    570.00     23.87
 19.97    539.11     23.22
 20.07    512.34     22.63
 20.17    568.00     23.83
 20.27    558.00     23.62
 20.37    543.00     23.30
 20.47    546.59     23.38
 20.57    561.00     23.69
 20.67    554.66     23.55
 20.77    577.44     24.03
 20.87    536.00     23.15
 20.97    600.19     24.50
 21.07    585.61     24.20
 21.17    560.00     23.66
 21.27    522.44     22.86
 21.37    580.90     24.10
 21.47    569.00     23.85
 21.57    551.00     23.47
 21.67    556.00     23.58
 21.77    577.00     24.02
 21.87    521.00     22.83
 21.97    552.85     23.51
 22.07    574.87     23.98
 22.17    516.87     22.73
 22.27    550.00     23.45
 22.37    598.80     24.47
 22.47    564.00     23.75
 22.57    565.37     23.78
 22.67    578.00     24.04
 22.77    541.00     23.26
 22.87    581.22     24.11
 22.97    539.00     23.22
 23.07    531.91     23.06
 23.17    517.91     22.76
 23.27    567.00     23.81
 23.37    524.08     22.89
 23.47    581.17     24.11
 23.57    598.00     24.45
 23.67    543.87     23.32
 23.77    587.00     24.23
 23.87    505.62     22.49
 23.97    542.18     23.28
 24.07    536.00     23.15
 24.17    590.00     24.29
 24.27    559.59     23.66
 24.37    597.00     24.43
 24.47    578.84     24.06
 24.57    602.13     24.54
 24.67    648.00     25.46
 24.77    677.38     26.03
 24.87    629.70     25.09
 24.97    631.00     25.12
 25.07    574.13     23.96
 25.17    569.00     23.85
 25.27    569.90     23.87
 25.37    560.00     23.66
 25.47    569.00     23.85
 25.57    562.00     23.71
 25.67    537.06     23.17
 25.77    581.54     24.12
 25.87    583.00     24.15
 25.97    540.11     23.24
 26.07    551.00     23.47
 26.17    505.00     22.47
 26.27    543.00     23.30
 26.37    546.00     23.37
 26.47    562.00     23.71
 26.57    612.00     24.74
 26.67    548.50     23.42
 26.77    559.00     23.64
 26.87    540.00     23.24
 26.97    576.00     24.00
 27.07    533.00     23.09
 27.17    508.09     22.54
 27.27    542.41     23.29
 27.37    586.76     24.22
 27.47    589.00     24.27
 27.57    550.59     23.46
 27.67    583.63     24.16
 27.77    524.00     22.89
 27.87    645.00     25.40
 27.97    677.00     26.02
 28.07    776.59     27.87
 28.17    910.00     30.17
 28.27    937.00     30.61
 28.37    991.00     31.48
 28.47    835.00     28.90
 28.57    684.44     26.16
 28.67    691.93     26.30
 28.77    728.00     26.98
 28.87    842.44     29.02
 28.97    867.00     29.44
 29.07    803.03     28.34
 29.17    690.89     26.28
 29.27    669.27     25.87
 29.37    602.00     24.54
 29.47    651.00     25.51
 29.57    598.00     24.45
 29.67    607.00     24.64
 29.77    547.97     23.41
 29.87    552.68     23.51
 29.97    537.63     23.19
 30.07    554.00     23.54
 30.17    526.62     22.95
 30.27    567.77     23.83
 30.37    576.00     24.00
 30.47    560.85     23.68
 30.57    575.00     23.98
 30.67    556.00     23.58
 30.77    626.08     25.02
 30.87    614.00     24.78
 30.97    603.00     24.56
 31.07    619.00     24.88
 31.17    586.00     24.21
 31.27    596.82     24.43
 31.37    552.03     23.50
 31.47    511.00     22.61
 31.57    571.00     23.90
 31.67    529.00     23.00
 31.77    529.00     23.00
 31.87    525.00     22.91
 31.97    553.00     23.52
 32.07    517.00     22.74
 32.17    575.00     23.98
 32.27    563.00     23.73
 32.37    568.00     23.83
 32.47    551.00     23.47
 32.57    578.00     24.04
 32.67    559.00     23.64
 32.77    483.31     21.98
 32.87    506.95     22.52
 32.97    518.00     22.76
 33.07    527.00     22.96
 33.17    556.74     23.60
 33.27    575.73     23.99
 33.37    530.00     23.02
 33.47    551.61     23.49
 33.57    586.00     24.21
 33.67    628.00     25.06
 33.77    767.00     27.69
 33.87    861.00     29.34
 33.97    926.75     30.44
 34.07   1046.00     32.34
 34.17   1093.66     33.07
 34.27    930.00     30.50
 34.37    791.00     28.12
 34.47    648.60     25.47
 34.57    593.00     24.35
 34.67    563.00     23.73
 34.77    548.00     23.41
 34.87    557.00     23.60
 34.97    525.00     22.91
 35.07    547.00     23.39
 35.17    571.03     23.90
 35.27    556.00     23.58
 35.37    502.00     22.41
 35.47    545.00     23.35
 35.57    507.00     22.52
 35.67    527.39     22.96
 35.77    492.00     22.18
 35.87    526.58     22.95
 35.97    549.34     23.44
 36.07    516.00     22.72
 36.17    511.00     22.61
 36.27    491.00     22.16
 36.37    503.00     22.43
 36.47    558.32     23.63
 36.57    473.26     21.75
 36.67    491.00     22.16
 36.77    494.00     22.23
 36.87    512.00     22.63
 36.97    489.32     22.12
 37.07    513.00     22.65
 37.17    513.00     22.65
 37.27    494.32     22.23
 37.37    511.03     22.61
 37.47    476.00     21.82
 37.57    544.09     23.33
 37.67    540.00     23.24
 37.77    512.00     22.63
 37.87    497.00     22.29
 37.97    490.74     22.15
 38.07    478.00     21.86
 38.17    489.00     22.11
 38.27    534.00     23.11
 38.37    507.00     22.52
 38.47    489.00     22.11
 38.57    541.07     23.26
 38.67    525.00     22.91
 38.77    491.00     22.16
 38.87    489.00     22.11
 38.97    466.85     21.61
 39.07    465.00     21.56
 39.17    507.36     22.52
 39.27    525.25     22.92
 39.37    504.00     22.45
 39.47    474.00     21.77
 39.57    474.10     21.77
 39.67    520.00     22.80
 39.77    487.00     22.07
 39.87    507.00     22.52
 39.97    518.92     22.78
 40.07    498.00     22.32
 40.17    499.00     22.34
 40.27    537.57     23.19
 40.37    439.00     20.95
 40.47    514.00     22.67
 40.57    489.00     22.11
 40.67    546.33     23.37
 40.77    484.00     22.00
 40.87    505.00     22.47
 40.97    544.70     23.34
 41.07    511.00     22.61
 41.17    504.00     22.45
 41.27    544.87     23.34
 41.37    489.00     22.11
 41.47    469.00     21.66
 41.57    466.00     21.59
 41.67    501.56     22.40
 41.77    471.08     21.70
 41.87    512.78     22.64
 41.97    497.00     22.29
 42.07    518.00     22.76
 42.17    531.00     23.04
 42.27    534.00     23.11
 42.37    565.18     23.77
 42.47    550.00     23.45
 42.57    548.85     23.43
 42.67    600.00     24.49
 42.77    643.40     25.37
 42.87    575.00     23.98
 42.97    536.00     23.15
 43.07    550.88     23.47
 43.17    502.00     22.41
 43.27    499.57     22.35
 43.37    467.06     21.61
 43.47    510.00     22.58
 43.57    523.22     22.87
 43.67    543.52     23.31
 43.77    513.00     22.65
 43.87    486.50     22.06
 43.97    492.96     22.20
 44.07    462.20     21.50
 44.17    463.40     21.53
 44.27    539.00     23.22
 44.37    490.00     22.14
 44.47    469.00     21.66
 44.57    474.48     21.78
 44.67    486.00     22.05
 44.77    540.00     23.24
 44.87    501.05     22.38
 44.97    468.00     21.63
 45.07    467.56     21.62
 45.17    524.28     22.90
 45.27    507.00     22.52
 45.37    519.00     22.78
 45.47    513.58     22.66
 45.57    505.80     22.49
 45.67    485.00     22.02
 45.77    533.00     23.09
 45.87    541.00     23.26
 45.97    484.00     22.00
 46.07    521.98     22.85
 46.17    514.45     22.68
 46.27    489.00     22.11
 46.37    473.00     21.75
 46.47    533.00     23.09
 46.57    520.05     22.80
 46.67    523.35     22.88
 46.77    514.00     22.67
 46.87    507.00     22.52
 46.97    469.30     21.66
 47.07    489.00     22.11
 47.17    513.00     22.65
 47.27    514.00     22.67
 47.37    537.00     23.17
 47.47    534.00     23.11
 47.57    567.54     23.82
 47.67    567.49     23.82
 47.77    589.00     24.27
 47.87    567.58     23.82
 47.97    592.00     24.33
 48.07    593.71     24.37
 48.17    536.00     23.15
 48.27    548.00     23.41
 48.37    509.00     22.56
 48.47    502.00     22.41
 48.57    495.74     22.27
 48.67    551.00     23.47
 48.77    580.80     24.10
 48.87    545.00     23.35
 48.97    509.15     22.56
 49.07    542.75     23.30
 49.17    598.26     24.46
 49.27    600.00     24.49
 49.37    684.44     26.16
 49.47    686.00     26.19
 49.57    792.00     28.14
 49.67    907.00     30.12
 49.77   1078.00     32.83
 49.87   1383.00     37.19
 49.97   1694.00     41.16
 50.07   2213.88     47.05
 50.17   2404.31     49.03
 50.27   2615.00     51.14
 50.37   2373.00     48.71
 50.47   2068.00     45.48
 50.57   1660.16     40.75
 50.67   1139.00     33.75
 50.77    980.09     31.31
 50.87    719.00     26.81
 50.97    703.00     26.51
 51.07    604.36     24.58
 51.17    661.95     25.73
 51.27    564.00     23.75
 51.37    597.00     24.43
 51.47    619.62     24.89
 51.57    585.00     24.19
 51.67    580.00     24.08
 51.77    587.00     24.23
 51.87    574.39     23.97
 51.97    509.35     22.57
 52.07    552.04     23.50
 52.17    522.63     22.86
 52.27    550.00     23.45
 52.37    616.00     24.82
 52.47    556.00     23.58
 52.57    593.00     24.35
 52.67    491.00     22.16
 52.77    579.00     24.06
 52.87    591.21     24.31
 52.97    686.00     26.19
 53.07    772.00     27.78
 53.17    861.00     29.34
 53.27   1007.00     31.73
 53.37   1038.24     32.22
 53.47   1205.00     34.71
 53.57   1186.00     34.44
 53.67   1146.13     33.85
 53.77    991.00     31.48
 53.87    914.68     30.24
 53.97    813.00     28.51
 54.07    712.26     26.69
 54.17    658.82     25.67
 54.27    612.39     24.75
 54.37    567.00     23.81
 54.47    561.00     23.69
 54.57    569.00     23.85
 54.67    567.56     23.82
 54.77    532.00     23.07
 54.87    505.18     22.48
 54.97    572.00     23.92
 55.07    566.00     23.79
 55.17    522.17     22.85
 55.27    598.00     24.45
 55.37    584.00     24.17
 55.47    544.00     23.32
 55.57    534.97     23.13
 55.67    576.00     24.00
 55.77    542.00     23.28
 55.87    646.00     25.42
 55.97    622.00     24.94
 56.07    642.45     25.35
 56.17    640.00     25.30
 56.27    828.00     28.77
 56.37    973.00     31.19
 56.47   1296.49     36.01
 56.57   1666.96     40.83
 56.67   2043.00     45.20
 56.77   2300.00     47.96
 56.87   2552.00     50.52
 56.97   2648.00     51.46
 57.07   2577.62     50.77
 57.17   2174.86     46.64
 57.27   1919.00     43.81
 57.37   1394.04     37.34
 57.47   1191.00     34.51
 57.57    948.00     30.79
 57.67    739.29     27.19
 57.77    734.00     27.09
 57.87    728.00     26.98
 57.97    647.00     25.44
 58.07    662.00     25.73
 58.17    690.40     26.28
 58.27    747.00     27.33
 58.37    779.00     27.91
 58.47    989.47     31.46
 58.57   1029.24     32.08
 58.67   1208.00     34.76
 58.77   1280.66     35.79
 58.87   1453.00     38.12
 58.97   1596.00     39.95
 59.07   1650.70     40.63
 59.17   1577.00     39.71
 59.27   1436.82     37.91
 59.37   1424.00     37.74
 59.47   1287.00     35.87
 59.57   1185.00     34.42
 59.67   1157.19     34.02
 59.77   1135.00     33.69
 59.87   1197.00     34.60
 59.97   1271.00     35.65
 60.07   1409.00     37.54
 60.17   1536.00     39.19
 60.27   1642.00     40.52
 60.37   1622.00     40.27
 60.47   1510.00     38.86
 60.57   1324.00     36.39
 60.67   1127.54     33.58
 60.77    942.35     30.70
 60.87    839.43     28.97
 60.97    704.00     26.53
 61.07    666.52     25.82
 61.17    678.00     26.04
 61.27    670.00     25.88
 61.37    638.00     25.26
 61.47    674.74     25.98
 61.57    666.00     25.81
 61.67    743.00     27.26
 61.77    929.00     30.48
 61.87   1012.44     31.82
 61.97   1258.85     35.48
 62.07   1262.00     35.52
 62.17   1417.00     37.64
 62.27   1362.00     36.91
 62.37   1353.54     36.79
 62.47   1299.00     36.04
 62.57   1135.00     33.69
 62.67   1015.00     31.86
 62.77    885.56     29.76
 62.87    714.18     26.72
 62.97    639.00     25.28
 63.07    653.28     25.56
 63.17    612.00     24.74
 63.27    600.00     24.49
 63.37    542.96     23.30
 63.47    579.00     24.06
 63.57    587.00     24.23
 63.67    624.00     24.98
 63.77    599.00     24.47
 63.87    601.00     24.52
 63.97    627.00     25.04
 64.07    661.73     25.72
 64.17    786.00     28.04
 64.27    725.88     26.94
 64.37    825.00     28.72
 64.47    893.00     29.88
 64.57    983.00     31.35
 64.67   1016.89     31.89
 64.77   1046.00     32.34
 64.87    933.11     30.55
 64.97    952.00     30.85
 65.07    857.77     29.29
 65.17    829.00     28.79
 65.27    726.00     26.94
 65.37    708.00     26.61
 65.47    656.00     25.61
 65.57    625.00     25.00
 65.67    610.00     24.70
 65.77    556.00     23.58
 65.87    571.00     23.90
 65.97    613.40     24.77
 66.07    570.00     23.87
 66.17    520.27     22.81
 66.27    581.00     24.10
 66.37    495.00     22.25
 66.47    518.34     22.77
 66.57    525.00     22.91
 66.67    607.37     24.64
 66.77    609.00     24.68
 66.87    542.00     23.28
 66.97    589.07     24.27
 67.07    623.00     24.96
 67.17    685.00     26.17
 67.27    749.00     27.37
 67.37    826.00     28.74
 67.47    914.43     30.24
 67.57   1155.00     33.99
 67.67   1359.00     36.86
 67.77   1616.00     40.20
 67.87   2002.22     44.75
 67.97   2164.53     46.52
 68.07   2404.00     49.03
 68.17   2469.75     49.70
 68.27   2377.00     48.75
 68.37   2212.00     47.03
 68.47   2072.00     45.52
 68.57   1603.00     40.04
 68.67   1415.47     37.62
 68.77   1161.00     34.07
 68.87    898.00     29.97
 68.97    869.00     29.48
 69.07    702.00     26.50
 69.17    615.39     24.81
 69.27    672.00     25.92
 69.37    571.00     23.90
 69.47    610.00     24.70
 69.57    551.00     23.47
 69.67    584.91     24.18
 69.77    615.00     24.80
 69.87    606.00     24.62
 69.97    556.00     23.58
 70.07    511.80     22.62
 70.17    509.00     22.56
 70.27    536.11     23.15
 70.37    573.00     23.94
 70.47    571.00     23.90
 70.57    586.00     24.21
 70.67    544.00     23.32
 70.77    561.00     23.69
 70.87    578.00     24.04
 70.97    629.96     25.10
 71.07    595.00     24.39
 71.17    687.00     26.21
 71.27    705.00     26.55
 71.37    859.00     29.31
 71.47    993.00     31.51
 71.57   1154.29     33.97
 71.67   1356.00     36.82
 71.77   1503.00     38.77
 71.87   1635.00     40.44
 71.97   1815.00     42.60
 72.07   1904.06     43.64
 72.17   1926.00     43.89
 72.27   1871.00     43.26
 72.37   1784.00     42.24
 72.47   1642.00     40.52
 72.57   1492.00     38.63
 72.67   1286.00     35.86
 72.77   1125.00     33.54
 72.87    968.00     31.11
 72.97    942.00     30.69
 73.07    865.00     29.41
 73.17    859.22     29.31
 73.27    733.00     27.07
 73.37    677.00     26.02
 73.47    729.92     27.02
 73.57    636.00     25.22
 73.67    627.00     25.04
 73.77    624.14     24.98
 73.87    607.00     24.64
 73.97    613.00     24.76
 74.07    578.00     24.04
 74.17    554.25     23.54
 74.27    572.00     23.92
 74.37    611.84     24.74
 74.47    574.91     23.98
 74.57    654.00     25.57
 74.67    534.77     23.13
 74.77    620.00     24.90
 74.87    620.00     24.90
 74.97    665.00     25.79
 75.07    589.00     24.27
 75.17    520.33     22.81
 75.27    547.02     23.39
 75.37    537.00     23.17
 75.47    593.00     24.35
 75.57    527.15     22.96
 75.67    595.43     24.40
 75.77    555.36     23.57
 75.87    582.73     24.14
 75.97    591.00     24.31
 76.07    633.79     25.18
 76.17    602.30     24.54
 76.27    615.00     24.80
 76.37    704.00     26.53
 76.47    703.00     26.51
 76.57    742.67     27.25
 76.67    642.00     25.34
 76.77    658.77     25.67
 76.87    670.00     25.88
 76.97    701.47     26.49
 77.07    660.00     25.69
 77.17    649.26     25.48
 77.27    606.32     24.62
 77.37    557.00     23.60
 77.47    544.00     23.32
 77.57    548.08     23.41
 77.67    522.00     22.85
 77.77    547.00     23.39
 77.87    577.00     24.02
 77.97    528.00     22.98
 78.07    492.00     22.18
 78.17    537.00     23.17
 78.27    566.00     23.79
 78.37    521.00     22.83
 78.47    506.88     22.51
 78.57    528.00     22.98
 78.67    530.00     23.02
 78.77    558.00     23.62
 78.87    552.00     23.49
 78.97    555.00     23.56
 79.07    506.00     22.49
 79.17    559.93     23.66
 79.27    545.75     23.36
 79.37    513.00     22.65
 79.47    530.00     23.02
 79.57    506.00     22.49
 79.67    535.96     23.15
 79.77    497.00     22.29
 79.87    548.00     23.41
 79.97    524.00     22.89
 80.07    533.00     23.09
 80.17    517.00     22.74
 80.27    549.00     23.43
 80.37    593.10     24.35
 80.47    586.12     24.21
 80.57    586.09     24.21
 80.67    582.07     24.13
 80.77    627.00     25.04
 80.87    629.00     25.08
 80.97    663.00     25.75
 81.07    690.00     26.27
 81.17    726.00     26.94
 81.27    672.03     25.92
 81.37    771.00     27.77
 81.47    760.00     27.57
 81.57    704.77     26.55
 81.67    723.00     26.89
 81.77    739.00     27.18
 81.87    689.18     26.25
 81.97    680.00     26.08
 82.07    729.00     27.00
 82.17    642.28     25.34
 82.27    688.50     26.24
 82.37    607.00     24.64
 82.47    598.63     24.47
 82.57    621.90     24.94
 82.67    551.00     23.47
 82.77    567.00     23.81
 82.87    557.00     23.60
 82.97    521.75     22.84
 83.07    567.00     23.81
 83.17    517.11     22.74
 83.27    563.73     23.74
 83.37    523.59     22.88
 83.47    535.00     23.13
 83.57    548.00     23.41
 83.67    546.00     23.37
 83.77    536.00     23.15
 83.87    514.00     22.67
 83.97    561.00     23.69
 84.07    610.13     24.70
 84.17    563.00     23.73
 84.27    602.53     24.55
 84.37    537.29     23.18
 84.47    554.00     23.54
 84.57    519.00     22.78
 84.67    550.00     23.45
 84.77    542.00     23.28
 84.87    560.68     23.68
 84.97    526.64     22.95
 85.07    549.84     23.45
 85.17    561.58     23.70
 85.27    511.00     22.61
 85.37    530.75     23.04
 85.47    528.88     23.00
 85.57    522.00     22.85
 85.67    522.00     22.85
 85.77    518.00     22.76
 85.87    545.00     23.35
 85.97    481.00     21.93
 86.07    502.00     22.41
 86.17    497.00     22.29
 86.27    552.87     23.51
 86.37    508.00     22.54
 86.47    560.00     23.66
 86.57    545.00     23.35
 86.67    562.00     23.71
 86.77    594.00     24.37
 86.87    598.43     24.46
 86.97    633.00     25.16
 87.07    591.00     24.31
 87.17    646.00     25.42
 87.27    672.00     25.92
 87.37    664.89     25.79
 87.47    626.52     25.03
 87.57    634.00     25.18
 87.67    698.00     26.42
 87.77    668.00     25.85
 87.87    649.77     25.49
 87.97    600.00     24.49
 88.07    589.00     24.27
 88.17    560.82     23.68
 88.27    535.10     23.13
 88.37    587.00     24.23
 88.47    534.00     23.11
 88.57    528.08     22.98
 88.67    564.00     23.75
 88.77    581.00     24.10
 88.87    612.75     24.75
 88.97    612.63     24.75
 89.07    543.49     23.31
 89.17    625.96     25.02
 89.27    608.00     24.66
 89.37    585.00     24.19
 89.47    577.00     24.02
 89.57    571.00     23.90
 89.67    583.88     24.16
 89.77    538.30     23.20
 89.87    549.00     23.43
 89.97    606.84     24.63
 90.07    580.01     24.08
 90.17    598.52     24.46
 90.27    536.00     23.15
 90.37    548.00     23.41
 90.47    517.00     22.74
 90.57    502.28     22.41
 90.67    504.80     22.47
 90.77    546.90     23.39
 90.87    565.00     23.77
 90.97    496.00     22.27
 91.07    556.75     23.60
 91.17    576.00     24.00
 91.27    487.96     22.09
 91.37    537.00     23.17
 91.47    513.00     22.65
 91.57    466.00     21.59
 91.67    503.00     22.43
 91.77    563.00     23.73
 91.87    503.00     22.43
 91.97    553.00     23.52
 92.07    564.00     23.75
 92.17    562.00     23.71
 92.27    572.00     23.92
 92.37    541.28     23.27
 92.47    601.02     24.52
 92.57    666.95     25.83
 92.67    602.35     24.54
 92.77    649.00     25.48
 92.87    680.25     26.08
 92.97    683.00     26.13
 93.07    777.36     27.88
 93.17    780.00     27.93
 93.27    738.49     27.18
 93.37    832.09     28.85
 93.47    764.00     27.64
 93.57    796.00     28.21
 93.67    838.00     28.95
 93.77    867.00     29.44
 93.87    781.29     27.95
 93.97    853.05     29.21
 94.07    891.00     29.85
 94.17    839.60     28.98
 94.27    863.00     29.38
 94.37    808.51     28.43
 94.47    932.00     30.53
 94.57    858.54     29.30
 94.67    866.41     29.43
 94.77    956.52     30.93
 94.87    901.78     30.03
 94.97    903.83     30.06
 95.07    907.00     30.12
 95.17    882.12     29.70
 95.27    823.00     28.69
 95.37    799.84     28.28
 95.47    814.00     28.53
 95.57    804.60     28.37
 95.67    757.00     27.51
 95.77    679.61     26.07
 95.87    684.74     26.17
 95.97    687.00     26.21
 96.07    675.00     25.98
 96.17    682.00     26.12
 96.27    645.43     25.41
 96.37    749.00     27.37
 96.47    779.90     27.93
 96.57    833.55     28.87
 96.67    844.00     29.05
 96.77    904.00     30.07
 96.87    979.40     31.30
 96.97    949.00     30.81
 97.07   1159.87     34.06
 97.17   1266.44     35.59
 97.27   1351.00     36.76
 97.37   1340.68     36.62
 97.47   1356.20     36.83
 97.57   1469.69     38.34
 97.67   1461.69     38.23
 97.77   1427.00     37.78
 97.87   1452.48     38.11
 97.97   1330.00     36.47
 98.07   1361.91     36.90
 98.17   1268.00     35.61
 98.27   1128.00     33.59
 98.37   1081.00     32.88
 98.47   1016.09     31.88
 98.57   1000.00     31.62
 98.67    895.00     29.92
 98.77    855.00     29.24
 98.87    878.51     29.64
 98.97    729.00     27.00
 99.07    841.55     29.01
 99.17    795.00     28.20
 99.27    801.00     28.30
 99.37    869.00     29.48
 99.47    893.00     29.88
 99.57    939.51     30.65
 99.67   1150.94     33.93
 99.77   1184.11     34.41
 99.87   1297.00     36.01
 99.97   1434.01     37.87
100.07   1547.77     39.34
100.17   1586.46     39.83
100.27   1756.00     41.90
100.37   1812.76     42.58
100.47   1998.00     44.70
100.57   2025.00     45.00
100.67   2135.91     46.22
100.77   2157.00     46.44
100.87   2136.38     46.22
100.97   2145.68     46.32
101.07   1978.07     44.48
101.17   1926.00     43.89
101.27   1888.38     43.46
101.37   1858.00     43.10
101.47   1787.15     42.27
101.57   1668.00     40.84
101.67   1525.00     39.05
101.77   1540.00     39.24
101.87   1462.00     38.24
101.97   1374.00     37.07
102.07   1188.00     34.47
102.17   1171.00     34.22
102.27   1186.68     34.45
102.37   1094.00     33.08
102.47   1149.00     33.90
102.57   1163.28     34.11
102.67   1117.00     33.42
102.77   1086.02     32.95
102.87   1002.00     31.65
102.97    990.00     31.46
103.07    970.00     31.14
103.17    926.48     30.44
103.27    917.00     30.28
103.37    843.00     29.03
103.47    797.14     28.23
103.57    767.32     27.70
103.67    764.25     27.65
103.77    662.00     25.73
103.87    656.00     25.61
103.97    647.00     25.44
104.07    600.44     24.50
104.17    563.73     23.74
104.27    601.00     24.52
104.37    560.11     23.67
104.47    556.15     23.58
104.57    528.74     22.99
104.67    574.00     23.96
104.77    531.18     23.05
104.87    521.82     22.84
104.97    545.00     23.35
105.07    561.10     23.69
105.17    547.00     23.39
105.27    554.00     23.54
105.37    508.00     22.54
105.47    479.15     21.89
105.57    539.73     23.23
105.67    545.00     23.35
105.77    522.00     22.85
105.87    584.00     24.17
105.97    574.00     23.96
106.07    527.00     22.96
106.17    543.42     23.31
106.27    601.00     24.52
106.37    607.00     24.64
106.47    558.37     23.63
106.57    602.00     24.54
106.67    595.00     24.39
106.77    569.00     23.85
106.87    610.00     24.70
106.97    695.78     26.38
107.07    714.04     26.72
107.17    695.52     26.37
107.27    600.00     24.49
107.37    620.00     24.90
107.47    657.00     25.63
107.57    685.04     26.17
107.67    657.54     25.64
107.77    738.80     27.18
107.87    670.00     25.88
107.97    648.00     25.46
108.07    681.79     26.11
108.17    729.95     27.02
108.27    690.00     26.27
108.37    646.03     25.42
108.47    674.00     25.96
108.57    658.00     25.65
108.67    675.00     25.98
108.77    706.41     26.58
108.87    633.26     25.16
108.97    722.29     26.88
109.07    704.00     26.53
109.17    694.76     26.36
109.27    634.00     25.18
109.37    637.00     25.24
109.47    666.00     25.81
109.57    601.00     24.52
109.67    627.00     25.04
109.77    597.00     24.43
109.87    612.00     24.74
109.97    602.00     24.54
110.07    647.00     25.44
110.17    546.00     23.37
110.27    555.35     23.57
110.37    568.31     23.84
110.47    522.71     22.86
110.57    579.00     24.06
110.67    579.55     24.07
110.77    561.00     23.69
110.87    514.74     22.69
110.97    525.45     22.92
111.07    536.00     23.15
111.17    499.51     22.35
111.27    535.35     23.14
111.37    541.00     23.26
111.47    557.29     23.61
111.57    511.00     22.61
111.67    537.00     23.17
111.77    560.00     23.66
111.87    506.00     22.49
111.97    528.00     22.98
112.07    565.00     23.77
112.17    528.00     22.98
112.27    581.00     24.10
112.37    618.00     24.86
112.47    593.00     24.35
112.57    553.96     23.54
112.67    605.00     24.60
112.77    647.00     25.44
112.87    668.26     25.85
112.97    665.00     25.79
113.07    652.00     25.53
113.17    678.00     26.04
113.27    736.00     27.13
113.37    732.00     27.06
113.47    786.00     28.04
113.57    814.00     28.53
113.67    787.60     28.06
113.77    884.00     29.73
113.87    968.63     31.12
113.97    972.00     31.18
114.07   1026.00     32.03
114.17   1015.61     31.87
114.27   1221.00     34.94
114.37   1123.83     33.52
114.47   1258.00     35.47
114.57   1372.69     37.05
114.67   1499.00     38.72
114.77   1552.79     39.41
114.87   1777.00     42.15
114.97   1886.91     43.44
115.07   2169.00     46.57
115.17   2429.00     49.28
115.27   2478.69     49.79
115.37   2796.88     52.89
115.47   3168.00     56.28
115.57   3304.00     57.48
115.67   3904.82     62.49
115.77   3946.00     62.82
115.87   4517.00     67.21
115.97   4875.00     69.82
116.07   5298.00     72.79
116.17   5500.00     74.16
116.27   6116.00     78.20
116.37   6372.00     79.82
116.47   6887.00     82.99
116.57   6910.23     83.13
116.67   7092.00     84.21
116.77   7212.00     84.92
116.87   7208.00     84.90
116.97   6875.77     82.92
117.07   7053.00     83.98
117.17   6584.00     81.14
117.27   6338.00     79.61
117.37   5864.00     76.58
117.47   5412.00     73.57
117.57   5147.00     71.74
117.67   4775.00     69.10
117.77   4445.89     66.68
117.87   4210.00     64.88
117.97   3886.00     62.34
118.07   3345.00     57.84
118.17   3106.00     55.73
118.27   2621.55     51.20
118.37   2324.00     48.21
118.47   2114.00     45.98
118.57   1807.00     42.51
118.67   1631.35     40.39
118.77   1441.84     37.97
118.87   1278.00     35.75
118.97   1135.00     33.69
119.07    993.00     31.51
119.17    980.00     31.30
119.27    902.00     30.03
119.37    820.00     28.64
119.47    725.00     26.93
119.57    720.00     26.83
119.67    669.00     25.87
119.77    651.00     25.51
119.87    666.01     25.81
119.97    611.00     24.72
120.07    620.25     24.90
120.17    580.00     24.08
120.27    573.22     23.94
120.37    561.85     23.70
120.47    578.00     24.04
120.57    588.00     24.25
120.67    580.00     24.08
120.77    558.00     23.62
120.87    540.00     23.24
120.97    543.00     23.30
121.07    520.85     22.82
121.17    514.00     22.67
121.27    566.00     23.79
121.37    539.00     23.22
121.47    594.00     24.37
121.57    587.37     24.24
121.67    551.00     23.47
121.77    567.96     23.83
121.87    606.00     24.62
121.97    618.00     24.86
122.07    584.80     24.18
122.17    591.05     24.31
122.27    611.00     24.72
122.37    588.00     24.25
122.47    600.00     24.49
122.57    638.00     25.26
122.67    615.00     24.80
122.77    661.00     25.71
122.87    596.45     24.42
122.97    612.00     24.74
123.07    634.28     25.18
123.17    655.07     25.59
123.27    603.00     24.56
123.37    662.00     25.73
123.47    598.82     24.47
123.57    613.72     24.77
123.67    644.00     25.38
123.77    601.00     24.52
123.87    634.00     25.18
123.97    618.00     24.86
124.07    593.40     24.36
124.17    624.86     25.00
124.27    609.00     24.68
124.37    610.04     24.70
124.47    610.00     24.70
124.57    634.00     25.18
124.67    539.69     23.23
124.77    550.00     23.45
124.87    595.00     24.39
124.97    582.00     24.12
