XYDATA



INTER 1.0 1.0 0 0
TEMP 1074.0
  9.97    601.00     24.52
 10.07    578.00     24.04
 10.17    536.24     23.16
 10.27    544.64     23.34
 10.37    567.00     23.81
 10.47    547.20     23.39
 10.57    532.39     23.07
 10.67    556.00     23.58
 10.77    558.22     23.63
 10.87    548.00     23.41
 10.97    615.11     24.80
 11.07    569.09     23.86
 11.17    642.00     25.34
 11.27    551.00     23.47
 11.37    582.13     24.13
 11.47    630.00     25.10
 11.57    580.00     24.08
 11.67    647.00     25.44
 11.77    554.04     23.54
 11.87    683.00     26.13
 11.97    636.00     25.22
 12.07    703.21     26.52
 12.17    661.59     25.72
 12.27    694.00     26.34
 12.37    664.00     25.77
 12.47    624.00     24.98
 12.57    611.00     24.72
 12.67    566.00     23.79
 12.77    572.00     23.92
 12.87    614.00     24.78
 12.97    579.00     24.06
 13.07    553.00     23.52
 13.17    560.00     23.66
 13.27    585.00     24.19
 13.37    599.00     24.47
 13.47    564.00     23.75
 13.57    561.00     23.69
 13.67    574.00     23.96
 13.77    574.46     23.97
 13.87    558.00     23.62
 13.97    521.00     22.83
 14.07    613.36     24.77
 14.17    557.00     23.60
 14.27    565.71     23.78
 14.37    609.96     24.70
 14.47    565.47     23.78
 14.57    590.00     24.29
 14.67    526.52     22.95
 14.77    551.00     23.47
 14.87    560.03     23.67
 14.97    568.00     23.83
 15.07    544.00     23.32
 15.17    593.00     24.35
 15.27    549.00     23.43
 15.37    560.00     23.66
 15.47    570.00     23.87
 15.57    545.98     23.37
 15.67    585.00     24.19
 15.77    545.63     23.36
 15.87    585.50     24.20
 15.97    589.00     24.27
 16.07    540.68     23.25
 16.17    613.77     24.77
 16.27    562.00     23.71
 16.37    559.00     23.64
 16.47    524.00     22.89
 16.57    564.00     23.75
 16.67    523.60     22.88
 16.77    569.00     23.85
 16.87    569.64     23.87
 16.97    595.11     24.39
 17.07    578.00     24.04
 17.17    567.00     23.81
 17.27    567.00     23.81
 17.37    569.00     23.85
 17.47    586.01     24.21
 17.57    538.00     23.19
 17.67    520.56     22.82
 17.77    598.00     24.45
 17.87    603.00     24.56
 17.97    607.68     24.65
 18.07    555.08     23.56
 18.17    570.12     23.88
 18.27    603.00     24.56
 18.37    598.89     24.47
 18.47    538.38     23.20
 18.57    582.00     24.12
 18.67    580.00     24.08
 18.77    530.00     23.02
 18.87    542.00     23.28
 18.97    521.08     22.83
 19.07    561.00     23.69
 19.17    577.00     24.02
 19.27    555.00     23.56
 19.37    528.77     23.00
 19.47    596.17     24.42
 19.57    531.00     23.04
 19.67    528.90     23.00
 19.77    534.00     23.11
 19.87    556.00     23.58
 19.97    537.24     23.18
 20.07    586.89     24.23
 20.17    591.00     24.31
 20.27    551.00     23.47
 20.37    523.19     22.87
 20.47    525.00     22.91
 20.57    541.00     23.26
 20.67    553.00     23.52
 20.77    560.50     23.67
 20.87    553.54     23.53
 20.97    530.00     23.02
 21.07    595.82     24.41
 21.17    551.00     23.47
 21.27    583.32     24.15
 21.37    570.00     23.87
 21.47    519.00     22.78
 21.57    533.00     23.09
 21.67    563.00     23.73
 21.77    547.00     23.39
 21.87    550.00     23.45
 21.97    598.58     24.47
 22.07    598.57     24.47
 22.17    521.00     22.83
 22.27    567.00     23.81
 22.37    567.00     23.81
 22.47    562.00     23.71
 22.57    503.00     22.43
 22.67    512.81     22.65
 22.77    599.00     24.47
 22.87    531.31     23.05
 22.97    562.00     23.71
 23.07    586.99     24.23
 23.17    569.00     23.85
 23.27    553.00     23.52
 23.37    562.00     23.71
 23.47    595.00     24.39
 23.57    595.32     24.40
 23.67    546.27     23.37
 23.77    566.00     23.79
 23.87    550.00     23.45
 23.97    549.00     23.43
 24.07    560.00     23.66
 24.17    534.00     23.11
 24.27    598.90     24.47
 24.37    552.00     23.49
 24.47    583.00     24.15
 24.57    607.00     24.64
 24.67    634.00     25.18
 24.77    632.00     25.14
 24.87    617.70     24.85
 24.97    597.44     24.44
 25.07    546.66     23.38
 25.17    525.40     22.92
 25.27    552.00     23.49
 25.37    566.00     23.79
 25.47    531.00     23.04
 25.57    537.00     23.17
 25.67    610.00     24.70
 25.77    618.00     24.86
 25.87    579.46     24.07
 25.97    579.00     24.06
 26.07    621.00     24.92
 26.17    545.00     23.35
 26.27    549.00     23.43
 26.37    541.00     23.26
 26.47    562.00     23.71
 26.57    524.00     22.89
 26.67    563.00     23.73
 26.77    600.00     24.49
 26.87    522.00     22.85
 26.97    528.21     22.98
 27.07    553.00     23.52
 27.17    521.13     22.83
 27.27    537.00     23.17
 27.37    579.00     24.06
 27.47    569.00     23.85
 27.57    538.00     23.19
 27.67    492.00     22.18
 27.77    599.00     24.47
 27.87    623.00     24.96
 27.97    698.00     26.42
 28.07    785.17     28.02
 28.17    931.00     30.51
 28.27    945.91     30.76
 28.37    869.00     29.48
 28.47    839.00     28.97
 28.57    739.51     27.19
 28.67    685.59     26.18
 28.77    745.00     27.29
 28.87    829.04     28.79
 28.97    787.00     28.05
 29.07    770.68     27.76
 29.17    706.59     26.58
 29.27    626.00     25.02
 29.37    604.00     24.58
 29.47    580.00     24.08
 29.57    593.88     24.37
 29.67    587.00     24.23
 29.77    591.00     24.31
 29.87    610.00     24.70
 29.97    552.00     23.49
 30.07    515.21     22.70
 30.17    533.11     23.09
 30.27    554.00     23.54
 30.37    539.40     23.22
 30.47    580.64     24.10
 30.57    507.36     22.52
 30.67    573.53     23.95
 30.77    583.00     24.15
 30.87    605.00     24.60
 30.97    629.00     25.08
 31.07    577.00     24.02
 31.17    615.89     24.82
 31.27    514.00     22.67
 31.37    535.00     23.13
 31.47    491.39     22.17
 31.57    519.00     22.78
 31.67    503.31     22.43
 31.77    533.99     23.11
 31.87    509.40     22.57
 31.97    498.00     22.32
 32.07    568.00     23.83
 32.17    513.96     22.67
 32.27    544.35     23.33
 32.37    539.00     23.22
 32.47    543.95     23.32
 32.57    567.00     23.81
 32.67    515.00     22.69
 32.77    526.76     22.95
 32.87    542.00     23.28
 32.97    541.23     23.26
 33.07    552.00     23.49
 33.17    591.00     24.31
 33.27    510.00     22.58
 33.37    540.14     23.24
 33.47    530.00     23.02
 33.57    557.82     23.62
 33.67    612.93     24.76
 33.77    748.00     27.35
 33.87    922.46     30.37
 33.97    988.00     31.43
 34.07   1099.00     33.15
 34.17   1007.00     31.73
 34.27    941.38     30.68
 34.37    801.08     28.30
 34.47    640.00     25.30
 34.57    570.00     23.87
 34.67    513.26     22.66
 34.77    569.19     23.86
 34.87    562.20     23.71
 34.97    519.00     22.78
 35.07    516.00     22.72
 35.17    474.00     21.77
 35.27    482.69     21.97
 35.37    483.00     21.98
 35.47    504.00     22.45
 35.57    540.00     23.24
 35.67    554.79     23.55
 35.77    537.60     23.19
 35.87    517.23     22.74
 35.97    540.00     23.24
 36.07    518.00     22.76
 36.17    482.61     21.97
 36.27    509.73     22.58
 36.37    513.29     22.66
 36.47    512.90     22.65
 36.57    548.71     23.42
 36.67    531.00     23.04
 36.77    467.00     21.61
 36.87    543.00     23.30
 36.97    514.00     22.67
 37.07    527.00     22.96
 37.17    551.43     23.48
 37.27    515.00     22.69
 37.37    520.00     22.80
 37.47    554.00     23.54
 37.57    506.00     22.49
 37.67    556.00     23.58
 37.77    501.00     22.38
 37.87    554.00     23.54
 37.97    557.38     23.61
 38.07    546.60     23.38
 38.17    517.00     22.74
 38.27    534.55     23.12
 38.37    513.00     22.65
 38.47    516.00     22.72
 38.57    493.00     22.20
 38.67    504.00     22.45
 38.77    483.26     21.98
 38.87    479.00     21.89
 38.97    507.00     22.52
 39.07    521.37     22.83
 39.17    531.00     23.04
 39.27    544.68     23.34
 39.37    528.98     23.00
 39.47    511.33     22.61
 39.57    515.00     22.69
 39.67    487.00     22.07
 39.77    469.00     21.66
 39.87    518.00     22.76
 39.97    517.00     22.74
 40.07    467.92     21.63
 40.17    460.00     21.45
 40.27    477.00     21.84
 40.37    470.00     21.68
 40.47    530.00     23.02
 40.57    491.28     22.16
 40.67    501.09     22.39
 40.77    476.30     21.82
 40.87    489.82     22.13
 40.97    501.00     22.38
 41.07    475.48     21.81
 41.17    515.32     22.70
 41.27    488.00     22.09
 41.37    500.00     22.36
 41.47    529.43     23.01
 41.57    483.00     21.98
 41.67    451.00     21.24
 41.77    440.00     20.98
 41.87    534.85     23.13
 41.97    509.00     22.56
 42.07    513.00     22.65
 42.17    487.00     22.07
 42.27    564.76     23.76
 42.37    553.51     23.53
 42.47    570.00     23.87
 42.57    582.00     24.12
 42.67    603.54     24.57
 42.77    588.28     24.25
 42.87    630.00     25.10
 42.97    557.18     23.60
 43.07    575.75     23.99
 43.17    537.00     23.17
 43.27    478.00     21.86
 43.37    492.00     22.18
 43.47    498.00     22.32
 43.57    540.00     23.24
 43.67    481.00     21.93
 43.77    480.00     21.91
 43.87    504.00     22.45
 43.97    512.00     22.63
 44.07    468.00     21.63
 44.17    518.88     22.78
 44.27    502.44     22.42
 44.37    522.00     22.85
 44.47    522.00     22.85
 44.57    511.00     22.61
 44.67    524.02     22.89
 44.77    468.00     21.63
 44.87    500.00     22.36
 44.97    491.34     22.17
 45.07    476.00     21.82
 45.17    486.33     22.05
 45.27    537.80     23.19
 45.37    468.64     21.65
 45.47    517.00     22.74
 45.57    535.00     23.13
 45.67    471.03     21.70
 45.77    483.03     21.98
 45.87    476.00     21.82
 45.97    516.00     22.72
 46.07    482.00     21.95
 46.17    523.00     22.87
 46.27    487.00     22.07
 46.37    525.00     22.91
 46.47    505.00     22.47
 46.57    505.00     22.47
 46.67    520.07     22.81
 46.77    502.00     22.41
 46.87    535.00     23.13
 46.97    547.00     23.39
 47.07    510.00     22.58
 47.17    496.00     22.27
 47.27    544.40     23.33
 47.37    547.00     23.39
 47.47    515.00     22.69
 47.57    561.00     23.69
 47.67    524.97     22.91
 47.77    620.00     24.90
 47.87    573.59     23.95
 47.97    611.00     24.72
 48.07    563.00     23.73
 48.17    549.00     23.43
 48.27    582.50     24.13
 48.37    540.37     23.25
 48.47    529.00     23.00
 48.57    495.90     22.27
 48.67    528.00     22.98
 48.77    515.00     22.69
 48.87    536.00     23.15
 48.97    534.21     23.11
 49.07    551.00     23.47
 49.17    599.00     24.47
 49.27    625.00     25.00
 49.37    651.35     25.52
 49.47    728.00     26.98
 49.57    794.23     28.18
 49.67    886.00     29.77
 49.77   1102.83     33.21
 49.87   1456.00     38.16
 49.97   1896.00     43.54
 50.07   2157.00     46.44
 50.17   2511.64     50.12
 50.27   2518.00     50.18
 50.37   2267.00     47.61
 50.47   1845.00     42.95
 50.57   1399.00     37.40
 50.67   1113.70     33.37
 50.77    881.73     29.69
 50.87    683.68     26.15
 50.97    650.00     25.50
 51.07    683.00     26.13
 51.17    611.00     24.72
 51.27    614.05     24.78
 51.37    605.00     24.60
 51.47    545.24     23.35
 51.57    552.14     23.50
 51.67    543.70     23.32
 51.77    536.00     23.15
 51.87    548.00     23.41
 51.97    536.13     23.15
 52.07    555.00     23.56
 52.17    576.00     24.00
 52.27    512.90     22.65
 52.37    530.85     23.04
 52.47    569.00     23.85
 52.57    536.00     23.15
 52.67    591.00     24.31
 52.77    581.00     24.10
 52.87    643.00     25.36
 52.97    775.00     27.84
 53.07    819.00     28.62
 53.17    928.00     30.46
 53.27   1034.56     32.16
 53.37   1120.96     33.48
 53.47   1218.00     34.90
 53.57   1197.00     34.60
 53.67   1031.00     32.11
 53.77   1003.00     31.67
 53.87    905.84     30.10
 53.97    765.00     27.66
 54.07    677.00     26.02
 54.17    579.41     24.07
 54.27    594.36     24.38
 54.37    580.00     24.08
 54.47    602.00     24.54
 54.57    516.00     22.72
 54.67    513.26     22.66
 54.77    527.00     22.96
 54.87    557.00     23.60
 54.97    538.00     23.19
 55.07    583.58     24.16
 55.17    570.97     23.89
 55.27    552.62     23.51
 55.37    542.00     23.28
 55.47    534.70     23.12
 55.57    595.52     24.40
 55.67    585.00     24.19
 55.77    584.00     24.17
 55.87    579.00     24.06
 55.97    636.00     25.22
 56.07    691.00     26.29
 56.17    729.04     27.00
 56.27    909.95     30.17
 56.37   1150.37     33.92
 56.47   1409.00     37.54
 56.57   1872.24     43.27
 56.67   2148.00     46.35
 56.77   2436.00     49.36
 56.87   2624.82     51.23
 56.97   2568.00     50.68
 57.07   2370.30     48.69
 57.17   2085.15     45.66
 57.27   1747.00     41.80
 57.37   1226.59     35.02
 57.47   1034.00     32.16
 57.57    814.00     28.53
 57.67    717.53     26.79
 57.77    737.88     27.16
 57.87    683.00     26.13
 57.97    703.29     26.52
 58.07    697.00     26.40
 58.17    735.00     27.11
 58.27    765.00     27.66
 58.37    848.00     29.12
 58.47    972.00     31.18
 58.57   1029.00     32.08
 58.67   1182.00     34.38
 58.77   1342.00     36.63
 58.87   1430.00     37.82
 58.97   1559.04     39.48
 59.07   1577.00     39.71
 59.17   1504.16     38.78
 59.27   1338.34     36.58
 59.37   1359.00     36.86
 59.47   1265.80     35.58
 59.57   1224.69     35.00
 59.67   1172.00     34.23
 59.77   1192.33     34.53
 59.87   1164.28     34.12
 59.97   1286.00     35.86
 60.07   1389.12     37.27
 60.17   1534.00     39.17
 60.27   1643.00     40.53
 60.37   1534.00     39.17
 60.47   1446.00     38.03
 60.57   1329.00     36.46
 60.67   1028.00     32.06
 60.77    853.07     29.21
 60.87    795.00     28.20
 60.97    680.01     26.08
 61.07    662.00     25.73
 61.17    628.00     25.06
 61.27    596.00     24.41
 61.37    641.00     25.32
 61.47    671.00     25.90
 61.57    727.00     26.96
 61.67    838.00     28.95
 61.77    978.00     31.27
 61.87   1049.00     32.39
 61.97   1251.00     35.37
 62.07   1382.00     37.18
 62.17   1345.00     36.67
 62.27   1334.00     36.52
 62.37   1299.00     36.04
 62.47   1145.00     33.84
 62.57   1077.00     32.82
 62.67    956.00     30.92
 62.77    801.00     28.30
 62.87    655.00     25.59
 62.97    570.00     23.87
 63.07    582.17     24.13
 63.17    596.00     24.41
 63.27    530.36     23.03
 63.37    539.00     23.22
 63.47    538.99     23.22
 63.57    567.00     23.81
 63.67    566.56     23.80
 63.77    585.37     24.19
 63.87    604.04     24.58
 63.97    684.00     26.15
 64.07    739.00     27.18
 64.17    790.00     28.11
 64.27    776.49     27.87
 64.37    907.00     30.12
 64.47    981.00     31.32
 64.57    940.00     30.66
 64.67    965.79     31.08
 64.77    994.00     31.53
 64.87    944.00     30.72
 64.97    862.00     29.36
 65.07    798.00     28.25
 65.17    741.00     27.22
 65.27    767.00     27.69
 65.37    656.66     25.63
 65.47    693.81     26.34
 65.57    658.00     25.65
 65.67    569.52     23.86
 65.77    624.00     24.98
 65.87    583.00     24.15
 65.97    554.00     23.54
 66.07    540.00     23.24
 66.17    546.64     23.38
 66.27    541.00     23.26
 66.37    531.00     23.04
 66.47    545.57     23.36
 66.57    550.32     23.46
 66.67    589.80     24.29
 66.77    559.03     23.64
 66.87    581.39     24.11
 66.97    577.03     24.02
 67.07    619.46     24.89
 67.17    731.00     27.04
 67.27    754.00     27.46
 67.37    887.43     29.79
 67.47   1045.00     32.33
 67.57   1285.00     35.85
 67.67   1514.67     38.92
 67.77   1827.28     42.75
 67.87   2018.76     44.93
 67.97   2235.94     47.29
 68.07   2450.78     49.51
 68.17   2485.21     49.85
 68.27   2266.00     47.60
 68.37   2105.00     45.88
 68.47   1714.89     41.41
 68.57   1563.00     39.53
 68.67   1221.67     34.95
 68.77   1046.00     32.34
 68.87    832.00     28.84
 68.97    795.77     28.21
 69.07    736.01     27.13
 69.17    652.21     25.54
 69.27    638.08     25.26
 69.37    563.00     23.73
 69.47    601.00     24.52
 69.57    550.00     23.45
 69.67    551.00     23.47
 69.77    564.47     23.76
 69.87    590.00     24.29
 69.97    601.61     24.53
 70.07    576.00     24.00
 70.17    546.26     23.37
 70.27    565.00     23.77
 70.37    575.00     23.98
 70.47    574.00     23.96
 70.57    611.00     24.72
 70.67    547.94     23.41
 70.77    551.87     23.49
 70.87    617.00     24.84
 70.97    612.97     24.76
 71.07    671.05     25.90
 71.17    715.00     26.74
 71.27    793.00     28.16
 71.37    919.00     30.32
 71.47   1143.84     33.82
 71.57   1212.00     34.81
 71.67   1430.75     37.83
 71.77   1579.00     39.74
 71.87   1727.76     41.57
 71.97   1844.00     42.94
 72.07   1910.00     43.70
 72.17   1897.00     43.55
 72.27   1748.50     41.82
 72.37   1664.00     40.79
 72.47   1560.00     39.50
 72.57   1355.00     36.81
 72.67   1127.02     33.57
 72.77   1097.60     33.13
 72.87    974.52     31.22
 72.97    828.00     28.77
 73.07    775.00     27.84
 73.17    743.00     27.26
 73.27    713.00     26.70
 73.37    661.00     25.71
 73.47    704.54     26.54
 73.57    601.00     24.52
 73.67    550.00     23.45
 73.77    576.00     24.00
 73.87    612.51     24.75
 73.97    575.18     23.98
 74.07    574.00     23.96
 74.17    556.00     23.58
 74.27    549.33     23.44
 74.37    631.00     25.12
 74.47    615.00     24.80
 74.57    636.00     25.22
 74.67    569.72     23.87
 74.77    641.00     25.32
 74.87    670.00     25.88
 74.97    534.55     23.12
 75.07    568.01     23.83
 75.17    602.00     24.54
 75.27    524.00     22.89
 75.37    527.00     22.96
 75.47    546.00     23.37
 75.57    536.56     23.16
 75.67    541.00     23.26
 75.77    542.25     23.29
 75.87    597.21     24.44
 75.97    576.00     24.00
 76.07    622.00     24.94
 76.17    659.00     25.67
 76.27    643.00     25.36
 76.37    725.13     26.93
 76.47    693.00     26.32
 76.57    719.00     26.81
 76.67    721.00     26.85
 76.77    737.31     27.15
 76.87    689.00     26.25
 76.97    641.00     25.32
 77.07    649.00     25.48
 77.17    600.41     24.50
 77.27    543.00     23.30
 77.37    599.93     24.49
 77.47    533.00     23.09
 77.57    567.12     23.81
 77.67    544.97     23.34
 77.77    499.28     22.34
 77.87    539.00     23.22
 77.97    511.00     22.61
 78.07    492.00     22.18
 78.17    486.62     22.06
 78.27    518.91     22.78
 78.37    483.00     21.98
 78.47    560.00     23.66
 78.57    509.00     22.56
 78.67    493.00     22.20
 78.77    567.00     23.81
 78.87    539.06     23.22
 78.97    520.00     22.80
 79.07    549.00     23.43
 79.17    519.00     22.78
 79.27    550.00     23.45
 79.37    532.00     23.07
 79.47    543.67     23.32
 79.57    528.00     22.98
 79.67    502.00     22.41
 79.77    548.66     23.42
 79.87    525.76     22.93
 79.97    530.00     23.02
 80.07    524.00     22.89
 80.17    524.80     22.91
 80.27    589.00     24.27
 80.37    557.85     23.62
 80.47    552.00     23.49
 80.57    570.00     23.87
 80.67    616.42     24.83
 80.77    672.48     25.93
 80.87    667.36     25.83
 80.97    697.63     26.41
 81.07    698.15     26.42
 81.17    777.15     27.88
 81.27    775.99     27.86
 81.37    698.00     26.42
 81.47    766.00     27.68
 81.57    742.00     27.24
 81.67    760.00     27.57
 81.77    706.00     26.57
 81.87    735.00     27.11
 81.97    739.44     27.19
 82.07    693.78     26.34
 82.17    653.39     25.56
 82.27    611.01     24.72
 82.37    632.00     25.14
 82.47    627.05     25.04
 82.57    613.00     24.76
 82.67    575.00     23.98
 82.77    549.00     23.43
 82.87    604.98     24.60
 82.97    597.17     24.44
 83.07    535.00     23.13
 83.17    533.00     23.09
 83.27    569.00     23.85
 83.37    536.34     23.16
 83.47    548.00     23.41
 83.57    534.71     23.12
 83.67    538.26     23.20
 83.77    582.00     24.12
 83.87    600.79     24.51
 83.97    553.66     23.53
 84.07    529.00     23.00
 84.17    612.08     24.74
 84.27    541.00     23.26
 84.37    591.00     24.31
 84.47    591.98     24.33
 84.57    575.76     24.00
 84.67    546.00     23.37
 84.77    547.00     23.39
 84.87    581.30     24.11
 84.97    545.00     23.35
 85.07    570.00     23.87
 85.17    537.00     23.17
 85.27    511.00     22.61
 85.37    557.10     23.60
 85.47    558.00     23.62
 85.57    520.00     22.80
 85.67    515.00     22.69
 85.77    508.06     22.54
 85.87    544.00     23.32
 85.97    519.00     22.78
 86.07    568.53     23.84
 86.17    505.95     22.49
 86.27    580.00     24.08
 86.37    535.00     23.13
 86.47    524.00     22.89
 86.57    559.97     23.66
 86.67    578.12     24.04
 86.77    576.25     24.01
 86.87    618.66     24.87
 86.97    582.63     24.14
 87.07    603.00     24.56
 87.17    609.00     24.68
 87.27    666.08     25.81
 87.37    645.28     25.40
 87.47    590.34     24.30
 87.57    677.03     26.02
 87.67    665.85     25.80
 87.77    569.47     23.86
 87.87    651.00     25.51
 87.97    631.18     25.12
 88.07    614.81     24.80
 88.17    565.00     23.77
 88.27    605.78     24.61
 88.37    550.00     23.45
 88.47    604.00     24.58
 88.57    556.00     23.58
 88.67    557.00     23.60
 88.77    603.30     24.56
 88.87    602.00     24.54
 88.97    546.22     23.37
 89.07    546.11     23.37
 89.17    613.89     24.78
 89.27    650.00     25.50
 89.37    586.00     24.21
 89.47    561.07     23.69
 89.57    666.00     25.81
 89.67    567.00     23.81
 89.77    598.00     24.45
 89.87    567.15     23.81
 89.97    562.00     23.71
 90.07    549.00     23.43
 90.17    596.07     24.41
 90.27    546.00     23.37
 90.37    554.99     23.56
 90.47    566.02     23.79
 90.57    538.00     23.19
 90.67    509.00     22.56
 90.77    492.51     22.19
 90.87    572.35     23.92
 90.97    540.47     23.25
 91.07    496.88     22.29
 91.17    520.68     22.82
 91.27    497.99     22.32
 91.37    517.00     22.74
 91.47    526.00     22.93
 91.57    523.00     22.87
 91.67    583.00     24.15
 91.77    569.36     23.86
 91.87    530.27     23.03
 91.97    563.00     23.73
 92.07    528.00     22.98
 92.17    535.20     23.13
 92.27    536.00     23.15
 92.37    633.00     25.16
 92.47    623.00     24.96
 92.57    663.78     25.76
 92.67    631.61     25.13
 92.77    693.00     26.32
 92.87    748.13     27.35
 92.97    783.00     27.98
 93.07    748.00     27.35
 93.17    795.00     28.20
 93.27    781.00     27.95
 93.37    853.00     29.21
 93.47    814.73     28.54
 93.57    808.02     28.43
 93.67    867.30     29.45
 93.77    819.68     28.63
 93.87    844.00     29.05
 93.97    784.39     28.01
 94.07    897.00     29.95
 94.17    865.00     29.41
 94.27    825.00     28.72
 94.37    891.77     29.86
 94.47    859.74     29.32
 94.57    891.89     29.86
 94.67    952.00     30.85
 94.77    920.00     30.33
 94.87    932.00     30.53
 94.97    842.84     29.03
 95.07    915.00     30.25
 95.17    897.00     29.95
 95.27    830.26     28.81
 95.37    746.00     27.31
 95.47    727.00     26.96
 95.57    710.00     26.65
 95.67    740.00     27.20
 95.77    665.18     25.79
 95.87    695.00     26.36
 95.97    669.00     25.87
 96.07    654.68     25.59
 96.17    716.00     26.76
 96.27    703.12     26.52
 96.37    760.00     27.57
 96.47    885.00     29.75
 96.57    814.16     28.53
 96.67    866.00     29.43
 96.77   1000.00     31.62
 96.87   1021.56     31.96
 96.97   1106.80     33.27
 97.07   1229.00     35.06
 97.17   1350.00     36.74
 97.27   1321.00     36.35
 97.37   1419.00     37.67
 97.47   1379.00     37.13
 97.57   1438.00     37.92
 97.67   1406.00     37.50
 97.77   1358.38     36.86
 97.87   1406.73     37.51
 97.97   1242.00     35.24
 98.07   1218.00     34.90
 98.17   1191.84     34.52
 98.27   1105.00     33.24
 98.37    972.41     31.18
 98.47    934.25     30.57
 98.57    910.00     30.17
 98.67    848.00     29.12
 98.77    866.35     29.43
 98.87    762.13     27.61
 98.97    815.00     28.55
 99.07    769.72     27.74
 99.17    847.00     29.10
 99.27    889.00     29.82
 99.37    940.00     30.66
 99.47   1013.00     31.83
 99.57   1101.61     33.19
 99.67   1200.00     34.64
 99.77   1250.00     35.36
 99.87   1479.00     38.46
 99.97   1481.00     38.48
100.07   1724.00     41.52
100.17   1747.00     41.80
100.27   1822.00     42.68
100.37   1980.00     44.50
100.47   1989.00     44.60
100.57   2128.00     46.13
100.67   1983.00     44.53
100.77   2096.00     45.78
100.87   2150.44     46.37
100.97   1950.91     44.17
101.07   2047.00     45.24
101.17   1929.59     43.93
101.27   1777.00     42.15
101.37   1746.00     41.79
101.47   1564.00     39.55
101.57   1566.00     39.57
101.67   1462.28     38.24
101.77   1354.15     36.80
101.87   1377.15     37.11
101.97   1252.00     35.38
102.07   1205.00     34.71
102.17   1213.69     34.84
102.27   1117.90     33.43
102.37   1180.24     34.35
102.47   1122.00     33.50
102.57   1085.21     32.94
102.67   1057.00     32.51
102.77   1082.50     32.90
102.87   1011.00     31.80
102.97    964.00     31.05
103.07    937.00     30.61
103.17    859.00     29.31
103.27    869.00     29.48
103.37    821.00     28.65
103.47    742.98     27.26
103.57    744.00     27.28
103.67    702.00     26.50
103.77    716.00     26.76
103.87    616.00     24.82
103.97    596.16     24.42
104.07    622.00     24.94
104.17    592.00     24.33
104.27    582.00     24.12
104.37    520.02     22.80
104.47    602.00     24.54
104.57    546.00     23.37
104.67    536.47     23.16
104.77    529.00     23.00
104.87    554.00     23.54
104.97    502.99     22.43
105.07    540.00     23.24
105.17    492.84     22.20
105.27    538.00     23.19
105.37    509.91     22.58
105.47    545.00     23.35
105.57    519.00     22.78
105.67    538.00     23.19
105.77    539.95     23.24
105.87    538.00     23.19
105.97    604.50     24.59
106.07    558.51     23.63
106.17    593.00     24.35
106.27    579.03     24.06
106.37    596.00     24.41
106.47    585.88     24.21
106.57    581.00     24.10
106.67    650.00     25.50
106.77    647.00     25.44
106.87    620.89     24.92
106.97    635.52     25.21
107.07    681.00     26.10
107.17    695.00     26.36
107.27    677.00     26.02
107.37    696.00     26.38
107.47    706.00     26.57
107.57    744.00     27.28
107.67    694.00     26.34
107.77    644.00     25.38
107.87    686.25     26.20
107.97    656.00     25.61
108.07    685.00     26.17
108.17    698.00     26.42
108.27    677.00     26.02
108.37    658.57     25.66
108.47    658.00     25.65
108.57    667.00     25.83
108.67    673.00     25.94
108.77    709.00     26.63
108.87    701.00     26.48
108.97    655.00     25.59
109.07    691.00     26.29
109.17    705.44     26.56
109.27    652.00     25.53
109.37    631.54     25.13
109.47    670.00     25.88
109.57    660.05     25.69
109.67    603.23     24.56
109.77    598.64     24.47
109.87    662.00     25.73
109.97    557.39     23.61
110.07    568.46     23.84
110.17    551.07     23.47
110.27    617.00     24.84
110.37    588.72     24.26
110.47    561.00     23.69
110.57    564.00     23.75
110.67    518.00     22.76
110.77    501.65     22.40
110.87    571.00     23.90
110.97    539.38     23.22
111.07    564.65     23.76
111.17    565.00     23.77
111.27    522.00     22.85
111.37    531.00     23.04
111.47    540.00     23.24
111.57    565.65     23.78
111.67    533.67     23.10
111.77    573.14     23.94
111.87    571.00     23.90
111.97    530.00     23.02
112.07    612.57     24.75
112.17    583.00     24.15
112.27    580.00     24.08
112.37    563.12     23.73
112.47    618.00     24.86
112.57    638.90     25.28
112.67    632.00     25.14
112.77    594.18     24.38
112.87    665.64     25.80
112.97    597.00     24.43
113.07    709.00     26.63
113.17    717.00     26.78
113.27    726.00     26.94
113.37    708.87     26.62
113.47    748.00     27.35
113.57    802.00     28.32
113.67    819.00     28.62
113.77    884.00     29.73
113.87    929.00     30.48
113.97    972.00     31.18
114.07   1033.42     32.15
114.17   1071.00     32.73
114.27   1082.72     32.90
114.37   1228.00     35.04
114.47   1281.00     35.79
114.57   1428.00     37.79
114.67   1548.00     39.34
114.77   1693.00     41.15
114.87   1881.00     43.37
114.97   2107.00     45.90
115.07   2302.17     47.98
115.17   2636.00     51.34
115.27   2767.00     52.60
115.37   3101.72     55.69
115.47   3363.00     57.99
115.57   3816.00     61.77
115.67   4291.80     65.51
115.77   4508.00     67.14
115.87   4787.00     69.19
115.97   5340.00     73.08
116.07   5812.26     76.24
116.17   6042.00     77.73
116.27   6355.00     79.72
116.37   6591.00     81.18
116.47   6600.86     81.25
116.57   6841.41     82.71
116.67   6916.00     83.16
116.77   6996.86     83.65
116.87   6785.00     82.37
116.97   6711.00     81.92
117.07   6274.00     79.21
117.17   6225.00     78.90
117.27   5559.00     74.56
117.37   5547.53     74.48
117.47   5050.00     71.06
117.57   4655.00     68.23
117.67   4289.00     65.49
117.77   3923.00     62.63
117.87   3639.00     60.32
117.97   3313.00     57.56
118.07   2954.00     54.35
118.17   2540.00     50.40
118.27   2182.00     46.71
118.37   2008.00     44.81
118.47   1746.00     41.79
118.57   1549.00     39.36
118.67   1341.00     36.62
118.77   1217.00     34.89
118.87   1110.00     33.32
118.97   1094.14     33.08
119.07    986.35     31.41
119.17    912.00     30.20
119.27    840.00     28.98
119.37    749.00     27.37
119.47    735.21     27.11
119.57    715.53     26.75
119.67    627.00     25.04
119.77    659.00     25.67
119.87    628.53     25.07
119.97    627.00     25.04
120.07    608.00     24.66
120.17    600.00     24.49
120.27    559.14     23.65
120.37    621.98     24.94
120.47    560.00     23.66
120.57    583.00     24.15
120.67    612.48     24.75
120.77    553.00     23.52
120.87    560.00     23.66
120.97    571.00     23.90
121.07    554.00     23.54
121.17    539.00     23.22
121.27    565.69     23.78
121.37    595.00     24.39
121.47    606.00     24.62
121.57    602.00     24.54
121.67    617.38     24.85
121.77    622.17     24.94
121.87    575.12     23.98
121.97    603.00     24.56
122.07    631.00     25.12
122.17    650.00     25.50
122.27    632.00     25.14
122.37    648.00     25.46
122.47    579.00     24.06
122.57    628.00     25.06
122.67    653.00     25.55
122.77    629.00     25.08
122.87    626.00     25.02
122.97    623.83     24.98
123.07    645.00     25.40
123.17    678.00     26.04
123.27    659.08     25.67
123.37    668.00     25.85
123.47    714.00     26.72
123.57    627.00     25.04
123.67    630.00     25.10
123.77    586.00     24.21
123.87    641.00     25.32
123.97    633.41     25.17
124.07    655.00     25.59
124.17    594.00     24.37
124.27    610.00     24.70
124.37    615.76     24.81
124.47    566.00     23.79
124.57    560.58     23.68
124.67    564.03     23.75
124.77    588.00     24.25
124.87    608.79     24.67
124.97    590.00     24.29
