XYDATA



INTER 1.0 1.0 0 0
TEMP 760.582
  9.97    586.59     24.22
 10.07    586.78     24.22
 10.17    642.00     25.34
 10.27    670.00     25.88
 10.37    601.21     24.52
 10.47    646.00     25.42
 10.57    703.00     26.51
 10.67    623.94     24.98
 10.77    667.00     25.83
 10.87    611.13     24.72
 10.97    667.95     25.84
 11.07    668.00     25.85
 11.17    658.03     25.65
 11.27    678.00     26.04
 11.37    642.00     25.34
 11.47    653.89     25.57
 11.57    601.99     24.54
 11.67    675.00     25.98
 11.77    685.00     26.17
 11.87    600.42     24.50
 11.97    758.00     27.53
 12.07    680.73     26.09
 12.17    791.00     28.12
 12.27    763.34     27.63
 12.37    811.00     28.48
 12.47    711.00     26.66
 12.57    732.15     27.06
 12.67    664.00     25.77
 12.77    617.00     24.84
 12.87    666.12     25.81
 12.97    649.75     25.49
 13.07    588.52     24.26
 13.17    596.59     24.43
 13.27    637.00     25.24
 13.37    627.00     25.04
 13.47    604.00     24.58
 13.57    596.00     24.41
 13.67    644.00     25.38
 13.77    660.38     25.70
 13.87    678.15     26.04
 13.97    601.52     24.53
 14.07    600.00     24.49
 14.17    597.00     24.43
 14.27    586.00     24.21
 14.37    589.00     24.27
 14.47    595.47     24.40
 14.57    627.00     25.04
 14.67    613.00     24.76
 14.77    621.89     24.94
 14.87    565.00     23.77
 14.97    602.00     24.54
 15.07    655.17     25.60
 15.17    568.00     23.83
 15.27    602.00     24.54
 15.37    589.32     24.28
 15.47    617.00     24.84
 15.57    668.81     25.86
 15.67    641.32     25.32
 15.77    628.00     25.06
 15.87    684.99     26.17
 15.97    634.41     25.19
 16.07    655.00     25.59
 16.17    576.09     24.00
 16.27    659.11     25.67
 16.37    588.00     24.25
 16.47    620.97     24.92
 16.57    589.28     24.28
 16.67    558.00     23.62
 16.77    669.35     25.87
 16.87    604.00     24.58
 16.97    606.00     24.62
 17.07    593.00     24.35
 17.17    566.00     23.79
 17.27    644.00     25.38
 17.37    565.00     23.77
 17.47    592.07     24.33
 17.57    588.00     24.25
 17.67    543.00     23.30
 17.77    597.00     24.43
 17.87    644.00     25.38
 17.97    591.00     24.31
 18.07    605.00     24.60
 18.17    631.39     25.13
 18.27    576.90     24.02
 18.37    642.47     25.35
 18.47    610.00     24.70
 18.57    630.45     25.11
 18.67    585.00     24.19
 18.77    603.00     24.56
 18.87    597.00     24.43
 18.97    600.00     24.49
 19.07    590.00     24.29
 19.17    604.00     24.58
 19.27    596.00     24.41
 19.37    632.00     25.14
 19.47    559.00     23.64
 19.57    599.58     24.49
 19.67    684.29     26.16
 19.77    689.73     26.26
 19.87    591.00     24.31
 19.97    614.00     24.78
 20.07    593.00     24.35
 20.17    632.25     25.14
 20.27    608.00     24.66
 20.37    658.63     25.66
 20.47    633.88     25.18
 20.57    586.00     24.21
 20.67    586.00     24.21
 20.77    548.00     23.41
 20.87    619.00     24.88
 20.97    564.00     23.75
 21.07    610.08     24.70
 21.17    585.00     24.19
 21.27    626.00     25.02
 21.37    588.00     24.25
 21.47    617.00     24.84
 21.57    653.80     25.57
 21.67    635.00     25.20
 21.77    634.00     25.18
 21.87    571.38     23.90
 21.97    614.33     24.79
 22.07    679.49     26.07
 22.17    576.00     24.00
 22.27    568.00     23.83
 22.37    670.00     25.88
 22.47    573.00     23.94
 22.57    624.32     24.99
 22.67    602.00     24.54
 22.77    612.00     24.74
 22.87    613.83     24.78
 22.97    564.49     23.76
 23.07    550.00     23.45
 23.17    607.33     24.64
 23.27    641.00     25.32
 23.37    657.42     25.64
 23.47    617.00     24.84
 23.57    615.00     24.80
 23.67    612.28     24.74
 23.77    607.00     24.64
 23.87    620.00     24.90
 23.97    571.53     23.91
 24.07    650.48     25.50
 24.17    599.00     24.47
 24.27    609.00     24.68
 24.37    616.11     24.82
 24.47    654.00     25.57
 24.57    597.30     24.44
 24.67    620.13     24.90
 24.77    654.67     25.59
 24.87    684.00     26.15
 24.97    761.00     27.59
 25.07    702.00     26.50
 25.17    717.36     26.78
 25.27    635.58     25.21
 25.37    691.30     26.29
 25.47    649.00     25.48
 25.57    680.57     26.09
 25.67    625.00     25.00
 25.77    631.00     25.12
 25.87    649.45     25.48
 25.97    681.00     26.10
 26.07    590.02     24.29
 26.17    628.99     25.08
 26.27    646.76     25.43
 26.37    656.00     25.61
 26.47    551.54     23.48
 26.57    609.98     24.70
 26.67    641.00     25.32
 26.77    729.00     27.00
 26.87    702.00     26.50
 26.97    722.00     26.87
 27.07    650.50     25.50
 27.17    746.00     27.31
 27.27    665.00     25.79
 27.37    741.00     27.22
 27.47    686.53     26.20
 27.57    702.00     26.50
 27.67    736.00     27.13
 27.77    727.00     26.96
 27.87    745.00     27.29
 27.97    719.00     26.81
 28.07    822.00     28.67
 28.17    780.78     27.94
 28.27    905.49     30.09
 28.37   1057.00     32.51
 28.47   1043.00     32.30
 28.57    905.65     30.09
 28.67    912.00     30.20
 28.77    911.00     30.18
 28.87    777.72     27.89
 28.97    976.00     31.24
 29.07    967.00     31.10
 29.17    993.00     31.51
 29.27    813.40     28.52
 29.37    827.00     28.76
 29.47    798.00     28.25
 29.57    738.00     27.17
 29.67    761.00     27.59
 29.77    724.00     26.91
 29.87    724.00     26.91
 29.97    724.00     26.91
 30.07    702.00     26.50
 30.17    703.00     26.51
 30.27    550.21     23.46
 30.37    560.67     23.68
 30.47    690.00     26.27
 30.57    582.98     24.15
 30.67    671.00     25.90
 30.77    657.16     25.64
 30.87    637.65     25.25
 30.97    717.71     26.79
 31.07    664.61     25.78
 31.17    708.26     26.61
 31.27    628.00     25.06
 31.37    627.01     25.04
 31.47    585.28     24.19
 31.57    609.39     24.69
 31.67    634.00     25.18
 31.77    613.00     24.76
 31.87    627.64     25.05
 31.97    611.00     24.72
 32.07    681.00     26.10
 32.17    547.61     23.40
 32.27    616.00     24.82
 32.37    608.00     24.66
 32.47    638.00     25.26
 32.57    621.00     24.92
 32.67    615.00     24.80
 32.77    630.00     25.10
 32.87    632.00     25.14
 32.97    555.57     23.57
 33.07    558.17     23.63
 33.17    573.00     23.94
 33.27    578.00     24.04
 33.37    641.00     25.32
 33.47    558.00     23.62
 33.57    675.00     25.98
 33.67    708.00     26.61
 33.77    754.22     27.46
 33.87    720.00     26.83
 33.97    835.00     28.90
 34.07   1017.00     31.89
 34.17   1025.00     32.02
 34.27   1082.00     32.89
 34.37   1007.00     31.73
 34.47    820.00     28.64
 34.57    752.28     27.43
 34.67    725.00     26.93
 34.77    603.00     24.56
 34.87    626.00     25.02
 34.97    629.00     25.08
 35.07    564.99     23.77
 35.17    597.00     24.43
 35.27    629.00     25.08
 35.37    590.00     24.29
 35.47    622.27     24.95
 35.57    568.00     23.83
 35.67    541.00     23.26
 35.77    541.00     23.26
 35.87    536.03     23.15
 35.97    567.63     23.82
 36.07    585.13     24.19
 36.17    570.58     23.89
 36.27    554.00     23.54
 36.37    573.54     23.95
 36.47    518.00     22.76
 36.57    529.00     23.00
 36.67    548.00     23.41
 36.77    553.00     23.52
 36.87    517.00     22.74
 36.97    558.00     23.62
 37.07    502.00     22.41
 37.17    567.00     23.81
 37.27    531.00     23.04
 37.37    541.00     23.26
 37.47    541.00     23.26
 37.57    542.00     23.28
 37.67    588.00     24.25
 37.77    524.72     22.91
 37.87    536.85     23.17
 37.97    623.09     24.96
 38.07    583.16     24.15
 38.17    619.97     24.90
 38.27    512.00     22.63
 38.37    571.00     23.90
 38.47    553.29     23.52
 38.57    585.26     24.19
 38.67    534.00     23.11
 38.77    515.00     22.69
 38.87    509.18     22.57
 38.97    523.00     22.87
 39.07    538.00     23.19
 39.17    595.66     24.41
 39.27    517.00     22.74
 39.37    578.00     24.04
 39.47    520.65     22.82
 39.57    534.29     23.11
 39.67    546.00     23.37
 39.77    508.43     22.55
 39.87    541.00     23.26
 39.97    523.00     22.87
 40.07    541.00     23.26
 40.17    498.19     22.32
 40.27    521.00     22.83
 40.37    572.79     23.93
 40.47    481.00     21.93
 40.57    573.75     23.95
 40.67    497.52     22.31
 40.77    584.00     24.17
 40.87    516.00     22.72
 40.97    546.32     23.37
 41.07    553.00     23.52
 41.17    525.08     22.91
 41.27    534.78     23.13
 41.37    572.95     23.94
 41.47    536.00     23.15
 41.57    566.62     23.80
 41.67    498.00     22.32
 41.77    557.00     23.60
 41.87    517.00     22.74
 41.97    491.00     22.16
 42.07    529.00     23.00
 42.17    590.01     24.29
 42.27    593.07     24.35
 42.37    569.00     23.85
 42.47    539.00     23.22
 42.57    638.90     25.28
 42.67    632.96     25.16
 42.77    688.45     26.24
 42.87    608.84     24.67
 42.97    626.00     25.02
 43.07    672.76     25.94
 43.17    572.00     23.92
 43.27    577.00     24.02
 43.37    561.00     23.69
 43.47    545.00     23.35
 43.57    570.00     23.87
 43.67    582.00     24.12
 43.77    553.00     23.52
 43.87    558.00     23.62
 43.97    519.00     22.78
 44.07    531.60     23.06
 44.17    557.00     23.60
 44.27    551.60     23.49
 44.37    513.31     22.66
 44.47    515.00     22.69
 44.57    492.00     22.18
 44.67    561.00     23.69
 44.77    540.27     23.24
 44.87    537.00     23.17
 44.97    549.00     23.43
 45.07    531.00     23.04
 45.17    531.00     23.04
 45.27    559.00     23.64
 45.37    523.00     22.87
 45.47    489.10     22.12
 45.57    517.00     22.74
 45.67    534.92     23.13
 45.77    559.00     23.64
 45.87    554.00     23.54
 45.97    552.24     23.50
 46.07    539.00     23.22
 46.17    511.48     22.62
 46.27    558.00     23.62
 46.37    522.00     22.85
 46.47    535.00     23.13
 46.57    536.00     23.15
 46.67    533.00     23.09
 46.77    531.00     23.04
 46.87    540.00     23.24
 46.97    582.04     24.13
 47.07    572.00     23.92
 47.17    551.18     23.48
 47.27    547.00     23.39
 47.37    551.00     23.47
 47.47    605.86     24.61
 47.57    583.00     24.15
 47.67    592.00     24.33
 47.77    634.45     25.19
 47.87    621.00     24.92
 47.97    588.29     24.25
 48.07    624.00     24.98
 48.17    660.75     25.70
 48.27    597.52     24.44
 48.37    615.00     24.80
 48.47    589.54     24.28
 48.57    541.00     23.26
 48.67    602.00     24.54
 48.77    532.21     23.07
 48.87    567.00     23.81
 48.97    586.00     24.21
 49.07    583.00     24.15
 49.17    578.00     24.04
 49.27    621.00     24.92
 49.37    602.00     24.54
 49.47    617.00     24.84
 49.57    671.00     25.90
 49.67    776.31     27.86
 49.77    815.00     28.55
 49.87    969.00     31.13
 49.97   1122.00     33.50
 50.07   1527.00     39.08
 50.17   1827.00     42.74
 50.27   2113.00     45.97
 50.37   2384.00     48.83
 50.47   2351.00     48.49
 50.57   2110.00     45.93
 50.67   1851.00     43.02
 50.77   1464.00     38.26
 50.87   1111.00     33.33
 50.97    998.29     31.60
 51.07    810.80     28.47
 51.17    734.00     27.09
 51.27    663.00     25.75
 51.37    717.22     26.78
 51.47    673.70     25.96
 51.57    653.23     25.56
 51.67    666.00     25.81
 51.77    586.75     24.22
 51.87    615.00     24.80
 51.97    638.65     25.27
 52.07    624.48     24.99
 52.17    593.00     24.35
 52.27    532.48     23.08
 52.37    565.40     23.78
 52.47    542.00     23.28
 52.57    613.00     24.76
 52.67    605.03     24.60
 52.77    598.65     24.47
 52.87    638.00     25.26
 52.97    659.00     25.67
 53.07    715.93     26.76
 53.17    705.00     26.55
 53.27    820.00     28.64
 53.37    898.99     29.98
 53.47   1039.68     32.24
 53.57   1151.24     33.93
 53.67   1223.00     34.97
 53.77   1234.00     35.13
 53.87   1194.00     34.55
 53.97   1065.00     32.63
 54.07    999.31     31.61
 54.17    906.00     30.10
 54.27    836.60     28.92
 54.37    764.00     27.64
 54.47    741.00     27.22
 54.57    640.00     25.30
 54.67    579.13     24.07
 54.77    633.00     25.16
 54.87    639.00     25.28
 54.97    548.01     23.41
 55.07    593.00     24.35
 55.17    646.00     25.42
 55.27    612.00     24.74
 55.37    610.00     24.70
 55.47    646.00     25.42
 55.57    638.68     25.27
 55.67    560.43     23.67
 55.77    672.29     25.93
 55.87    612.00     24.74
 55.97    643.00     25.36
 56.07    641.19     25.32
 56.17    770.46     27.76
 56.27    732.00     27.06
 56.37    784.00     28.00
 56.47    946.00     30.76
 56.57   1213.61     34.84
 56.67   1537.51     39.21
 56.77   1862.43     43.16
 56.87   2034.00     45.10
 56.97   2396.26     48.95
 57.07   2603.00     51.02
 57.17   2523.91     50.24
 57.27   2408.00     49.07
 57.37   2203.00     46.94
 57.47   1808.00     42.52
 57.57   1452.00     38.11
 57.67   1294.00     35.97
 57.77   1017.97     31.91
 57.87    995.28     31.55
 57.97    857.00     29.27
 58.07    839.00     28.97
 58.17    775.94     27.86
 58.27    714.39     26.73
 58.37    718.00     26.80
 58.47    818.31     28.61
 58.57    828.00     28.77
 58.67    877.00     29.61
 58.77    922.08     30.37
 58.87   1032.32     32.13
 58.97   1075.12     32.79
 59.07   1129.44     33.61
 59.17   1201.00     34.66
 59.27   1299.00     36.04
 59.37   1260.00     35.50
 59.47   1295.00     35.99
 59.57   1242.00     35.24
 59.67   1197.00     34.60
 59.77   1163.74     34.11
 59.87   1181.00     34.37
 59.97   1182.00     34.38
 60.07   1230.00     35.07
 60.17   1367.11     36.97
 60.27   1459.00     38.20
 60.37   1513.23     38.90
 60.47   1526.00     39.06
 60.57   1517.35     38.95
 60.67   1546.00     39.32
 60.77   1382.00     37.18
 60.87   1194.00     34.55
 60.97   1050.22     32.41
 61.07    901.00     30.02
 61.17    843.00     29.03
 61.27    725.06     26.93
 61.37    746.93     27.33
 61.47    764.13     27.64
 61.57    683.74     26.15
 61.67    784.09     28.00
 61.77    842.00     29.02
 61.87    867.50     29.45
 61.97   1043.59     32.30
 62.07   1083.56     32.92
 62.17   1152.00     33.94
 62.27   1266.00     35.58
 62.37   1300.00     36.06
 62.47   1300.00     36.06
 62.57   1306.00     36.14
 62.67   1178.00     34.32
 62.77   1125.00     33.54
 62.87    983.00     31.35
 62.97    936.00     30.59
 63.07    795.05     28.20
 63.17    768.77     27.73
 63.27    662.33     25.74
 63.37    688.64     26.24
 63.47    661.04     25.71
 63.57    627.00     25.04
 63.67    588.61     24.26
 63.77    625.00     25.00
 63.87    646.00     25.42
 63.97    687.00     26.21
 64.07    637.99     25.26
 64.17    716.37     26.77
 64.27    768.22     27.72
 64.37    721.00     26.85
 64.47    780.19     27.93
 64.57    863.84     29.39
 64.67    979.00     31.29
 64.77   1039.00     32.23
 64.87   1061.00     32.57
 64.97   1139.00     33.75
 65.07   1100.39     33.17
 65.17   1022.00     31.97
 65.27   1012.75     31.82
 65.37    896.91     29.95
 65.47    833.98     28.88
 65.57    759.35     27.56
 65.67    724.00     26.91
 65.77    671.00     25.90
 65.87    714.69     26.73
 65.97    653.00     25.55
 66.07    635.51     25.21
 66.17    624.74     24.99
 66.27    626.91     25.04
 66.37    605.00     24.60
 66.47    616.00     24.82
 66.57    642.41     25.35
 66.67    662.13     25.73
 66.77    626.00     25.02
 66.87    656.00     25.61
 66.97    575.42     23.99
 67.07    658.00     25.65
 67.17    669.00     25.87
 67.27    681.00     26.10
 67.37    769.73     27.74
 67.47    730.00     27.02
 67.57    913.00     30.22
 67.67   1021.00     31.95
 67.77   1280.72     35.79
 67.87   1390.52     37.29
 67.97   1624.00     40.30
 68.07   1796.64     42.39
 68.17   2109.00     45.92
 68.27   2263.00     47.57
 68.37   2309.00     48.05
 68.47   2277.00     47.72
 68.57   2200.00     46.90
 68.67   2107.00     45.90
 68.77   1888.20     43.45
 68.87   1558.00     39.47
 68.97   1450.00     38.08
 69.07   1124.00     33.53
 69.17   1002.68     31.67
 69.27    935.00     30.58
 69.37    841.45     29.01
 69.47    796.21     28.22
 69.57    746.91     27.33
 69.67    638.00     25.26
 69.77    630.00     25.10
 69.87    639.00     25.28
 69.97    659.82     25.69
 70.07    584.00     24.17
 70.17    613.00     24.76
 70.27    582.61     24.14
 70.37    667.00     25.83
 70.47    592.00     24.33
 70.57    616.00     24.82
 70.67    589.47     24.28
 70.77    564.78     23.77
 70.87    610.76     24.71
 70.97    671.00     25.90
 71.07    594.83     24.39
 71.17    693.00     26.32
 71.27    734.72     27.11
 71.37    794.00     28.18
 71.47    832.34     28.85
 71.57    907.00     30.12
 71.67    960.00     30.98
 71.77   1105.02     33.24
 71.87   1273.00     35.68
 71.97   1466.06     38.29
 72.07   1626.00     40.32
 72.17   1729.02     41.58
 72.27   1765.00     42.01
 72.37   1898.00     43.57
 72.47   1841.00     42.91
 72.57   1752.88     41.87
 72.67   1580.50     39.76
 72.77   1476.00     38.42
 72.87   1366.00     36.96
 72.97   1217.55     34.89
 73.07    995.80     31.56
 73.17    954.00     30.89
 73.27    846.00     29.09
 73.37    844.00     29.05
 73.47    695.67     26.38
 73.57    705.00     26.55
 73.67    684.00     26.15
 73.77    637.00     25.24
 73.87    648.00     25.46
 73.97    641.85     25.33
 74.07    658.00     25.65
 74.17    564.00     23.75
 74.27    624.00     24.98
 74.37    622.00     24.94
 74.47    623.00     24.96
 74.57    644.00     25.38
 74.67    622.00     24.94
 74.77    645.00     25.40
 74.87    629.00     25.08
 74.97    737.00     27.15
 75.07    599.17     24.48
 75.17    689.00     26.25
 75.27    573.15     23.94
 75.37    519.55     22.79
 75.47    639.00     25.28
 75.57    629.00     25.08
 75.67    583.00     24.15
 75.77    579.00     24.06
 75.87    649.00     25.48
 75.97    623.00     24.96
 76.07    618.00     24.86
 76.17    656.00     25.61
 76.27    683.48     26.14
 76.37    682.00     26.12
 76.47    646.00     25.42
 76.57    674.00     25.96
 76.67    731.00     27.04
 76.77    713.00     26.70
 76.87    724.00     26.91
 76.97    772.00     27.78
 77.07    714.00     26.72
 77.17    745.00     27.29
 77.27    657.00     25.63
 77.37    619.41     24.89
 77.47    648.00     25.46
 77.57    657.91     25.65
 77.67    575.00     23.98
 77.77    582.83     24.14
 77.87    541.01     23.26
 77.97    559.60     23.66
 78.07    559.00     23.64
 78.17    506.52     22.51
 78.27    573.00     23.94
 78.37    521.00     22.83
 78.47    555.00     23.56
 78.57    560.00     23.66
 78.67    595.28     24.40
 78.77    500.75     22.38
 78.87    553.00     23.52
 78.97    583.18     24.15
 79.07    572.00     23.92
 79.17    535.00     23.13
 79.27    518.00     22.76
 79.37    571.00     23.90
 79.47    526.00     22.93
 79.57    561.59     23.70
 79.67    534.11     23.11
 79.77    510.44     22.59
 79.87    535.00     23.13
 79.97    563.00     23.73
 80.07    499.39     22.35
 80.17    577.00     24.02
 80.27    608.25     24.66
 80.37    609.00     24.68
 80.47    636.03     25.22
 80.57    633.46     25.17
 80.67    612.03     24.74
 80.77    588.00     24.25
 80.87    650.00     25.50
 80.97    649.44     25.48
 81.07    653.00     25.55
 81.17    646.39     25.42
 81.27    671.12     25.91
 81.37    709.00     26.63
 81.47    763.14     27.62
 81.57    740.00     27.20
 81.67    754.00     27.46
 81.77    776.00     27.86
 81.87    801.00     28.30
 81.97    797.47     28.24
 82.07    781.45     27.95
 82.17    713.00     26.70
 82.27    779.00     27.91
 82.37    674.00     25.96
 82.47    641.34     25.32
 82.57    669.00     25.87
 82.67    656.00     25.61
 82.77    608.00     24.66
 82.87    578.29     24.05
 82.97    602.00     24.54
 83.07    602.00     24.54
 83.17    582.00     24.12
 83.27    581.66     24.12
 83.37    551.00     23.47
 83.47    579.00     24.06
 83.57    546.00     23.37
 83.67    583.00     24.15
 83.77    597.00     24.43
 83.87    585.00     24.19
 83.97    558.00     23.62
 84.07    601.00     24.52
 84.17    556.00     23.58
 84.27    580.00     24.08
 84.37    591.00     24.31
 84.47    562.00     23.71
 84.57    556.00     23.58
 84.67    546.00     23.37
 84.77    592.00     24.33
 84.87    614.08     24.78
 84.97    582.80     24.14
 85.07    570.32     23.88
 85.17    548.00     23.41
 85.27    553.00     23.52
 85.37    503.20     22.43
 85.47    611.00     24.72
 85.57    544.97     23.34
 85.67    579.27     24.07
 85.77    537.00     23.17
 85.87    526.00     22.93
 85.97    594.00     24.37
 86.07    585.00     24.19
 86.17    540.53     23.25
 86.27    510.07     22.58
 86.37    575.00     23.98
 86.47    548.01     23.41
 86.57    538.75     23.21
 86.67    576.00     24.00
 86.77    563.00     23.73
 86.87    565.00     23.77
 86.97    566.60     23.80
 87.07    610.00     24.70
 87.17    612.00     24.74
 87.27    603.58     24.57
 87.37    575.06     23.98
 87.47    632.00     25.14
 87.57    607.00     24.64
 87.67    675.00     25.98
 87.77    654.00     25.57
 87.87    647.00     25.44
 87.97    686.00     26.19
 88.07    646.00     25.42
 88.17    624.16     24.98
 88.27    615.00     24.80
 88.37    657.92     25.65
 88.47    628.00     25.06
 88.57    622.00     24.94
 88.67    558.00     23.62
 88.77    589.22     24.27
 88.87    603.00     24.56
 88.97    610.00     24.70
 89.07    602.84     24.55
 89.17    568.00     23.83
 89.27    634.00     25.18
 89.37    582.29     24.13
 89.47    629.00     25.08
 89.57    604.00     24.58
 89.67    670.36     25.89
 89.77    585.00     24.19
 89.87    546.00     23.37
 89.97    584.42     24.17
 90.07    583.00     24.15
 90.17    623.00     24.96
 90.27    619.00     24.88
 90.37    603.00     24.56
 90.47    622.00     24.94
 90.57    594.00     24.37
 90.67    547.09     23.39
 90.77    547.00     23.39
 90.87    483.00     21.98
 90.97    571.08     23.90
 91.07    543.00     23.30
 91.17    535.84     23.15
 91.27    518.15     22.76
 91.37    526.00     22.93
 91.47    508.00     22.54
 91.57    538.00     23.19
 91.67    566.00     23.79
 91.77    538.00     23.19
 91.87    581.06     24.11
 91.97    577.01     24.02
 92.07    536.00     23.15
 92.17    534.00     23.11
 92.27    522.00     22.85
 92.37    587.00     24.23
 92.47    572.00     23.92
 92.57    503.00     22.43
 92.67    544.00     23.32
 92.77    626.00     25.02
 92.87    624.00     24.98
 92.97    615.00     24.80
 93.07    633.00     25.16
 93.17    675.76     26.00
 93.27    735.00     27.11
 93.37    655.00     25.59
 93.47    709.00     26.63
 93.57    788.00     28.07
 93.67    770.00     27.75
 93.77    743.00     27.26
 93.87    836.00     28.91
 93.97    839.59     28.98
 94.07    838.00     28.95
 94.17    836.00     28.91
 94.27    793.00     28.16
 94.37    870.66     29.51
 94.47    836.00     28.91
 94.57    905.90     30.10
 94.67    840.00     28.98
 94.77    897.00     29.95
 94.87    917.00     30.28
 94.97    946.00     30.76
 95.07    953.66     30.88
 95.17    916.00     30.27
 95.27    948.17     30.79
 95.37    928.00     30.46
 95.47    966.92     31.10
 95.57    899.00     29.98
 95.67    879.00     29.65
 95.77    857.00     29.27
 95.87    873.63     29.56
 95.97    760.00     27.57
 96.07    776.00     27.86
 96.17    815.75     28.56
 96.27    719.00     26.81
 96.37    723.00     26.89
 96.47    728.00     26.98
 96.57    754.00     27.46
 96.67    775.00     27.84
 96.77    839.79     28.98
 96.87    844.00     29.05
 96.97    951.99     30.85
 97.07    907.00     30.12
 97.17   1036.00     32.19
 97.27   1066.00     32.65
 97.37   1154.00     33.97
 97.47   1169.82     34.20
 97.57   1275.00     35.71
 97.67   1397.00     37.38
 97.77   1452.00     38.11
 97.87   1476.41     38.42
 97.97   1488.00     38.57
 98.07   1494.00     38.65
 98.17   1492.00     38.63
 98.27   1376.59     37.10
 98.37   1312.00     36.22
 98.47   1422.43     37.72
 98.57   1285.19     35.85
 98.67   1292.97     35.96
 98.77   1188.00     34.47
 98.87   1072.00     32.74
 98.97   1087.00     32.97
 99.07   1029.00     32.08
 99.17    986.00     31.40
 99.27    922.00     30.36
 99.37    985.23     31.39
 99.47    922.00     30.36
 99.57    920.73     30.34
 99.67    933.00     30.55
 99.77   1019.00     31.92
 99.87   1074.74     32.78
 99.97   1014.90     31.86
100.07   1181.00     34.37
100.17   1258.97     35.48
100.27   1394.00     37.34
100.37   1362.54     36.91
100.47   1439.14     37.94
100.57   1661.12     40.76
100.67   1670.00     40.87
100.77   1857.00     43.09
100.87   1896.37     43.55
100.97   1954.00     44.20
101.07   1953.00     44.19
101.17   1981.49     44.51
101.27   2051.86     45.30
101.37   2003.00     44.75
101.47   2017.00     44.91
101.57   1857.58     43.10
101.67   1845.00     42.95
101.77   1815.00     42.60
101.87   1670.54     40.87
101.97   1725.00     41.53
102.07   1607.00     40.09
102.17   1556.00     39.45
102.27   1446.00     38.03
102.37   1482.40     38.50
102.47   1418.97     37.67
102.57   1254.38     35.42
102.67   1233.58     35.12
102.77   1177.00     34.31
102.87   1182.77     34.39
102.97   1169.67     34.20
103.07   1093.00     33.06
103.17   1173.55     34.26
103.27   1129.00     33.60
103.37   1016.82     31.89
103.47    981.57     31.33
103.57   1001.24     31.64
103.67    986.00     31.40
103.77    873.91     29.56
103.87    889.05     29.82
103.97    891.00     29.85
104.07    837.00     28.93
104.17    781.00     27.95
104.27    779.00     27.91
104.37    697.00     26.40
104.47    627.36     25.05
104.57    639.65     25.29
104.67    634.00     25.18
104.77    656.00     25.61
104.87    608.00     24.66
104.97    629.39     25.09
105.07    523.70     22.88
105.17    568.79     23.85
105.27    566.00     23.79
105.37    556.00     23.58
105.47    518.91     22.78
105.57    563.33     23.73
105.67    554.00     23.54
105.77    577.00     24.02
105.87    556.33     23.59
105.97    595.00     24.39
106.07    542.19     23.29
106.17    535.91     23.15
106.27    527.77     22.97
106.37    574.37     23.97
106.47    607.77     24.65
106.57    583.00     24.15
106.67    599.00     24.47
106.77    654.79     25.59
106.87    561.91     23.70
106.97    662.02     25.73
107.07    667.00     25.83
107.17    674.00     25.96
107.27    710.32     26.65
107.37    670.00     25.88
107.47    691.62     26.30
107.57    714.76     26.74
107.67    718.73     26.81
107.77    704.53     26.54
107.87    718.00     26.80
107.97    713.00     26.70
108.07    676.00     26.00
108.17    715.00     26.74
108.27    709.99     26.65
108.37    687.00     26.21
108.47    700.00     26.46
108.57    704.00     26.53
108.67    746.57     27.32
108.77    677.00     26.02
108.87    701.00     26.48
108.97    685.00     26.17
109.07    738.00     27.17
109.17    694.02     26.34
109.27    668.73     25.86
109.37    707.95     26.61
109.47    664.01     25.77
109.57    734.35     27.10
109.67    688.00     26.23
109.77    709.00     26.63
109.87    692.00     26.31
109.97    690.00     26.27
110.07    703.00     26.51
110.17    700.00     26.46
110.27    669.00     25.87
110.37    665.80     25.80
110.47    635.00     25.20
110.57    640.00     25.30
110.67    623.91     24.98
110.77    666.03     25.81
110.87    610.00     24.70
110.97    598.00     24.45
111.07    594.59     24.38
111.17    605.00     24.60
111.27    526.42     22.94
111.37    561.00     23.69
111.47    567.00     23.81
111.57    583.00     24.15
111.67    637.00     25.24
111.77    592.00     24.33
111.87    612.00     24.74
111.97    560.00     23.66
112.07    601.87     24.53
112.17    589.00     24.27
112.27    565.00     23.77
112.37    572.37     23.92
112.47    584.47     24.18
112.57    548.00     23.41
112.67    540.00     23.24
112.77    562.00     23.71
112.87    530.51     23.03
112.97    572.00     23.92
113.07    591.00     24.31
113.17    576.60     24.01
113.27    573.00     23.94
113.37    593.00     24.35
113.47    632.37     25.15
113.57    653.00     25.55
113.67    657.00     25.63
113.77    675.52     25.99
113.87    707.00     26.59
113.97    686.00     26.19
114.07    705.00     26.55
114.17    731.82     27.05
114.27    716.24     26.76
114.37    730.00     27.02
114.47    791.58     28.14
114.57    774.00     27.82
114.67    933.23     30.55
114.77    968.30     31.12
114.87   1054.83     32.48
114.97   1129.00     33.60
115.07   1198.00     34.61
115.17   1324.00     36.39
115.27   1556.00     39.45
115.37   1595.48     39.94
115.47   1858.00     43.10
115.57   2210.00     47.01
115.67   2379.25     48.78
115.77   2721.00     52.16
115.87   2727.61     52.23
115.97   3202.00     56.59
116.07   3493.49     59.11
116.17   3959.00     62.92
116.27   4294.04     65.53
116.37   4789.00     69.20
116.47   5096.00     71.39
116.57   5443.00     73.78
116.67   5789.00     76.09
116.77   6010.00     77.52
116.87   6367.14     79.79
116.97   6739.00     82.09
117.07   7016.99     83.77
117.17   6951.91     83.38
117.27   7085.00     84.17
117.37   7039.00     83.90
117.47   6980.00     83.55
117.57   6836.00     82.68
117.67   6813.00     82.54
117.77   6286.00     79.28
117.87   6150.00     78.42
117.97   6048.73     77.77
118.07   5321.00     72.95
118.17   5038.00     70.98
118.27   4789.00     69.20
118.37   4464.00     66.81
118.47   3975.98     63.06
118.57   3575.00     59.79
118.67   3423.18     58.51
118.77   3046.00     55.19
118.87   2715.00     52.11
118.97   2559.00     50.59
119.07   2170.24     46.59
119.17   2013.00     44.87
119.27   1761.00     41.96
119.37   1606.50     40.08
119.47   1414.00     37.60
119.57   1424.74     37.75
119.67   1316.00     36.28
119.77   1245.11     35.29
119.87   1076.00     32.80
119.97    998.00     31.59
120.07    891.35     29.86
120.17    893.00     29.88
120.27    796.00     28.21
120.37    766.00     27.68
120.47    794.00     28.18
120.57    735.00     27.11
120.67    753.00     27.44
120.77    761.59     27.60
120.87    724.66     26.92
120.97    682.00     26.12
121.07    670.00     25.88
121.17    605.00     24.60
121.27    643.00     25.36
121.37    630.60     25.11
121.47    590.57     24.30
121.57    625.00     25.00
121.67    577.52     24.03
121.77    644.00     25.38
121.87    601.40     24.52
121.97    618.00     24.86
122.07    660.00     25.69
122.17    574.00     23.96
122.27    586.00     24.21
122.37    647.00     25.44
122.47    671.82     25.92
122.57    643.33     25.36
122.67    649.00     25.48
122.77    638.00     25.26
122.87    605.00     24.60
122.97    680.00     26.08
123.07    639.00     25.28
123.17    656.66     25.63
123.27    637.20     25.24
123.37    702.09     26.50
123.47    663.00     25.75
123.57    646.00     25.42
123.67    672.00     25.92
123.77    670.00     25.88
123.87    690.00     26.27
123.97    600.90     24.51
124.07    656.00     25.61
124.17    612.00     24.74
124.27    657.00     25.63
124.37    642.18     25.34
124.47    654.00     25.57
124.57    632.00     25.14
124.67    637.00     25.24
124.77    614.00     24.78
124.87    653.00     25.55
124.97    622.00     24.94
