XYDATA



INTER 1.0 1.0 0 0
TEMP 677.764
  9.97    670.00     25.88
 10.07    703.00     26.51
 10.17    688.00     26.23
 10.27    655.50     25.60
 10.37    646.00     25.42
 10.47    651.06     25.52
 10.57    698.00     26.42
 10.67    681.00     26.10
 10.77    635.00     25.20
 10.87    667.00     25.83
 10.97    660.25     25.70
 11.07    684.00     26.15
 11.17    693.64     26.34
 11.27    660.00     25.69
 11.37    648.83     25.47
 11.47    657.15     25.63
 11.57    671.00     25.90
 11.67    720.00     26.83
 11.77    737.00     27.15
 11.87    706.00     26.57
 11.97    638.41     25.27
 12.07    827.00     28.76
 12.17    780.00     27.93
 12.27    835.47     28.90
 12.37    772.00     27.78
 12.47    765.00     27.66
 12.57    726.00     26.94
 12.67    642.01     25.34
 12.77    661.76     25.72
 12.87    633.00     25.16
 12.97    641.78     25.33
 13.07    689.05     26.25
 13.17    607.00     24.64
 13.27    620.00     24.90
 13.37    639.00     25.28
 13.47    619.00     24.88
 13.57    603.79     24.57
 13.67    673.89     25.96
 13.77    664.00     25.77
 13.87    620.00     24.90
 13.97    623.00     24.96
 14.07    597.00     24.43
 14.17    658.00     25.65
 14.27    562.00     23.71
 14.37    589.15     24.27
 14.47    618.00     24.86
 14.57    594.00     24.37
 14.67    672.00     25.92
 14.77    612.00     24.74
 14.87    591.00     24.31
 14.97    615.00     24.80
 15.07    582.46     24.13
 15.17    594.00     24.37
 15.27    625.00     25.00
 15.37    612.00     24.74
 15.47    616.73     24.83
 15.57    576.00     24.00
 15.67    649.27     25.48
 15.77    608.00     24.66
 15.87    582.00     24.12
 15.97    581.19     24.11
 16.07    627.00     25.04
 16.17    635.00     25.20
 16.27    621.00     24.92
 16.37    566.00     23.79
 16.47    654.98     25.59
 16.57    618.00     24.86
 16.67    608.00     24.66
 16.77    609.00     24.68
 16.87    667.41     25.83
 16.97    599.00     24.47
 17.07    652.00     25.53
 17.17    630.00     25.10
 17.27    575.28     23.99
 17.37    597.09     24.44
 17.47    574.16     23.96
 17.57    585.00     24.19
 17.67    620.00     24.90
 17.77    565.00     23.77
 17.87    624.22     24.98
 17.97    616.00     24.82
 18.07    595.00     24.39
 18.17    629.00     25.08
 18.27    627.00     25.04
 18.37    617.07     24.84
 18.47    563.00     23.73
 18.57    622.00     24.94
 18.67    618.00     24.86
 18.77    586.81     24.22
 18.87    600.00     24.49
 18.97    590.00     24.29
 19.07    596.00     24.41
 19.17    626.00     25.02
 19.27    648.78     25.47
 19.37    615.00     24.80
 19.47    578.00     24.04
 19.57    600.00     24.49
 19.67    559.00     23.64
 19.77    658.22     25.66
 19.87    604.00     24.58
 19.97    623.00     24.96
 20.07    604.00     24.58
 20.17    606.80     24.63
 20.27    573.22     23.94
 20.37    603.00     24.56
 20.47    612.00     24.74
 20.57    630.00     25.10
 20.67    593.00     24.35
 20.77    538.00     23.19
 20.87    598.64     24.47
 20.97    614.00     24.78
 21.07    602.00     24.54
 21.17    609.60     24.69
 21.27    594.00     24.37
 21.37    644.54     25.39
 21.47    551.00     23.47
 21.57    635.89     25.22
 21.67    561.00     23.69
 21.77    646.07     25.42
 21.87    592.00     24.33
 21.97    567.62     23.82
 22.07    641.04     25.32
 22.17    587.00     24.23
 22.27    590.00     24.29
 22.37    569.46     23.86
 22.47    592.00     24.33
 22.57    612.00     24.74
 22.67    576.00     24.00
 22.77    612.80     24.75
 22.87    559.00     23.64
 22.97    614.00     24.78
 23.07    623.04     24.96
 23.17    609.00     24.68
 23.27    633.00     25.16
 23.37    617.00     24.84
 23.47    613.00     24.76
 23.57    554.00     23.54
 23.67    604.86     24.59
 23.77    646.00     25.42
 23.87    596.00     24.41
 23.97    564.21     23.75
 24.07    592.00     24.33
 24.17    605.00     24.60
 24.27    636.00     25.22
 24.37    633.00     25.16
 24.47    574.85     23.98
 24.57    690.00     26.27
 24.67    678.00     26.04
 24.77    713.00     26.70
 24.87    735.00     27.11
 24.97    707.53     26.60
 25.07    625.50     25.01
 25.17    667.00     25.83
 25.27    655.00     25.59
 25.37    649.00     25.48
 25.47    640.94     25.32
 25.57    609.00     24.68
 25.67    633.00     25.16
 25.77    617.00     24.84
 25.87    618.00     24.86
 25.97    651.00     25.51
 26.07    628.00     25.06
 26.17    561.53     23.70
 26.27    596.28     24.42
 26.37    600.00     24.49
 26.47    619.57     24.89
 26.57    635.56     25.21
 26.67    617.65     24.85
 26.77    589.96     24.29
 26.87    615.00     24.80
 26.97    666.00     25.81
 27.07    613.00     24.76
 27.17    658.54     25.66
 27.27    696.17     26.39
 27.37    712.00     26.68
 27.47    711.00     26.66
 27.57    754.00     27.46
 27.67    767.00     27.69
 27.77    781.00     27.95
 27.87    937.10     30.61
 27.97   1115.26     33.40
 28.07   1622.09     40.28
 28.17   2350.54     48.48
 28.27   3270.00     57.18
 28.37   3872.00     62.23
 28.47   3893.00     62.39
 28.57   3166.00     56.27
 28.67   2312.00     48.08
 28.77   2009.00     44.82
 28.87   1926.00     43.89
 28.97   2110.72     45.94
 29.07   2423.00     49.22
 29.17   2323.00     48.20
 29.27   1848.88     43.00
 29.37   1512.00     38.88
 29.47   1204.00     34.70
 29.57    936.65     30.60
 29.67    860.00     29.33
 29.77    754.00     27.46
 29.87    695.10     26.36
 29.97    721.00     26.85
 30.07    726.00     26.94
 30.17    602.69     24.55
 30.27    641.55     25.33
 30.37    675.00     25.98
 30.47    630.00     25.10
 30.57    706.00     26.57
 30.67    651.00     25.51
 30.77    692.00     26.31
 30.87    651.32     25.52
 30.97    731.00     27.04
 31.07    735.00     27.11
 31.17    680.39     26.08
 31.27    706.00     26.57
 31.37    637.21     25.24
 31.47    654.35     25.58
 31.57    612.00     24.74
 31.67    630.00     25.10
 31.77    598.00     24.45
 31.87    574.23     23.96
 31.97    591.00     24.31
 32.07    556.57     23.59
 32.17    577.06     24.02
 32.27    551.89     23.49
 32.37    536.98     23.17
 32.47    576.00     24.00
 32.57    628.00     25.06
 32.67    530.71     23.04
 32.77    606.00     24.62
 32.87    611.00     24.72
 32.97    610.00     24.70
 33.07    629.00     25.08
 33.17    634.00     25.18
 33.27    619.00     24.88
 33.37    628.00     25.06
 33.47    622.42     24.95
 33.57    663.00     25.75
 33.67    634.01     25.18
 33.77    699.00     26.44
 33.87    733.86     27.09
 33.97    844.00     29.05
 34.07    953.98     30.89
 34.17   1024.94     32.01
 34.27   1104.00     33.23
 34.37   1040.67     32.26
 34.47    943.42     30.72
 34.57    780.75     27.94
 34.67    776.00     27.86
 34.77    665.12     25.79
 34.87    650.75     25.51
 34.97    663.00     25.75
 35.07    589.96     24.29
 35.17    583.00     24.15
 35.27    628.00     25.06
 35.37    524.00     22.89
 35.47    529.18     23.00
 35.57    558.00     23.62
 35.67    594.52     24.38
 35.77    537.00     23.17
 35.87    560.00     23.66
 35.97    556.00     23.58
 36.07    536.00     23.15
 36.17    590.50     24.30
 36.27    584.00     24.17
 36.37    570.00     23.87
 36.47    545.00     23.35
 36.57    566.10     23.79
 36.67    537.06     23.17
 36.77    588.00     24.25
 36.87    547.00     23.39
 36.97    536.00     23.15
 37.07    549.00     23.43
 37.17    556.28     23.59
 37.27    526.66     22.95
 37.37    570.00     23.87
 37.47    543.50     23.31
 37.57    548.00     23.41
 37.67    586.00     24.21
 37.77    545.00     23.35
 37.87    577.00     24.02
 37.97    638.97     25.28
 38.07    599.00     24.47
 38.17    614.00     24.78
 38.27    620.00     24.90
 38.37    619.00     24.88
 38.47    650.81     25.51
 38.57    592.00     24.33
 38.67    558.97     23.64
 38.77    543.00     23.30
 38.87    511.00     22.61
 38.97    548.13     23.41
 39.07    536.18     23.16
 39.17    519.00     22.78
 39.27    508.06     22.54
 39.37    551.00     23.47
 39.47    528.40     22.99
 39.57    559.00     23.64
 39.67    559.00     23.64
 39.77    554.00     23.54
 39.87    530.83     23.04
 39.97    557.00     23.60
 40.07    540.00     23.24
 40.17    573.58     23.95
 40.27    509.87     22.58
 40.37    510.00     22.58
 40.47    522.43     22.86
 40.57    587.00     24.23
 40.67    537.00     23.17
 40.77    553.12     23.52
 40.87    596.33     24.42
 40.97    571.00     23.90
 41.07    516.04     22.72
 41.17    509.00     22.56
 41.27    540.00     23.24
 41.37    499.00     22.34
 41.47    536.00     23.15
 41.57    594.44     24.38
 41.67    525.00     22.91
 41.77    589.86     24.29
 41.87    528.00     22.98
 41.97    540.00     23.24
 42.07    539.00     23.22
 42.17    551.00     23.47
 42.27    519.63     22.80
 42.37    577.00     24.02
 42.47    544.00     23.32
 42.57    595.14     24.40
 42.67    583.68     24.16
 42.77    604.00     24.58
 42.87    620.00     24.90
 42.97    615.00     24.80
 43.07    675.13     25.98
 43.17    673.93     25.96
 43.27    583.92     24.16
 43.37    615.53     24.81
 43.47    560.00     23.66
 43.57    528.00     22.98
 43.67    550.38     23.46
 43.77    580.00     24.08
 43.87    564.00     23.75
 43.97    574.00     23.96
 44.07    581.69     24.12
 44.17    575.28     23.98
 44.27    537.00     23.17
 44.37    557.00     23.60
 44.47    541.77     23.28
 44.57    574.26     23.96
 44.67    587.59     24.24
 44.77    548.00     23.41
 44.87    546.00     23.37
 44.97    562.00     23.71
 45.07    598.68     24.47
 45.17    531.79     23.06
 45.27    541.89     23.28
 45.37    532.00     23.07
 45.47    545.00     23.35
 45.57    520.75     22.82
 45.67    577.69     24.04
 45.77    526.00     22.93
 45.87    564.62     23.76
 45.97    502.28     22.41
 46.07    536.00     23.15
 46.17    548.00     23.41
 46.27    571.00     23.90
 46.37    583.00     24.15
 46.47    523.38     22.88
 46.57    534.00     23.11
 46.67    544.00     23.32
 46.77    509.08     22.56
 46.87    557.00     23.60
 46.97    567.00     23.81
 47.07    521.85     22.84
 47.17    581.29     24.11
 47.27    603.40     24.56
 47.37    562.00     23.71
 47.47    582.00     24.12
 47.57    562.00     23.71
 47.67    580.00     24.08
 47.77    558.62     23.64
 47.87    576.09     24.00
 47.97    628.00     25.06
 48.07    670.00     25.88
 48.17    589.40     24.28
 48.27    651.64     25.53
 48.37    638.00     25.26
 48.47    641.42     25.33
 48.57    581.00     24.10
 48.67    589.25     24.27
 48.77    549.00     23.43
 48.87    642.00     25.34
 48.97    564.20     23.75
 49.07    563.00     23.73
 49.17    584.38     24.17
 49.27    582.00     24.12
 49.37    596.00     24.41
 49.47    675.68     25.99
 49.57    639.39     25.29
 49.67    689.00     26.25
 49.77    771.00     27.77
 49.87    892.00     29.87
 49.97   1157.00     34.01
 50.07   1439.00     37.93
 50.17   1846.30     42.97
 50.27   2162.00     46.50
 50.37   2511.00     50.11
 50.47   2771.16     52.64
 50.57   2669.00     51.66
 50.67   2248.00     47.41
 50.77   1891.00     43.49
 50.87   1486.00     38.55
 50.97   1217.33     34.89
 51.07    966.00     31.08
 51.17    793.34     28.17
 51.27    767.32     27.70
 51.37    728.00     26.98
 51.47    700.00     26.46
 51.57    651.36     25.52
 51.67    668.00     25.85
 51.77    656.00     25.61
 51.87    648.00     25.46
 51.97    616.45     24.83
 52.07    571.81     23.91
 52.17    621.00     24.92
 52.27    600.00     24.49
 52.37    673.00     25.94
 52.47    649.89     25.49
 52.57    637.00     25.24
 52.67    560.24     23.67
 52.77    654.00     25.57
 52.87    679.00     26.06
 52.97    663.00     25.75
 53.07    626.11     25.02
 53.17    746.00     27.31
 53.27    789.00     28.09
 53.37    817.00     28.58
 53.47    903.00     30.05
 53.57   1099.00     33.15
 53.67   1171.00     34.22
 53.77   1231.00     35.09
 53.87   1201.58     34.66
 53.97   1267.00     35.59
 54.07   1106.00     33.26
 54.17   1044.09     32.31
 54.27    946.00     30.76
 54.37    772.50     27.79
 54.47    719.04     26.81
 54.57    750.45     27.39
 54.67    649.00     25.48
 54.77    661.00     25.71
 54.87    650.00     25.50
 54.97    638.00     25.26
 55.07    659.00     25.67
 55.17    639.01     25.28
 55.27    644.00     25.38
 55.37    638.56     25.27
 55.47    639.00     25.28
 55.57    617.88     24.86
 55.67    649.00     25.48
 55.77    610.00     24.70
 55.87    632.00     25.14
 55.97    692.00     26.31
 56.07    641.00     25.32
 56.17    777.00     27.87
 56.27    715.95     26.76
 56.37    796.87     28.23
 56.47    892.52     29.88
 56.57   1035.00     32.17
 56.67   1207.00     34.74
 56.77   1528.00     39.09
 56.87   1910.00     43.70
 56.97   2244.00     47.37
 57.07   2509.00     50.09
 57.17   2626.00     51.24
 57.27   2616.00     51.15
 57.37   2377.00     48.75
 57.47   2096.00     45.78
 57.57   1794.00     42.36
 57.67   1455.00     38.14
 57.77   1211.00     34.80
 57.87    977.00     31.26
 57.97    838.00     28.95
 58.07    803.00     28.34
 58.17    721.95     26.87
 58.27    776.41     27.86
 58.37    744.00     27.28
 58.47    758.00     27.53
 58.57    797.98     28.25
 58.67    897.00     29.95
 58.77    924.00     30.40
 58.87   1038.67     32.23
 58.97   1097.62     33.13
 59.07   1170.00     34.21
 59.17   1261.00     35.51
 59.27   1233.05     35.11
 59.37   1284.00     35.83
 59.47   1258.00     35.47
 59.57   1195.13     34.57
 59.67   1213.00     34.83
 59.77   1148.00     33.88
 59.87   1136.00     33.70
 59.97   1165.32     34.14
 60.07   1147.24     33.87
 60.17   1316.02     36.28
 60.27   1377.00     37.11
 60.37   1456.00     38.16
 60.47   1615.00     40.19
 60.57   1612.00     40.15
 60.67   1559.32     39.49
 60.77   1409.00     37.54
 60.87   1395.00     37.35
 60.97   1212.00     34.81
 61.07   1101.00     33.18
 61.17    910.47     30.17
 61.27    833.00     28.86
 61.37    767.03     27.70
 61.47    772.41     27.79
 61.57    769.00     27.73
 61.67    754.96     27.48
 61.77    843.00     29.03
 61.87    886.00     29.77
 61.97    934.00     30.56
 62.07   1018.00     31.91
 62.17   1146.35     33.86
 62.27   1260.83     35.51
 62.37   1476.11     38.42
 62.47   1513.13     38.90
 62.57   1503.46     38.77
 62.67   1439.00     37.93
 62.77   1396.03     37.36
 62.87   1091.00     33.03
 62.97   1070.48     32.72
 63.07    940.00     30.66
 63.17    766.00     27.68
 63.27    669.00     25.87
 63.37    692.00     26.31
 63.47    658.00     25.65
 63.57    705.00     26.55
 63.67    667.00     25.83
 63.77    636.76     25.23
 63.87    633.58     25.17
 63.97    699.00     26.44
 64.07    732.00     27.06
 64.17    679.81     26.07
 64.27    713.00     26.70
 64.37    820.00     28.64
 64.47    848.70     29.13
 64.57    912.00     30.20
 64.67    918.18     30.30
 64.77   1111.82     33.34
 64.87   1267.00     35.59
 64.97   1314.00     36.25
 65.07   1256.00     35.44
 65.17   1297.00     36.01
 65.27   1126.79     33.57
 65.37   1067.00     32.66
 65.47   1045.00     32.33
 65.57    914.00     30.23
 65.67    859.00     29.31
 65.77    821.00     28.65
 65.87    759.00     27.55
 65.97    711.00     26.66
 66.07    714.00     26.72
 66.17    697.45     26.41
 66.27    699.00     26.44
 66.37    643.00     25.36
 66.47    633.00     25.16
 66.57    611.00     24.72
 66.67    603.24     24.56
 66.77    626.91     25.04
 66.87    624.00     24.98
 66.97    613.00     24.76
 67.07    645.87     25.41
 67.17    653.70     25.57
 67.27    664.00     25.77
 67.37    680.64     26.09
 67.47    785.00     28.02
 67.57    797.00     28.23
 67.67    906.00     30.10
 67.77   1052.08     32.44
 67.87   1225.00     35.00
 67.97   1441.00     37.96
 68.07   1723.00     41.51
 68.17   2015.24     44.89
 68.27   2255.49     47.49
 68.37   2306.00     48.02
 68.47   2495.00     49.95
 68.57   2377.00     48.75
 68.67   2361.00     48.59
 68.77   2179.00     46.68
 68.87   1911.00     43.71
 68.97   1627.00     40.34
 69.07   1423.00     37.72
 69.17   1259.00     35.48
 69.27    993.00     31.51
 69.37    825.00     28.72
 69.47    817.00     28.58
 69.57    778.00     27.89
 69.67    673.46     25.95
 69.77    664.00     25.77
 69.87    678.00     26.04
 69.97    629.65     25.09
 70.07    589.90     24.29
 70.17    584.63     24.18
 70.27    629.00     25.08
 70.37    671.02     25.90
 70.47    613.00     24.76
 70.57    625.74     25.01
 70.67    627.93     25.06
 70.77    662.00     25.73
 70.87    649.63     25.49
 70.97    630.00     25.10
 71.07    672.06     25.92
 71.17    660.00     25.69
 71.27    701.00     26.48
 71.37    701.49     26.49
 71.47    730.00     27.02
 71.57    797.76     28.24
 71.67    892.00     29.87
 71.77   1025.00     32.02
 71.87   1132.00     33.65
 71.97   1349.00     36.73
 72.07   1569.00     39.61
 72.17   1621.00     40.26
 72.27   1758.00     41.93
 72.37   1951.00     44.17
 72.47   1862.00     43.15
 72.57   1884.00     43.41
 72.67   1715.58     41.42
 72.77   1662.65     40.78
 72.87   1399.00     37.40
 72.97   1325.27     36.40
 73.07   1246.91     35.31
 73.17    999.70     31.62
 73.27    941.00     30.68
 73.37    808.57     28.44
 73.47    810.00     28.46
 73.57    709.00     26.63
 73.67    637.00     25.24
 73.77    630.39     25.11
 73.87    633.77     25.17
 73.97    581.00     24.10
 74.07    650.30     25.50
 74.17    627.00     25.04
 74.27    630.00     25.10
 74.37    596.04     24.41
 74.47    609.00     24.68
 74.57    648.00     25.46
 74.67    599.08     24.48
 74.77    646.00     25.42
 74.87    621.00     24.92
 74.97    648.00     25.46
 75.07    696.00     26.38
 75.17    648.00     25.46
 75.27    650.28     25.50
 75.37    656.00     25.61
 75.47    638.25     25.26
 75.57    676.00     26.00
 75.67    637.00     25.24
 75.77    640.00     25.30
 75.87    648.00     25.46
 75.97    653.00     25.55
 76.07    566.72     23.81
 76.17    625.03     25.00
 76.27    662.00     25.73
 76.37    668.00     25.85
 76.47    703.16     26.52
 76.57    702.15     26.50
 76.67    771.00     27.77
 76.77    782.00     27.96
 76.87    781.00     27.95
 76.97    875.00     29.58
 77.07    856.00     29.26
 77.17    806.00     28.39
 77.27    809.56     28.45
 77.37    786.00     28.04
 77.47    705.00     26.55
 77.57    715.00     26.74
 77.67    658.00     25.65
 77.77    635.00     25.20
 77.87    677.64     26.03
 77.97    590.78     24.31
 78.07    616.00     24.82
 78.17    618.00     24.86
 78.27    572.00     23.92
 78.37    610.00     24.70
 78.47    611.36     24.73
 78.57    581.44     24.11
 78.67    582.76     24.14
 78.77    552.00     23.49
 78.87    517.98     22.76
 78.97    563.74     23.74
 79.07    566.00     23.79
 79.17    550.00     23.45
 79.27    570.00     23.87
 79.37    530.41     23.03
 79.47    544.00     23.32
 79.57    579.42     24.07
 79.67    551.00     23.47
 79.77    584.20     24.17
 79.87    535.61     23.14
 79.97    537.12     23.18
 80.07    558.45     23.63
 80.17    613.69     24.77
 80.27    599.63     24.49
 80.37    659.36     25.68
 80.47    597.60     24.45
 80.57    681.70     26.11
 80.67    645.55     25.41
 80.77    699.00     26.44
 80.87    741.00     27.22
 80.97    744.26     27.28
 81.07    825.46     28.73
 81.17    875.00     29.58
 81.27    931.62     30.52
 81.37    946.59     30.77
 81.47   1007.00     31.73
 81.57    950.43     30.83
 81.67    990.00     31.46
 81.77   1022.00     31.97
 81.87    999.00     31.61
 81.97    961.00     31.00
 82.07    982.32     31.34
 82.17    845.84     29.08
 82.27    893.00     29.88
 82.37    839.00     28.97
 82.47    808.00     28.43
 82.57    743.00     27.26
 82.67    734.00     27.09
 82.77    686.91     26.21
 82.87    687.00     26.21
 82.97    659.00     25.67
 83.07    632.00     25.14
 83.17    628.01     25.06
 83.27    642.00     25.34
 83.37    583.25     24.15
 83.47    582.70     24.14
 83.57    628.32     25.07
 83.67    546.00     23.37
 83.77    559.00     23.64
 83.87    625.02     25.00
 83.97    583.00     24.15
 84.07    584.47     24.18
 84.17    631.94     25.14
 84.27    613.00     24.76
 84.37    569.00     23.85
 84.47    582.82     24.14
 84.57    564.00     23.75
 84.67    621.13     24.92
 84.77    622.00     24.94
 84.87    630.72     25.11
 84.97    584.70     24.18
 85.07    559.16     23.65
 85.17    505.00     22.47
 85.27    572.00     23.92
 85.37    558.00     23.62
 85.47    560.00     23.66
 85.57    568.00     23.83
 85.67    571.00     23.90
 85.77    610.67     24.71
 85.87    538.22     23.20
 85.97    532.92     23.09
 86.07    613.57     24.77
 86.17    599.82     24.49
 86.27    562.00     23.71
 86.37    576.00     24.00
 86.47    582.00     24.12
 86.57    592.00     24.33
 86.67    543.95     23.32
 86.77    632.00     25.14
 86.87    607.25     24.64
 86.97    618.45     24.87
 87.07    637.00     25.24
 87.17    669.00     25.87
 87.27    623.00     24.96
 87.37    672.25     25.93
 87.47    600.00     24.49
 87.57    595.99     24.41
 87.67    681.00     26.10
 87.77    647.00     25.44
 87.87    650.68     25.51
 87.97    656.00     25.61
 88.07    617.46     24.85
 88.17    626.00     25.02
 88.27    698.00     26.42
 88.37    663.00     25.75
 88.47    672.00     25.92
 88.57    647.03     25.44
 88.67    583.81     24.16
 88.77    623.00     24.96
 88.87    589.00     24.27
 88.97    545.00     23.35
 89.07    645.00     25.40
 89.17    607.00     24.64
 89.27    576.31     24.01
 89.37    641.00     25.32
 89.47    575.00     23.98
 89.57    636.06     25.22
 89.67    602.00     24.54
 89.77    645.00     25.40
 89.87    652.00     25.53
 89.97    656.00     25.61
 90.07    612.00     24.74
 90.17    576.41     24.01
 90.27    619.00     24.88
 90.37    651.00     25.51
 90.47    565.58     23.78
 90.57    560.00     23.66
 90.67    614.17     24.78
 90.77    546.35     23.37
 90.87    547.00     23.39
 90.97    566.43     23.80
 91.07    550.00     23.45
 91.17    548.07     23.41
 91.27    569.00     23.85
 91.37    502.00     22.41
 91.47    508.00     22.54
 91.57    584.00     24.17
 91.67    494.00     22.23
 91.77    561.00     23.69
 91.87    535.00     23.13
 91.97    551.00     23.47
 92.07    562.00     23.71
 92.17    525.00     22.91
 92.27    531.00     23.04
 92.37    528.86     23.00
 92.47    579.00     24.06
 92.57    591.52     24.32
 92.67    597.00     24.43
 92.77    575.08     23.98
 92.87    603.00     24.56
 92.97    582.00     24.12
 93.07    648.96     25.47
 93.17    672.00     25.92
 93.27    653.70     25.57
 93.37    668.00     25.85
 93.47    702.64     26.51
 93.57    689.75     26.26
 93.67    700.04     26.46
 93.77    825.39     28.73
 93.87    748.77     27.36
 93.97    769.00     27.73
 94.07    786.00     28.04
 94.17    790.00     28.11
 94.27    830.00     28.81
 94.37    838.00     28.95
 94.47    857.00     29.27
 94.57    892.64     29.88
 94.67    879.00     29.65
 94.77    952.00     30.85
 94.87    855.85     29.25
 94.97    958.00     30.95
 95.07    955.00     30.90
 95.17   1046.00     32.34
 95.27    931.21     30.52
 95.37    965.00     31.06
 95.47    967.00     31.10
 95.57    971.00     31.16
 95.67    991.98     31.50
 95.77    913.62     30.23
 95.87    887.34     29.79
 95.97    834.97     28.90
 96.07    805.01     28.37
 96.17    840.36     28.99
 96.27    832.00     28.84
 96.37    747.00     27.33
 96.47    814.00     28.53
 96.57    749.00     27.37
 96.67    744.00     27.28
 96.77    836.00     28.91
 96.87    739.41     27.19
 96.97    878.02     29.63
 97.07    833.00     28.86
 97.17    914.00     30.23
 97.27   1027.00     32.05
 97.37   1015.00     31.86
 97.47   1150.00     33.91
 97.57   1131.28     33.63
 97.67   1327.00     36.43
 97.77   1293.62     35.97
 97.87   1414.78     37.61
 97.97   1399.73     37.41
 98.07   1515.00     38.92
 98.17   1440.16     37.95
 98.27   1523.00     39.03
 98.37   1537.00     39.20
 98.47   1503.00     38.77
 98.57   1355.00     36.81
 98.67   1310.76     36.20
 98.77   1300.00     36.06
 98.87   1192.00     34.53
 98.97   1173.06     34.25
 99.07   1148.33     33.89
 99.17   1067.72     32.68
 99.27   1006.00     31.72
 99.37   1044.71     32.32
 99.47    897.34     29.96
 99.57    962.00     31.02
 99.67   1001.00     31.64
 99.77    980.00     31.30
 99.87    983.00     31.35
 99.97   1033.32     32.15
100.07   1042.55     32.29
100.17   1135.00     33.69
100.27   1271.02     35.65
100.37   1329.00     36.46
100.47   1456.00     38.16
100.57   1443.93     38.00
100.67   1541.43     39.26
100.77   1606.49     40.08
100.87   1917.00     43.78
100.97   1874.00     43.29
101.07   1827.97     42.75
101.17   1915.00     43.76
101.27   1983.83     44.54
101.37   2071.00     45.51
101.47   1934.56     43.98
101.57   2002.00     44.74
101.67   2071.00     45.51
101.77   1945.00     44.10
101.87   1987.55     44.58
101.97   1822.42     42.69
102.07   1857.67     43.10
102.17   1701.00     41.24
102.27   1612.13     40.15
102.37   1579.00     39.74
102.47   1481.00     38.48
102.57   1440.00     37.95
102.67   1452.35     38.11
102.77   1357.08     36.84
102.87   1325.67     36.41
102.97   1294.48     35.98
103.07   1284.00     35.83
103.17   1243.04     35.26
103.27   1090.00     33.02
103.37   1170.54     34.21
103.47   1134.28     33.68
103.57   1079.00     32.85
103.67   1074.00     32.77
103.77   1052.07     32.44
103.87    927.00     30.45
103.97    969.60     31.14
104.07    851.00     29.17
104.17    864.00     29.39
104.27    824.00     28.71
104.37    757.38     27.52
104.47    716.00     26.76
104.57    740.00     27.20
104.67    722.02     26.87
104.77    702.95     26.51
104.87    703.00     26.51
104.97    661.00     25.71
105.07    612.26     24.74
105.17    633.96     25.18
105.27    641.00     25.32
105.37    596.59     24.43
105.47    561.11     23.69
105.57    616.00     24.82
105.67    592.00     24.33
105.77    617.00     24.84
105.87    534.26     23.11
105.97    603.00     24.56
106.07    551.50     23.48
106.17    604.00     24.58
106.27    586.00     24.21
106.37    565.00     23.77
106.47    587.00     24.23
106.57    572.00     23.92
106.67    612.28     24.74
106.77    614.00     24.78
106.87    655.00     25.59
106.97    666.00     25.81
107.07    652.00     25.53
107.17    675.17     25.98
107.27    664.00     25.77
107.37    728.69     26.99
107.47    709.40     26.63
107.57    672.88     25.94
107.67    664.67     25.78
107.77    728.00     26.98
107.87    769.74     27.74
107.97    719.00     26.81
108.07    788.00     28.07
108.17    739.00     27.18
108.27    695.00     26.36
108.37    739.00     27.18
108.47    741.00     27.22
108.57    757.73     27.53
108.67    721.00     26.85
108.77    698.00     26.42
108.87    746.00     27.31
108.97    687.00     26.21
109.07    772.18     27.79
109.17    759.56     27.56
109.27    716.00     26.76
109.37    682.00     26.12
109.47    745.00     27.29
109.57    737.00     27.15
109.67    721.00     26.85
109.77    746.00     27.31
109.87    669.00     25.87
109.97    769.77     27.74
110.07    718.63     26.81
110.17    668.00     25.85
110.27    647.44     25.44
110.37    695.30     26.37
110.47    670.00     25.88
110.57    655.00     25.59
110.67    668.00     25.85
110.77    593.12     24.35
110.87    593.00     24.35
110.97    580.00     24.08
111.07    599.00     24.47
111.17    636.00     25.22
111.27    597.00     24.43
111.37    565.21     23.77
111.47    614.00     24.78
111.57    596.00     24.41
111.67    604.00     24.58
111.77    576.00     24.00
111.87    605.00     24.60
111.97    628.00     25.06
112.07    587.14     24.23
112.17    560.00     23.66
112.27    569.00     23.85
112.37    625.00     25.00
112.47    537.00     23.17
112.57    570.47     23.88
112.67    594.00     24.37
112.77    587.00     24.23
112.87    585.00     24.19
112.97    571.00     23.90
113.07    613.17     24.76
113.17    608.00     24.66
113.27    584.00     24.17
113.37    571.00     23.90
113.47    559.00     23.64
113.57    603.00     24.56
113.67    566.60     23.80
113.77    570.00     23.87
113.87    581.00     24.10
113.97    628.00     25.06
114.07    674.00     25.96
114.17    629.46     25.09
114.27    701.43     26.48
114.37    651.00     25.51
114.47    735.62     27.12
114.57    732.00     27.06
114.67    754.00     27.46
114.77    821.70     28.67
114.87    866.62     29.44
114.97    905.00     30.08
115.07    986.58     31.41
115.17   1115.00     33.39
115.27   1224.00     34.99
115.37   1283.00     35.82
115.47   1543.00     39.28
115.57   1642.00     40.52
115.67   1906.00     43.66
115.77   2088.55     45.70
115.87   2466.00     49.66
115.97   2554.85     50.55
116.07   2921.00     54.05
116.17   3258.44     57.08
116.27   3683.00     60.69
116.37   3803.55     61.67
116.47   4406.00     66.38
116.57   4652.00     68.21
116.67   5016.88     70.83
116.77   5444.00     73.78
116.87   5865.00     76.58
116.97   6004.76     77.49
117.07   6313.31     79.46
117.17   6936.00     83.28
117.27   7026.18     83.82
117.37   7182.17     84.75
117.47   7096.68     84.24
117.57   7326.87     85.60
117.67   7212.00     84.92
117.77   7050.59     83.97
117.87   6785.00     82.37
117.97   6682.61     81.75
118.07   6373.00     79.83
118.17   6145.92     78.40
118.27   5679.21     75.36
118.37   5301.00     72.81
118.47   4897.56     69.98
118.57   4542.54     67.40
118.67   4247.00     65.17
118.77   3799.43     61.64
118.87   3582.00     59.85
118.97   3214.00     56.69
119.07   2882.00     53.68
119.17   2589.00     50.88
119.27   2364.00     48.62
119.37   2190.00     46.80
119.47   1933.00     43.97
119.57   1720.00     41.47
119.67   1568.00     39.60
119.77   1427.00     37.78
119.87   1357.00     36.84
119.97   1272.00     35.67
120.07   1191.00     34.51
120.17   1078.20     32.84
120.27    970.08     31.15
120.37    962.78     31.03
120.47    894.00     29.90
120.57    829.13     28.79
120.67    840.00     28.98
120.77    740.00     27.20
120.87    798.00     28.25
120.97    712.59     26.69
121.07    732.00     27.06
121.17    728.00     26.98
121.27    679.00     26.06
121.37    671.00     25.90
121.47    687.91     26.23
121.57    617.58     24.85
121.67    700.70     26.47
121.77    644.00     25.38
121.87    646.00     25.42
121.97    650.00     25.50
122.07    635.00     25.20
122.17    687.40     26.22
122.27    622.00     24.94
122.37    664.00     25.77
122.47    636.00     25.22
122.57    644.59     25.39
122.67    631.00     25.12
122.77    638.76     25.27
122.87    679.00     26.06
122.97    699.00     26.44
123.07    718.62     26.81
123.17    653.25     25.56
123.27    678.00     26.04
123.37    670.00     25.88
123.47    709.00     26.63
123.57    640.72     25.31
123.67    715.00     26.74
123.77    722.76     26.88
123.87    737.41     27.16
123.97    702.00     26.50
124.07    699.98     26.46
124.17    705.00     26.55
124.27    719.00     26.81
124.37    746.00     27.31
124.47    692.00     26.31
124.57    668.06     25.85
124.67    666.00     25.81
124.77    670.55     25.90
124.87    660.00     25.69
124.97    661.00     25.71
