XYDATA



INTER 1.0 1.0 0 0
TEMP 1074.1
  9.97    624.00     24.98
 10.07    603.32     24.56
 10.17    581.00     24.10
 10.27    596.00     24.41
 10.37    534.39     23.12
 10.47    629.00     25.08
 10.57    587.00     24.23
 10.67    552.20     23.50
 10.77    601.00     24.52
 10.87    582.00     24.12
 10.97    603.00     24.56
 11.07    607.00     24.64
 11.17    534.38     23.12
 11.27    595.00     24.39
 11.37    572.00     23.92
 11.47    619.37     24.89
 11.57    645.00     25.40
 11.67    637.00     25.24
 11.77    604.00     24.58
 11.87    614.00     24.78
 11.97    652.70     25.55
 12.07    683.00     26.13
 12.17    687.66     26.22
 12.27    746.00     27.31
 12.37    608.00     24.66
 12.47    624.00     24.98
 12.57    572.00     23.92
 12.67    564.55     23.76
 12.77    591.00     24.31
 12.87    539.26     23.22
 12.97    612.00     24.74
 13.07    538.72     23.21
 13.17    550.00     23.45
 13.27    521.00     22.83
 13.37    566.00     23.79
 13.47    550.00     23.45
 13.57    564.32     23.76
 13.67    607.00     24.64
 13.77    614.62     24.79
 13.87    541.00     23.26
 13.97    593.74     24.37
 14.07    545.91     23.36
 14.17    570.00     23.87
 14.27    603.67     24.57
 14.37    569.00     23.85
 14.47    592.49     24.34
 14.57    574.00     23.96
 14.67    572.00     23.92
 14.77    538.00     23.19
 14.87    585.00     24.19
 14.97    548.00     23.41
 15.07    592.12     24.33
 15.17    540.00     23.24
 15.27    530.47     23.03
 15.37    568.00     23.83
 15.47    565.00     23.77
 15.57    559.00     23.64
 15.67    550.00     23.45
 15.77    597.63     24.45
 15.87    553.00     23.52
 15.97    586.00     24.21
 16.07    598.00     24.45
 16.17    582.00     24.12
 16.27    531.79     23.06
 16.37    519.32     22.79
 16.47    563.05     23.73
 16.57    576.00     24.00
 16.67    565.00     23.77
 16.77    588.00     24.25
 16.87    604.00     24.58
 16.97    532.24     23.07
 17.07    593.00     24.35
 17.17    556.00     23.58
 17.27    530.00     23.02
 17.37    507.00     22.52
 17.47    517.00     22.74
 17.57    608.00     24.66
 17.67    572.00     23.92
 17.77    541.00     23.26
 17.87    606.35     24.62
 17.97    561.00     23.69
 18.07    547.00     23.39
 18.17    550.27     23.46
 18.27    545.00     23.35
 18.37    537.00     23.17
 18.47    533.84     23.10
 18.57    536.78     23.17
 18.67    571.00     23.90
 18.77    512.87     22.65
 18.87    525.00     22.91
 18.97    559.00     23.64
 19.07    544.00     23.32
 19.17    528.52     22.99
 19.27    518.72     22.78
 19.37    583.00     24.15
 19.47    504.00     22.45
 19.57    546.00     23.37
 19.67    491.00     22.16
 19.77    553.00     23.52
 19.87    546.00     23.37
 19.97    529.00     23.00
 20.07    539.00     23.22
 20.17    551.25     23.48
 20.27    576.00     24.00
 20.37    579.40     24.07
 20.47    556.31     23.59
 20.57    567.00     23.81
 20.67    552.00     23.49
 20.77    587.00     24.23
 20.87    550.58     23.46
 20.97    593.13     24.35
 21.07    517.00     22.74
 21.17    558.00     23.62
 21.27    570.00     23.87
 21.37    516.75     22.73
 21.47    568.00     23.83
 21.57    583.00     24.15
 21.67    507.54     22.53
 21.77    566.21     23.80
 21.87    575.36     23.99
 21.97    568.33     23.84
 22.07    557.00     23.60
 22.17    548.38     23.42
 22.27    507.15     22.52
 22.37    516.00     22.72
 22.47    510.48     22.59
 22.57    550.00     23.45
 22.67    545.56     23.36
 22.77    547.00     23.39
 22.87    582.01     24.12
 22.97    539.00     23.22
 23.07    589.61     24.28
 23.17    556.24     23.58
 23.27    545.00     23.35
 23.37    554.00     23.54
 23.47    543.00     23.30
 23.57    561.00     23.69
 23.67    551.00     23.47
 23.77    584.00     24.17
 23.87    539.00     23.22
 23.97    502.00     22.41
 24.07    567.00     23.81
 24.17    525.00     22.91
 24.27    534.00     23.11
 24.37    558.00     23.62
 24.47    582.00     24.12
 24.57    580.94     24.10
 24.67    599.00     24.47
 24.77    622.70     24.95
 24.87    679.00     26.06
 24.97    608.84     24.67
 25.07    587.90     24.25
 25.17    610.15     24.70
 25.27    548.00     23.41
 25.37    574.40     23.97
 25.47    504.21     22.45
 25.57    501.00     22.38
 25.67    537.00     23.17
 25.77    569.81     23.87
 25.87    603.00     24.56
 25.97    492.33     22.19
 26.07    560.00     23.66
 26.17    547.00     23.39
 26.27    583.78     24.16
 26.37    514.00     22.67
 26.47    588.00     24.25
 26.57    598.00     24.45
 26.67    521.00     22.83
 26.77    539.00     23.22
 26.87    508.41     22.55
 26.97    555.00     23.56
 27.07    509.00     22.56
 27.17    567.00     23.81
 27.27    540.00     23.24
 27.37    504.06     22.45
 27.47    577.21     24.03
 27.57    532.00     23.07
 27.67    578.00     24.04
 27.77    579.00     24.06
 27.87    597.00     24.43
 27.97    678.00     26.04
 28.07    748.00     27.35
 28.17    956.00     30.92
 28.27    980.00     31.30
 28.37    923.00     30.38
 28.47    815.00     28.55
 28.57    641.00     25.32
 28.67    715.00     26.74
 28.77    706.97     26.59
 28.87    770.14     27.75
 28.97    820.00     28.64
 29.07    817.41     28.59
 29.17    683.28     26.14
 29.27    620.00     24.90
 29.37    621.62     24.93
 29.47    595.00     24.39
 29.57    567.14     23.81
 29.67    553.73     23.53
 29.77    588.00     24.25
 29.87    549.00     23.43
 29.97    547.00     23.39
 30.07    511.47     22.62
 30.17    614.00     24.78
 30.27    550.46     23.46
 30.37    535.00     23.13
 30.47    548.00     23.41
 30.57    545.20     23.35
 30.67    615.00     24.80
 30.77    613.02     24.76
 30.87    631.26     25.12
 30.97    631.00     25.12
 31.07    593.00     24.35
 31.17    602.00     24.54
 31.27    522.11     22.85
 31.37    581.00     24.10
 31.47    551.00     23.47
 31.57    536.00     23.15
 31.67    547.00     23.39
 31.77    538.00     23.19
 31.87    552.00     23.49
 31.97    506.00     22.49
 32.07    542.00     23.28
 32.17    506.57     22.51
 32.27    569.12     23.86
 32.37    548.00     23.41
 32.47    538.00     23.19
 32.57    503.31     22.43
 32.67    564.95     23.77
 32.77    546.00     23.37
 32.87    520.00     22.80
 32.97    570.00     23.87
 33.07    547.00     23.39
 33.17    513.70     22.66
 33.27    508.03     22.54
 33.37    552.87     23.51
 33.47    564.00     23.75
 33.57    568.00     23.83
 33.67    634.00     25.18
 33.77    762.00     27.60
 33.87    867.49     29.45
 33.97    978.74     31.28
 34.07   1009.44     31.77
 34.17   1012.30     31.82
 34.27    905.10     30.08
 34.37    710.01     26.65
 34.47    619.00     24.88
 34.57    616.88     24.84
 34.67    504.99     22.47
 34.77    550.49     23.46
 34.87    547.00     23.39
 34.97    516.00     22.72
 35.07    482.29     21.96
 35.17    521.00     22.83
 35.27    561.00     23.69
 35.37    559.00     23.64
 35.47    498.74     22.33
 35.57    462.00     21.49
 35.67    480.91     21.93
 35.77    502.00     22.41
 35.87    548.00     23.41
 35.97    534.00     23.11
 36.07    530.00     23.02
 36.17    544.00     23.32
 36.27    498.95     22.34
 36.37    559.39     23.65
 36.47    489.54     22.13
 36.57    497.00     22.29
 36.67    445.00     21.10
 36.77    484.52     22.01
 36.87    540.00     23.24
 36.97    518.00     22.76
 37.07    544.09     23.33
 37.17    506.88     22.51
 37.27    525.00     22.91
 37.37    504.00     22.45
 37.47    526.86     22.95
 37.57    529.00     23.00
 37.67    500.83     22.38
 37.77    513.00     22.65
 37.87    543.88     23.32
 37.97    503.00     22.43
 38.07    498.00     22.32
 38.17    517.00     22.74
 38.27    543.50     23.31
 38.37    522.00     22.85
 38.47    483.40     21.99
 38.57    481.00     21.93
 38.67    542.00     23.28
 38.77    546.00     23.37
 38.87    476.31     21.82
 38.97    483.00     21.98
 39.07    498.00     22.32
 39.17    523.00     22.87
 39.27    541.72     23.27
 39.37    541.60     23.27
 39.47    472.57     21.74
 39.57    524.00     22.89
 39.67    505.00     22.47
 39.77    538.69     23.21
 39.87    544.00     23.32
 39.97    484.00     22.00
 40.07    468.00     21.63
 40.17    465.00     21.56
 40.27    500.00     22.36
 40.37    457.00     21.38
 40.47    468.94     21.66
 40.57    545.88     23.36
 40.67    497.00     22.29
 40.77    478.18     21.87
 40.87    549.89     23.45
 40.97    477.00     21.84
 41.07    491.00     22.16
 41.17    519.00     22.78
 41.27    495.00     22.25
 41.37    520.97     22.82
 41.47    517.00     22.74
 41.57    523.00     22.87
 41.67    478.50     21.87
 41.77    531.27     23.05
 41.87    546.42     23.38
 41.97    480.00     21.91
 42.07    479.00     21.89
 42.17    497.05     22.29
 42.27    542.00     23.28
 42.37    544.00     23.32
 42.47    590.50     24.30
 42.57    571.63     23.91
 42.67    631.00     25.12
 42.77    572.00     23.92
 42.87    595.00     24.39
 42.97    554.00     23.54
 43.07    547.01     23.39
 43.17    554.83     23.55
 43.27    498.27     22.32
 43.37    557.00     23.60
 43.47    510.00     22.58
 43.57    535.00     23.13
 43.67    551.00     23.47
 43.77    469.00     21.66
 43.87    519.00     22.78
 43.97    502.00     22.41
 44.07    536.00     23.15
 44.17    488.00     22.09
 44.27    459.00     21.42
 44.37    475.29     21.80
 44.47    474.36     21.78
 44.57    544.71     23.34
 44.67    466.44     21.60
 44.77    497.93     22.31
 44.87    532.00     23.07
 44.97    503.46     22.44
 45.07    508.37     22.55
 45.17    530.00     23.02
 45.27    519.00     22.78
 45.37    534.00     23.11
 45.47    513.00     22.65
 45.57    476.21     21.82
 45.67    515.00     22.69
 45.77    484.00     22.00
 45.87    530.00     23.02
 45.97    461.00     21.47
 46.07    529.00     23.00
 46.17    535.00     23.13
 46.27    504.91     22.47
 46.37    494.00     22.23
 46.47    496.00     22.27
 46.57    485.00     22.02
 46.67    480.00     21.91
 46.77    521.00     22.83
 46.87    491.00     22.16
 46.97    487.00     22.07
 47.07    527.00     22.96
 47.17    547.77     23.40
 47.27    528.00     22.98
 47.37    515.00     22.69
 47.47    547.00     23.39
 47.57    540.00     23.24
 47.67    555.40     23.57
 47.77    541.51     23.27
 47.87    577.72     24.04
 47.97    572.83     23.93
 48.07    547.73     23.40
 48.17    548.00     23.41
 48.27    528.00     22.98
 48.37    521.12     22.83
 48.47    528.63     22.99
 48.57    536.00     23.15
 48.67    537.00     23.17
 48.77    497.00     22.29
 48.87    555.00     23.56
 48.97    581.00     24.10
 49.07    592.10     24.33
 49.17    611.00     24.72
 49.27    669.00     25.87
 49.37    682.00     26.12
 49.47    683.33     26.14
 49.57    797.84     28.25
 49.67    869.00     29.48
 49.77   1169.00     34.19
 49.87   1487.00     38.56
 49.97   1809.00     42.53
 50.07   2290.00     47.85
 50.17   2483.00     49.83
 50.27   2573.00     50.72
 50.37   2246.06     47.39
 50.47   1864.00     43.17
 50.57   1475.74     38.42
 50.67    989.00     31.45
 50.77    821.20     28.66
 50.87    678.00     26.04
 50.97    670.64     25.90
 51.07    603.00     24.56
 51.17    613.00     24.76
 51.27    569.00     23.85
 51.37    620.00     24.90
 51.47    578.00     24.04
 51.57    570.70     23.89
 51.67    557.00     23.60
 51.77    536.20     23.16
 51.87    576.00     24.00
 51.97    593.00     24.35
 52.07    567.00     23.81
 52.17    551.00     23.47
 52.27    528.00     22.98
 52.37    563.90     23.75
 52.47    519.94     22.80
 52.57    531.22     23.05
 52.67    538.00     23.19
 52.77    556.00     23.58
 52.87    605.00     24.60
 52.97    728.00     26.98
 53.07    811.00     28.48
 53.17    889.65     29.83
 53.27   1009.00     31.76
 53.37   1100.18     33.17
 53.47   1182.85     34.39
 53.57   1161.00     34.07
 53.67   1068.00     32.68
 53.77   1028.55     32.07
 53.87    868.00     29.46
 53.97    758.00     27.53
 54.07    706.00     26.57
 54.17    586.00     24.21
 54.27    551.65     23.49
 54.37    568.00     23.83
 54.47    571.00     23.90
 54.57    579.94     24.08
 54.67    576.00     24.00
 54.77    564.31     23.76
 54.87    543.76     23.32
 54.97    499.47     22.35
 55.07    511.95     22.63
 55.17    565.92     23.79
 55.27    532.49     23.08
 55.37    583.00     24.15
 55.47    526.00     22.93
 55.57    583.00     24.15
 55.67    570.00     23.87
 55.77    589.00     24.27
 55.87    618.00     24.86
 55.97    650.00     25.50
 56.07    594.00     24.37
 56.17    751.70     27.42
 56.27    862.00     29.36
 56.37   1087.00     32.97
 56.47   1392.00     37.31
 56.57   1825.16     42.72
 56.67   2121.00     46.05
 56.77   2420.00     49.19
 56.87   2568.00     50.68
 56.97   2617.00     51.16
 57.07   2359.00     48.57
 57.17   1915.61     43.77
 57.27   1772.00     42.10
 57.37   1282.95     35.82
 57.47   1051.00     32.42
 57.57    831.92     28.84
 57.67    724.80     26.92
 57.77    678.00     26.04
 57.87    705.00     26.55
 57.97    614.00     24.78
 58.07    626.44     25.03
 58.17    710.00     26.65
 58.27    792.00     28.14
 58.37    865.00     29.41
 58.47    905.00     30.08
 58.57   1098.00     33.14
 58.67   1201.03     34.66
 58.77   1445.18     38.02
 58.87   1507.62     38.83
 58.97   1566.59     39.58
 59.07   1561.68     39.52
 59.17   1469.22     38.33
 59.27   1433.79     37.87
 59.37   1366.00     36.96
 59.47   1166.80     34.16
 59.57   1207.50     34.75
 59.67   1167.00     34.16
 59.77   1166.00     34.15
 59.87   1230.00     35.07
 59.97   1302.88     36.10
 60.07   1496.00     38.68
 60.17   1449.09     38.07
 60.27   1600.00     40.00
 60.37   1543.98     39.29
 60.47   1381.80     37.17
 60.57   1287.18     35.88
 60.67   1056.00     32.50
 60.77    851.00     29.17
 60.87    797.35     28.24
 60.97    631.00     25.12
 61.07    669.00     25.87
 61.17    663.00     25.75
 61.27    627.00     25.04
 61.37    629.71     25.09
 61.47    688.00     26.23
 61.57    734.00     27.09
 61.67    888.82     29.81
 61.77    898.00     29.97
 61.87   1028.00     32.06
 61.97   1240.00     35.21
 62.07   1461.82     38.23
 62.17   1387.00     37.24
 62.27   1430.00     37.82
 62.37   1368.00     36.99
 62.47   1195.00     34.57
 62.57   1040.00     32.25
 62.67    879.00     29.65
 62.77    777.00     27.87
 62.87    716.71     26.77
 62.97    611.96     24.74
 63.07    627.00     25.04
 63.17    571.00     23.90
 63.27    531.92     23.06
 63.37    570.00     23.87
 63.47    578.70     24.06
 63.57    586.54     24.22
 63.67    557.00     23.60
 63.77    602.00     24.54
 63.87    640.00     25.30
 63.97    658.00     25.65
 64.07    714.96     26.74
 64.17    696.00     26.38
 64.27    835.00     28.90
 64.37    949.00     30.81
 64.47    941.00     30.68
 64.57   1009.00     31.76
 64.67    980.00     31.30
 64.77   1059.19     32.55
 64.87    996.00     31.56
 64.97    863.85     29.39
 65.07    932.00     30.53
 65.17    824.69     28.72
 65.27    727.00     26.96
 65.37    723.03     26.89
 65.47    694.84     26.36
 65.57    626.00     25.02
 65.67    637.00     25.24
 65.77    607.00     24.64
 65.87    534.00     23.11
 65.97    595.00     24.39
 66.07    558.42     23.63
 66.17    512.50     22.64
 66.27    508.00     22.54
 66.37    507.00     22.52
 66.47    557.51     23.61
 66.57    574.00     23.96
 66.67    527.00     22.96
 66.77    559.00     23.64
 66.87    556.00     23.58
 66.97    598.00     24.45
 67.07    587.00     24.23
 67.17    634.32     25.19
 67.27    764.00     27.64
 67.37    909.05     30.15
 67.47   1053.00     32.45
 67.57   1276.23     35.72
 67.67   1500.00     38.73
 67.77   1764.00     42.00
 67.87   2005.00     44.78
 67.97   2386.00     48.85
 68.07   2414.51     49.14
 68.17   2479.01     49.79
 68.27   2389.00     48.88
 68.37   2202.00     46.93
 68.47   1800.17     42.43
 68.57   1494.00     38.65
 68.67   1299.09     36.04
 68.77   1058.03     32.53
 68.87    912.00     30.20
 68.97    731.94     27.05
 69.07    693.00     26.32
 69.17    633.00     25.16
 69.27    628.00     25.06
 69.37    575.00     23.98
 69.47    550.60     23.46
 69.57    609.25     24.68
 69.67    604.00     24.58
 69.77    592.94     24.35
 69.87    609.70     24.69
 69.97    528.46     22.99
 70.07    569.00     23.85
 70.17    515.21     22.70
 70.27    581.00     24.10
 70.37    552.00     23.49
 70.47    545.00     23.35
 70.57    555.00     23.56
 70.67    590.00     24.29
 70.77    565.00     23.77
 70.87    612.00     24.74
 70.97    637.00     25.24
 71.07    617.00     24.84
 71.17    673.00     25.94
 71.27    754.00     27.46
 71.37    868.00     29.46
 71.47   1021.00     31.95
 71.57   1268.00     35.61
 71.67   1448.00     38.05
 71.77   1643.57     40.54
 71.87   1765.00     42.01
 71.97   1844.00     42.94
 72.07   1969.00     44.37
 72.17   1864.00     43.17
 72.27   1908.00     43.68
 72.37   1720.00     41.47
 72.47   1503.00     38.77
 72.57   1354.79     36.81
 72.67   1247.91     35.33
 72.77   1094.00     33.08
 72.87   1050.81     32.42
 72.97    873.00     29.55
 73.07    888.02     29.80
 73.17    769.02     27.73
 73.27    781.06     27.95
 73.37    693.00     26.32
 73.47    716.77     26.77
 73.57    656.43     25.62
 73.67    583.00     24.15
 73.77    586.00     24.21
 73.87    633.48     25.17
 73.97    578.96     24.06
 74.07    599.00     24.47
 74.17    534.15     23.11
 74.27    552.67     23.51
 74.37    620.00     24.90
 74.47    580.00     24.08
 74.57    613.00     24.76
 74.67    653.00     25.55
 74.77    622.00     24.94
 74.87    646.00     25.42
 74.97    523.93     22.89
 75.07    642.00     25.34
 75.17    586.00     24.21
 75.27    559.00     23.64
 75.37    572.00     23.92
 75.47    562.00     23.71
 75.57    601.64     24.53
 75.67    578.00     24.04
 75.77    556.62     23.59
 75.87    568.66     23.85
 75.97    620.00     24.90
 76.07    658.00     25.65
 76.17    652.24     25.54
 76.27    711.00     26.66
 76.37    660.90     25.71
 76.47    679.00     26.06
 76.57    700.00     26.46
 76.67    766.00     27.68
 76.77    670.83     25.90
 76.87    644.00     25.38
 76.97    665.21     25.79
 77.07    588.00     24.25
 77.17    615.00     24.80
 77.27    593.75     24.37
 77.37    608.11     24.66
 77.47    564.00     23.75
 77.57    535.00     23.13
 77.67    496.21     22.28
 77.77    574.00     23.96
 77.87    488.00     22.09
 77.97    511.79     22.62
 78.07    522.00     22.85
 78.17    486.00     22.05
 78.27    550.44     23.46
 78.37    528.00     22.98
 78.47    558.46     23.63
 78.57    569.05     23.85
 78.67    527.00     22.96
 78.77    569.43     23.86
 78.87    554.00     23.54
 78.97    529.65     23.01
 79.07    516.49     22.73
 79.17    522.00     22.85
 79.27    554.00     23.54
 79.37    534.00     23.11
 79.47    539.00     23.22
 79.57    501.00     22.38
 79.67    576.00     24.00
 79.77    520.00     22.80
 79.87    516.00     22.72
 79.97    537.31     23.18
 80.07    566.00     23.79
 80.17    580.13     24.09
 80.27    543.10     23.30
 80.37    531.00     23.04
 80.47    586.97     24.23
 80.57    569.65     23.87
 80.67    582.00     24.12
 80.77    687.00     26.21
 80.87    648.00     25.46
 80.97    721.00     26.85
 81.07    715.00     26.74
 81.17    786.04     28.04
 81.27    765.00     27.66
 81.37    697.38     26.41
 81.47    707.16     26.59
 81.57    721.19     26.86
 81.67    770.71     27.76
 81.77    766.00     27.68
 81.87    746.96     27.33
 81.97    704.40     26.54
 82.07    673.00     25.94
 82.17    677.00     26.02
 82.27    592.83     24.35
 82.37    654.00     25.57
 82.47    610.00     24.70
 82.57    577.46     24.03
 82.67    584.00     24.17
 82.77    599.37     24.48
 82.87    594.00     24.37
 82.97    566.00     23.79
 83.07    522.00     22.85
 83.17    528.00     22.98
 83.27    525.00     22.91
 83.37    543.00     23.30
 83.47    558.00     23.62
 83.57    502.00     22.41
 83.67    526.00     22.93
 83.77    589.00     24.27
 83.87    565.09     23.77
 83.97    575.98     24.00
 84.07    613.02     24.76
 84.17    617.98     24.86
 84.27    601.72     24.53
 84.37    593.00     24.35
 84.47    511.00     22.61
 84.57    537.84     23.19
 84.67    526.12     22.94
 84.77    545.00     23.35
 84.87    523.62     22.88
 84.97    539.00     23.22
 85.07    514.00     22.67
 85.17    522.00     22.85
 85.27    530.00     23.02
 85.37    528.00     22.98
 85.47    469.00     21.66
 85.57    516.00     22.72
 85.67    562.00     23.71
 85.77    521.00     22.83
 85.87    523.00     22.87
 85.97    529.00     23.00
 86.07    559.00     23.64
 86.17    509.00     22.56
 86.27    513.00     22.65
 86.37    530.74     23.04
 86.47    570.00     23.87
 86.57    563.15     23.73
 86.67    568.43     23.84
 86.77    564.00     23.75
 86.87    615.23     24.80
 86.97    610.00     24.70
 87.07    613.86     24.78
 87.17    642.59     25.35
 87.27    672.00     25.92
 87.37    663.00     25.75
 87.47    662.00     25.73
 87.57    657.68     25.65
 87.67    662.00     25.73
 87.77    589.01     24.27
 87.87    590.39     24.30
 87.97    625.00     25.00
 88.07    595.00     24.39
 88.17    604.00     24.58
 88.27    577.00     24.02
 88.37    605.00     24.60
 88.47    579.00     24.06
 88.57    528.00     22.98
 88.67    549.00     23.43
 88.77    547.71     23.40
 88.87    588.35     24.26
 88.97    546.10     23.37
 89.07    548.85     23.43
 89.17    609.56     24.69
 89.27    645.05     25.40
 89.37    598.72     24.47
 89.47    611.00     24.72
 89.57    633.85     25.18
 89.67    557.14     23.60
 89.77    581.64     24.12
 89.87    584.00     24.17
 89.97    574.82     23.98
 90.07    607.00     24.64
 90.17    591.00     24.31
 90.27    543.00     23.30
 90.37    525.00     22.91
 90.47    536.00     23.15
 90.57    579.00     24.06
 90.67    479.00     21.89
 90.77    552.87     23.51
 90.87    509.00     22.56
 90.97    584.00     24.17
 91.07    481.00     21.93
 91.17    541.88     23.28
 91.27    547.00     23.39
 91.37    517.00     22.74
 91.47    544.00     23.32
 91.57    536.00     23.15
 91.67    509.00     22.56
 91.77    510.00     22.58
 91.87    562.00     23.71
 91.97    542.00     23.28
 92.07    553.00     23.52
 92.17    589.00     24.27
 92.27    567.00     23.81
 92.37    605.00     24.60
 92.47    599.99     24.49
 92.57    575.00     23.98
 92.67    644.08     25.38
 92.77    717.65     26.79
 92.87    719.96     26.83
 92.97    707.00     26.59
 93.07    757.14     27.52
 93.17    832.00     28.84
 93.27    783.00     27.98
 93.37    807.04     28.41
 93.47    804.36     28.36
 93.57    836.33     28.92
 93.67    819.21     28.62
 93.77    808.00     28.43
 93.87    773.80     27.82
 93.97    857.00     29.27
 94.07    889.15     29.82
 94.17    836.07     28.91
 94.27    845.00     29.07
 94.37    901.98     30.03
 94.47    860.00     29.33
 94.57    907.00     30.12
 94.67    890.25     29.84
 94.77    893.00     29.88
 94.87    909.89     30.16
 94.97    907.00     30.12
 95.07    823.92     28.70
 95.17    879.00     29.65
 95.27    760.17     27.57
 95.37    817.00     28.58
 95.47    777.00     27.87
 95.57    762.63     27.62
 95.67    760.33     27.57
 95.77    702.00     26.50
 95.87    705.00     26.55
 95.97    664.82     25.78
 96.07    679.00     26.06
 96.17    680.00     26.08
 96.27    731.87     27.05
 96.37    803.00     28.34
 96.47    752.59     27.43
 96.57    801.00     28.30
 96.67    884.00     29.73
 96.77    925.35     30.42
 96.87   1032.00     32.12
 96.97   1102.26     33.20
 97.07   1213.00     34.83
 97.17   1248.00     35.33
 97.27   1359.00     36.86
 97.37   1347.78     36.71
 97.47   1411.75     37.57
 97.57   1447.00     38.04
 97.67   1480.00     38.47
 97.77   1326.80     36.43
 97.87   1284.00     35.83
 97.97   1302.81     36.09
 98.07   1234.00     35.13
 98.17   1144.00     33.82
 98.27   1064.00     32.62
 98.37   1013.21     31.83
 98.47    981.00     31.32
 98.57    889.68     29.83
 98.67    928.00     30.46
 98.77    808.00     28.43
 98.87    786.00     28.04
 98.97    769.00     27.73
 99.07    814.00     28.53
 99.17    893.00     29.88
 99.27    889.00     29.82
 99.37    974.99     31.22
 99.47   1007.00     31.73
 99.57   1119.00     33.45
 99.67   1218.00     34.90
 99.77   1257.00     35.45
 99.87   1368.00     36.99
 99.97   1435.46     37.89
100.07   1622.00     40.27
100.17   1770.50     42.08
100.27   1975.00     44.44
100.37   1852.88     43.05
100.47   2012.00     44.86
100.57   2088.00     45.69
100.67   2080.00     45.61
100.77   2128.00     46.13
100.87   2059.00     45.38
100.97   2120.88     46.05
101.07   2092.00     45.74
101.17   1956.00     44.23
101.27   1867.69     43.22
101.37   1733.00     41.63
101.47   1550.00     39.37
101.57   1490.00     38.60
101.67   1403.51     37.46
101.77   1327.24     36.43
101.87   1246.31     35.30
101.97   1192.57     34.53
102.07   1141.00     33.78
102.17   1183.40     34.40
102.27   1124.00     33.53
102.37   1163.15     34.10
102.47   1130.00     33.62
102.57   1047.00     32.36
102.67   1006.00     31.72
102.77   1030.00     32.09
102.87    951.60     30.85
102.97    924.00     30.40
103.07    912.01     30.20
103.17    929.17     30.48
103.27    800.51     28.29
103.37    781.00     27.95
103.47    767.00     27.69
103.57    740.00     27.20
103.67    712.00     26.68
103.77    666.00     25.81
103.87    612.46     24.75
103.97    628.00     25.06
104.07    590.00     24.29
104.17    575.63     23.99
104.27    591.58     24.32
104.37    564.76     23.76
104.47    564.21     23.75
104.57    586.89     24.23
104.67    569.47     23.86
104.77    541.00     23.26
104.87    511.00     22.61
104.97    542.00     23.28
105.07    555.00     23.56
105.17    526.00     22.93
105.27    545.43     23.35
105.37    546.00     23.37
105.47    576.85     24.02
105.57    589.00     24.27
105.67    556.00     23.58
105.77    541.21     23.26
105.87    566.00     23.79
105.97    569.00     23.85
106.07    585.62     24.20
106.17    576.00     24.00
106.27    570.00     23.87
106.37    613.00     24.76
106.47    627.00     25.04
106.57    672.74     25.94
106.67    635.00     25.20
106.77    599.00     24.47
106.87    622.23     24.94
106.97    629.84     25.10
107.07    736.06     27.13
107.17    666.48     25.82
107.27    667.00     25.83
107.37    668.00     25.85
107.47    663.52     25.76
107.57    673.70     25.96
107.67    626.00     25.02
107.77    661.00     25.71
107.87    714.00     26.72
107.97    683.00     26.13
108.07    619.00     24.88
108.17    671.37     25.91
108.27    655.00     25.59
108.37    696.00     26.38
108.47    668.00     25.85
108.57    648.91     25.47
108.67    694.00     26.34
108.77    701.00     26.48
108.87    733.35     27.08
108.97    674.00     25.96
109.07    687.00     26.21
109.17    672.13     25.93
109.27    639.00     25.28
109.37    631.00     25.12
109.47    635.00     25.20
109.57    642.00     25.34
109.67    623.00     24.96
109.77    597.00     24.43
109.87    589.00     24.27
109.97    569.00     23.85
110.07    630.00     25.10
110.17    602.02     24.54
110.27    513.00     22.65
110.37    575.00     23.98
110.47    563.00     23.73
110.57    565.00     23.77
110.67    544.31     23.33
110.77    515.93     22.71
110.87    513.12     22.65
110.97    552.00     23.49
111.07    575.92     24.00
111.17    550.07     23.45
111.27    544.00     23.32
111.37    544.60     23.34
111.47    543.00     23.30
111.57    526.88     22.95
111.67    568.00     23.83
111.77    552.34     23.50
111.87    527.00     22.96
111.97    551.00     23.47
112.07    551.00     23.47
112.17    593.00     24.35
112.27    551.00     23.47
112.37    614.00     24.78
112.47    605.08     24.60
112.57    570.32     23.88
112.67    622.67     24.95
112.77    635.00     25.20
112.87    669.94     25.88
112.97    690.00     26.27
113.07    667.00     25.83
113.17    748.00     27.35
113.27    718.00     26.80
113.37    774.15     27.82
113.47    778.00     27.89
113.57    834.00     28.88
113.67    828.00     28.77
113.77    898.00     29.97
113.87    964.00     31.05
113.97   1010.77     31.79
114.07   1013.00     31.83
114.17   1087.00     32.97
114.27   1151.15     33.93
114.37   1271.00     35.65
114.47   1415.96     37.63
114.57   1526.22     39.07
114.67   1542.00     39.27
114.77   1702.55     41.26
114.87   1922.35     43.84
114.97   2132.08     46.17
115.07   2235.73     47.28
115.17   2625.56     51.24
115.27   2919.00     54.03
115.37   3080.00     55.50
115.47   3293.00     57.38
115.57   3815.00     61.77
115.67   4083.00     63.90
115.77   4418.00     66.47
115.87   4770.00     69.07
115.97   5290.18     72.73
116.07   5721.51     75.64
116.17   5907.99     76.86
116.27   6302.00     79.39
116.37   6702.96     81.87
116.47   6811.23     82.53
116.57   6971.55     83.50
116.67   7039.00     83.90
116.77   6930.00     83.25
116.87   6840.00     82.70
116.97   6821.00     82.59
117.07   6368.00     79.80
117.17   6274.39     79.21
117.27   5686.00     75.41
117.37   5486.00     74.07
117.47   4947.00     70.33
117.57   4541.00     67.39
117.67   4305.00     65.61
117.77   4024.00     63.44
117.87   3510.77     59.25
117.97   3310.00     57.53
118.07   2944.00     54.26
118.17   2544.74     50.45
118.27   2227.00     47.19
118.37   1963.64     44.31
118.47   1731.00     41.61
118.57   1571.00     39.64
118.67   1312.00     36.22
118.77   1235.00     35.14
118.87   1101.00     33.18
118.97   1014.00     31.84
119.07    959.00     30.97
119.17    831.40     28.83
119.27    854.00     29.22
119.37    775.00     27.84
119.47    733.00     27.07
119.57    718.70     26.81
119.67    686.14     26.19
119.77    646.00     25.42
119.87    651.00     25.51
119.97    618.00     24.86
120.07    608.00     24.66
120.17    588.09     24.25
120.27    583.00     24.15
120.37    568.00     23.83
120.47    586.54     24.22
120.57    578.00     24.04
120.67    576.27     24.01
120.77    577.00     24.02
120.87    556.00     23.58
120.97    577.00     24.02
121.07    596.00     24.41
121.17    535.00     23.13
121.27    569.00     23.85
121.37    538.34     23.20
121.47    564.00     23.75
121.57    591.62     24.32
121.67    591.00     24.31
121.77    601.00     24.52
121.87    588.41     24.26
121.97    566.00     23.79
122.07    639.09     25.28
122.17    630.00     25.10
122.27    633.00     25.16
122.37    635.00     25.20
122.47    648.74     25.47
122.57    624.00     24.98
122.67    699.00     26.44
122.77    651.00     25.51
122.87    681.73     26.11
122.97    667.05     25.83
123.07    645.00     25.40
123.17    615.62     24.81
123.27    635.00     25.20
123.37    697.40     26.41
123.47    675.43     25.99
123.57    662.00     25.73
123.67    667.55     25.84
123.77    655.00     25.59
123.87    657.80     25.65
123.97    628.66     25.07
124.07    575.16     23.98
124.17    645.72     25.41
124.27    595.48     24.40
124.37    600.00     24.49
124.47    568.65     23.85
124.57    626.00     25.02
124.67    586.00     24.21
124.77    555.86     23.58
124.87    593.00     24.35
124.97    578.97     24.06
