XYDATA



INTER 1.0 1.0 0 0
TEMP 774.491
  9.97    690.00     26.27
 10.07    557.96     23.62
 10.17    625.03     25.00
 10.27    551.92     23.49
 10.37    617.00     24.84
 10.47    679.00     26.06
 10.57    656.27     25.62
 10.67    655.00     25.59
 10.77    713.00     26.70
 10.87    628.00     25.06
 10.97    635.19     25.20
 11.07    642.35     25.34
 11.17    652.00     25.53
 11.27    643.00     25.36
 11.37    635.00     25.20
 11.47    659.57     25.68
 11.57    590.69     24.30
 11.67    686.00     26.19
 11.77    610.60     24.71
 11.87    654.00     25.57
 11.97    679.00     26.06
 12.07    645.95     25.42
 12.17    736.00     27.13
 12.27    698.00     26.42
 12.37    761.00     27.59
 12.47    671.00     25.90
 12.57    714.00     26.72
 12.67    653.00     25.55
 12.77    619.00     24.88
 12.87    633.00     25.16
 12.97    605.00     24.60
 13.07    681.23     26.10
 13.17    561.00     23.69
 13.27    605.00     24.60
 13.37    605.00     24.60
 13.47    553.00     23.52
 13.57    562.00     23.71
 13.67    631.00     25.12
 13.77    619.00     24.88
 13.87    622.00     24.94
 13.97    668.39     25.85
 14.07    582.04     24.13
 14.17    615.95     24.82
 14.27    601.00     24.52
 14.37    578.00     24.04
 14.47    629.00     25.08
 14.57    648.00     25.46
 14.67    641.00     25.32
 14.77    609.00     24.68
 14.87    628.66     25.07
 14.97    639.23     25.28
 15.07    634.57     25.19
 15.17    602.02     24.54
 15.27    595.00     24.39
 15.37    617.00     24.84
 15.47    600.00     24.49
 15.57    584.00     24.17
 15.67    567.00     23.81
 15.77    620.00     24.90
 15.87    604.00     24.58
 15.97    563.00     23.73
 16.07    621.92     24.94
 16.17    611.23     24.72
 16.27    579.00     24.06
 16.37    634.00     25.18
 16.47    617.64     24.85
 16.57    618.74     24.87
 16.67    582.38     24.13
 16.77    563.00     23.73
 16.87    663.00     25.75
 16.97    629.56     25.09
 17.07    606.78     24.63
 17.17    574.06     23.96
 17.27    576.00     24.00
 17.37    606.00     24.62
 17.47    607.00     24.64
 17.57    582.00     24.12
 17.67    592.60     24.34
 17.77    558.00     23.62
 17.87    591.00     24.31
 17.97    563.00     23.73
 18.07    663.75     25.76
 18.17    581.01     24.10
 18.27    581.83     24.12
 18.37    603.00     24.56
 18.47    613.23     24.76
 18.57    609.00     24.68
 18.67    601.00     24.52
 18.77    602.00     24.54
 18.87    541.00     23.26
 18.97    586.00     24.21
 19.07    616.00     24.82
 19.17    563.00     23.73
 19.27    615.00     24.80
 19.37    562.00     23.71
 19.47    572.00     23.92
 19.57    658.11     25.65
 19.67    581.62     24.12
 19.77    625.11     25.00
 19.87    573.48     23.95
 19.97    606.00     24.62
 20.07    653.16     25.56
 20.17    577.65     24.03
 20.27    569.00     23.85
 20.37    626.46     25.03
 20.47    575.00     23.98
 20.57    633.00     25.16
 20.67    580.00     24.08
 20.77    601.29     24.52
 20.87    628.00     25.06
 20.97    575.00     23.98
 21.07    568.00     23.83
 21.17    600.00     24.49
 21.27    560.86     23.68
 21.37    600.16     24.50
 21.47    625.88     25.02
 21.57    636.37     25.23
 21.67    554.00     23.54
 21.77    576.00     24.00
 21.87    595.00     24.39
 21.97    629.62     25.09
 22.07    553.48     23.53
 22.17    552.00     23.49
 22.27    574.81     23.98
 22.37    605.72     24.61
 22.47    634.00     25.18
 22.57    558.62     23.64
 22.67    556.94     23.60
 22.77    604.00     24.58
 22.87    600.00     24.49
 22.97    645.93     25.42
 23.07    604.00     24.58
 23.17    577.80     24.04
 23.27    621.40     24.93
 23.37    565.09     23.77
 23.47    604.00     24.58
 23.57    615.00     24.80
 23.67    648.00     25.46
 23.77    625.00     25.00
 23.87    666.00     25.81
 23.97    586.85     24.23
 24.07    666.15     25.81
 24.17    665.00     25.79
 24.27    597.00     24.43
 24.37    646.34     25.42
 24.47    683.00     26.13
 24.57    624.23     24.98
 24.67    639.64     25.29
 24.77    667.00     25.83
 24.87    678.42     26.05
 24.97    724.00     26.91
 25.07    697.00     26.40
 25.17    709.00     26.63
 25.27    672.00     25.92
 25.37    650.00     25.50
 25.47    650.34     25.50
 25.57    604.77     24.59
 25.67    651.09     25.52
 25.77    646.00     25.42
 25.87    594.69     24.39
 25.97    652.00     25.53
 26.07    642.00     25.34
 26.17    675.00     25.98
 26.27    671.00     25.90
 26.37    575.79     24.00
 26.47    684.00     26.15
 26.57    625.00     25.00
 26.67    616.84     24.84
 26.77    671.00     25.90
 26.87    634.00     25.18
 26.97    638.00     25.26
 27.07    644.00     25.38
 27.17    563.12     23.73
 27.27    665.00     25.79
 27.37    651.00     25.51
 27.47    644.39     25.38
 27.57    661.00     25.71
 27.67    696.00     26.38
 27.77    684.30     26.16
 27.87    726.00     26.94
 27.97    725.00     26.93
 28.07    824.00     28.71
 28.17    906.00     30.10
 28.27    982.00     31.34
 28.37   1021.52     31.96
 28.47   1006.00     31.72
 28.57    805.51     28.38
 28.67    788.00     28.07
 28.77    763.12     27.62
 28.87    852.31     29.19
 28.97    791.33     28.13
 29.07    966.00     31.08
 29.17    788.43     28.08
 29.27    733.38     27.08
 29.37    741.00     27.22
 29.47    746.00     27.31
 29.57    674.64     25.97
 29.67    697.00     26.40
 29.77    656.60     25.62
 29.87    665.26     25.79
 29.97    692.00     26.31
 30.07    713.00     26.70
 30.17    623.21     24.96
 30.27    718.00     26.80
 30.37    601.93     24.53
 30.47    682.00     26.12
 30.57    642.00     25.34
 30.67    606.93     24.64
 30.77    715.00     26.74
 30.87    667.00     25.83
 30.97    658.40     25.66
 31.07    731.00     27.04
 31.17    734.00     27.09
 31.27    682.00     26.12
 31.37    681.00     26.10
 31.47    564.32     23.76
 31.57    644.00     25.38
 31.67    624.00     24.98
 31.77    655.00     25.59
 31.87    546.94     23.39
 31.97    641.00     25.32
 32.07    553.00     23.52
 32.17    597.00     24.43
 32.27    542.64     23.29
 32.37    605.00     24.60
 32.47    576.00     24.00
 32.57    585.00     24.19
 32.67    590.66     24.30
 32.77    642.00     25.34
 32.87    587.00     24.23
 32.97    577.16     24.02
 33.07    648.00     25.46
 33.17    590.00     24.29
 33.27    641.71     25.33
 33.37    572.90     23.94
 33.47    620.00     24.90
 33.57    633.00     25.16
 33.67    634.00     25.18
 33.77    687.00     26.21
 33.87    744.00     27.28
 33.97    905.73     30.10
 34.07   1008.00     31.75
 34.17   1044.00     32.31
 34.27   1042.00     32.28
 34.37    988.00     31.43
 34.47    805.00     28.37
 34.57    771.22     27.77
 34.67    644.64     25.39
 34.77    602.00     24.54
 34.87    610.00     24.70
 34.97    607.00     24.64
 35.07    555.00     23.56
 35.17    516.00     22.72
 35.27    595.00     24.39
 35.37    579.00     24.06
 35.47    576.00     24.00
 35.57    558.00     23.62
 35.67    582.00     24.12
 35.77    525.00     22.91
 35.87    576.00     24.00
 35.97    553.34     23.52
 36.07    582.00     24.12
 36.17    614.32     24.79
 36.27    531.00     23.04
 36.37    556.53     23.59
 36.47    587.05     24.23
 36.57    516.21     22.72
 36.67    544.00     23.32
 36.77    588.42     24.26
 36.87    522.00     22.85
 36.97    528.00     22.98
 37.07    527.21     22.96
 37.17    529.00     23.00
 37.27    596.83     24.43
 37.37    587.04     24.23
 37.47    505.08     22.47
 37.57    562.09     23.71
 37.67    550.40     23.46
 37.77    527.00     22.96
 37.87    564.00     23.75
 37.97    559.97     23.66
 38.07    561.00     23.69
 38.17    504.00     22.45
 38.27    596.28     24.42
 38.37    510.29     22.59
 38.47    530.00     23.02
 38.57    503.00     22.43
 38.67    579.18     24.07
 38.77    509.00     22.56
 38.87    545.87     23.36
 38.97    535.00     23.13
 39.07    594.89     24.39
 39.17    506.00     22.49
 39.27    562.00     23.71
 39.37    506.99     22.52
 39.47    505.00     22.47
 39.57    523.00     22.87
 39.67    546.00     23.37
 39.77    487.71     22.08
 39.87    535.00     23.13
 39.97    525.00     22.91
 40.07    503.00     22.43
 40.17    517.00     22.74
 40.27    523.93     22.89
 40.37    559.69     23.66
 40.47    471.00     21.70
 40.57    484.53     22.01
 40.67    542.52     23.29
 40.77    577.57     24.03
 40.87    519.00     22.78
 40.97    553.00     23.52
 41.07    524.15     22.89
 41.17    491.00     22.16
 41.27    553.76     23.53
 41.37    488.88     22.11
 41.47    487.65     22.08
 41.57    530.00     23.02
 41.67    501.03     22.38
 41.77    519.88     22.80
 41.87    500.00     22.36
 41.97    513.68     22.66
 42.07    531.05     23.04
 42.17    505.91     22.49
 42.27    538.00     23.19
 42.37    518.14     22.76
 42.47    540.00     23.24
 42.57    569.00     23.85
 42.67    592.00     24.33
 42.77    614.00     24.78
 42.87    600.00     24.49
 42.97    678.50     26.05
 43.07    568.00     23.83
 43.17    568.39     23.84
 43.27    528.71     22.99
 43.37    563.00     23.73
 43.47    605.49     24.61
 43.57    548.00     23.41
 43.67    584.10     24.17
 43.77    503.28     22.43
 43.87    549.02     23.43
 43.97    521.05     22.83
 44.07    544.00     23.32
 44.17    522.58     22.86
 44.27    548.00     23.41
 44.37    567.35     23.82
 44.47    521.00     22.83
 44.57    561.00     23.69
 44.67    496.17     22.27
 44.77    524.00     22.89
 44.87    579.22     24.07
 44.97    560.00     23.66
 45.07    527.00     22.96
 45.17    508.00     22.54
 45.27    552.46     23.50
 45.37    547.00     23.39
 45.47    533.58     23.10
 45.57    582.85     24.14
 45.67    499.74     22.35
 45.77    537.00     23.17
 45.87    533.00     23.09
 45.97    575.68     23.99
 46.07    503.83     22.45
 46.17    525.00     22.91
 46.27    561.53     23.70
 46.37    500.09     22.36
 46.47    571.00     23.90
 46.57    553.00     23.52
 46.67    514.00     22.67
 46.77    518.00     22.76
 46.87    567.00     23.81
 46.97    540.00     23.24
 47.07    535.00     23.13
 47.17    538.00     23.19
 47.27    584.63     24.18
 47.37    569.00     23.85
 47.47    499.45     22.35
 47.57    525.00     22.91
 47.67    553.00     23.52
 47.77    592.00     24.33
 47.87    581.41     24.11
 47.97    591.00     24.31
 48.07    596.00     24.41
 48.17    644.00     25.38
 48.27    611.00     24.72
 48.37    622.00     24.94
 48.47    597.00     24.43
 48.57    605.00     24.60
 48.67    611.57     24.73
 48.77    598.03     24.45
 48.87    536.00     23.15
 48.97    525.70     22.93
 49.07    577.05     24.02
 49.17    553.00     23.52
 49.27    580.11     24.09
 49.37    590.00     24.29
 49.47    615.00     24.80
 49.57    621.00     24.92
 49.67    724.00     26.91
 49.77    787.00     28.05
 49.87    915.00     30.25
 49.97   1195.00     34.57
 50.07   1486.13     38.55
 50.17   1834.00     42.83
 50.27   2222.07     47.14
 50.37   2351.00     48.49
 50.47   2364.00     48.62
 50.57   2087.00     45.68
 50.67   1699.00     41.22
 50.77   1360.00     36.88
 50.87   1035.00     32.17
 50.97    866.00     29.43
 51.07    748.00     27.35
 51.17    773.00     27.80
 51.27    738.00     27.17
 51.37    699.89     26.46
 51.47    672.00     25.92
 51.57    594.00     24.37
 51.67    634.00     25.18
 51.77    580.00     24.08
 51.87    569.00     23.85
 51.97    603.22     24.56
 52.07    598.00     24.45
 52.17    577.00     24.02
 52.27    609.00     24.68
 52.37    618.85     24.88
 52.47    579.00     24.06
 52.57    614.00     24.78
 52.67    631.00     25.12
 52.77    530.81     23.04
 52.87    608.19     24.66
 52.97    601.00     24.52
 53.07    694.34     26.35
 53.17    702.00     26.50
 53.27    742.90     27.26
 53.37    878.00     29.63
 53.47   1056.50     32.50
 53.57   1187.00     34.45
 53.67   1153.00     33.96
 53.77   1245.00     35.28
 53.87   1211.00     34.80
 53.97   1069.78     32.71
 54.07    990.65     31.47
 54.17    906.00     30.10
 54.27    800.00     28.28
 54.37    705.83     26.57
 54.47    643.75     25.37
 54.57    664.00     25.77
 54.67    630.72     25.11
 54.77    571.05     23.90
 54.87    605.00     24.60
 54.97    611.03     24.72
 55.07    621.00     24.92
 55.17    555.80     23.58
 55.27    565.98     23.79
 55.37    639.72     25.29
 55.47    612.00     24.74
 55.57    601.00     24.52
 55.67    630.00     25.10
 55.77    567.61     23.82
 55.87    599.00     24.47
 55.97    695.52     26.37
 56.07    669.00     25.87
 56.17    676.00     26.00
 56.27    738.00     27.17
 56.37    880.00     29.66
 56.47   1097.45     33.13
 56.57   1121.00     33.48
 56.67   1408.00     37.52
 56.77   1797.00     42.39
 56.87   2181.00     46.70
 56.97   2423.00     49.22
 57.07   2577.00     50.76
 57.17   2526.94     50.27
 57.27   2278.11     47.73
 57.37   2197.00     46.87
 57.47   1768.00     42.05
 57.57   1391.00     37.30
 57.67   1178.00     34.32
 57.77   1052.00     32.43
 57.87    937.97     30.63
 57.97    827.00     28.76
 58.07    799.00     28.27
 58.17    775.30     27.84
 58.27    715.00     26.74
 58.37    750.00     27.39
 58.47    697.48     26.41
 58.57    818.00     28.60
 58.67    930.54     30.50
 58.77    908.00     30.13
 58.87   1029.00     32.08
 58.97   1092.00     33.05
 59.07   1179.13     34.34
 59.17   1253.00     35.40
 59.27   1166.21     34.15
 59.37   1321.42     36.35
 59.47   1302.05     36.08
 59.57   1257.00     35.45
 59.67   1237.00     35.17
 59.77   1201.00     34.66
 59.87   1257.00     35.45
 59.97   1265.09     35.57
 60.07   1329.00     36.46
 60.17   1320.64     36.34
 60.27   1457.00     38.17
 60.37   1542.00     39.27
 60.47   1589.00     39.86
 60.57   1534.00     39.17
 60.67   1450.04     38.08
 60.77   1230.93     35.08
 60.87   1158.00     34.03
 60.97   1093.62     33.07
 61.07    884.00     29.73
 61.17    798.00     28.25
 61.27    813.51     28.52
 61.37    786.85     28.05
 61.47    724.00     26.91
 61.57    752.00     27.42
 61.67    718.00     26.80
 61.77    785.00     28.02
 61.87    926.00     30.43
 61.97    955.00     30.90
 62.07   1061.00     32.57
 62.17   1230.00     35.07
 62.27   1306.00     36.14
 62.37   1378.00     37.12
 62.47   1240.00     35.21
 62.57   1311.98     36.22
 62.67   1234.00     35.13
 62.77   1098.00     33.14
 62.87   1008.00     31.75
 62.97    850.00     29.15
 63.07    769.01     27.73
 63.17    680.00     26.08
 63.27    646.00     25.42
 63.37    639.00     25.28
 63.47    603.00     24.56
 63.57    653.29     25.56
 63.67    686.00     26.19
 63.77    580.18     24.09
 63.87    634.00     25.18
 63.97    601.00     24.52
 64.07    644.00     25.38
 64.17    696.00     26.38
 64.27    710.00     26.65
 64.37    796.00     28.21
 64.47    800.71     28.30
 64.57    865.00     29.41
 64.67    988.00     31.43
 64.77   1000.36     31.63
 64.87   1038.00     32.22
 64.97   1045.00     32.33
 65.07   1051.00     32.42
 65.17    969.00     31.13
 65.27    941.00     30.68
 65.37    890.00     29.83
 65.47    872.15     29.53
 65.57    708.96     26.63
 65.67    750.51     27.40
 65.77    651.00     25.51
 65.87    672.34     25.93
 65.97    660.00     25.69
 66.07    604.00     24.58
 66.17    615.00     24.80
 66.27    553.00     23.52
 66.37    566.34     23.80
 66.47    598.00     24.45
 66.57    609.00     24.68
 66.67    563.00     23.73
 66.77    634.00     25.18
 66.87    601.00     24.52
 66.97    623.00     24.96
 67.07    637.00     25.24
 67.17    698.59     26.43
 67.27    703.00     26.51
 67.37    691.00     26.29
 67.47    800.00     28.28
 67.57    860.34     29.33
 67.67   1062.00     32.59
 67.77   1226.00     35.01
 67.87   1375.77     37.09
 67.97   1689.12     41.10
 68.07   1874.66     43.30
 68.17   2036.86     45.13
 68.27   2260.26     47.54
 68.37   2374.00     48.72
 68.47   2364.00     48.62
 68.57   2233.00     47.25
 68.67   2022.00     44.97
 68.77   1780.10     42.19
 68.87   1526.00     39.06
 68.97   1368.00     36.99
 69.07   1101.00     33.18
 69.17    947.00     30.77
 69.27    878.00     29.63
 69.37    815.00     28.55
 69.47    744.00     27.28
 69.57    679.00     26.06
 69.67    681.00     26.10
 69.77    643.00     25.36
 69.87    618.00     24.86
 69.97    651.00     25.51
 70.07    619.00     24.88
 70.17    588.21     24.25
 70.27    602.28     24.54
 70.37    614.00     24.78
 70.47    577.41     24.03
 70.57    633.00     25.16
 70.67    679.00     26.06
 70.77    598.42     24.46
 70.87    637.00     25.24
 70.97    610.00     24.70
 71.07    681.78     26.11
 71.17    618.82     24.88
 71.27    641.57     25.33
 71.37    708.00     26.61
 71.47    815.00     28.55
 71.57    952.82     30.87
 71.67   1009.00     31.76
 71.77   1112.00     33.35
 71.87   1296.00     36.00
 71.97   1421.00     37.70
 72.07   1641.10     40.51
 72.17   1838.11     42.87
 72.27   1777.60     42.16
 72.37   1818.68     42.65
 72.47   1811.52     42.56
 72.57   1766.00     42.02
 72.67   1664.00     40.79
 72.77   1464.00     38.26
 72.87   1337.47     36.57
 72.97   1109.00     33.30
 73.07   1100.00     33.17
 73.17    814.53     28.54
 73.27    828.00     28.77
 73.37    775.81     27.85
 73.47    640.87     25.32
 73.57    588.66     24.26
 73.67    663.00     25.75
 73.77    634.00     25.18
 73.87    643.00     25.36
 73.97    607.85     24.65
 74.07    644.00     25.38
 74.17    525.37     22.92
 74.27    591.00     24.31
 74.37    586.00     24.21
 74.47    594.00     24.37
 74.57    652.00     25.53
 74.67    600.00     24.49
 74.77    611.47     24.73
 74.87    654.00     25.57
 74.97    640.68     25.31
 75.07    518.38     22.77
 75.17    660.00     25.69
 75.27    661.00     25.71
 75.37    649.00     25.48
 75.47    604.54     24.59
 75.57    648.00     25.46
 75.67    574.38     23.97
 75.77    663.00     25.75
 75.87    590.39     24.30
 75.97    583.00     24.15
 76.07    532.74     23.08
 76.17    664.69     25.78
 76.27    657.00     25.63
 76.37    658.00     25.65
 76.47    671.00     25.90
 76.57    694.00     26.34
 76.67    694.87     26.36
 76.77    813.00     28.51
 76.87    714.27     26.73
 76.97    793.00     28.16
 77.07    710.00     26.65
 77.17    659.00     25.67
 77.27    681.00     26.10
 77.37    597.32     24.44
 77.47    650.41     25.50
 77.57    603.18     24.56
 77.67    596.00     24.41
 77.77    565.00     23.77
 77.87    552.65     23.51
 77.97    572.00     23.92
 78.07    564.74     23.76
 78.17    547.00     23.39
 78.27    515.55     22.71
 78.37    544.00     23.32
 78.47    550.00     23.45
 78.57    490.81     22.15
 78.67    519.00     22.78
 78.77    589.42     24.28
 78.87    551.00     23.47
 78.97    526.00     22.93
 79.07    563.96     23.75
 79.17    525.61     22.93
 79.27    525.00     22.91
 79.37    503.68     22.44
 79.47    551.00     23.47
 79.57    560.15     23.67
 79.67    569.00     23.85
 79.77    568.00     23.83
 79.87    594.56     24.38
 79.97    548.00     23.41
 80.07    524.00     22.89
 80.17    545.00     23.35
 80.27    591.03     24.31
 80.37    584.00     24.17
 80.47    603.00     24.56
 80.57    567.00     23.81
 80.67    598.00     24.45
 80.77    632.00     25.14
 80.87    596.00     24.41
 80.97    654.00     25.57
 81.07    641.00     25.32
 81.17    650.00     25.50
 81.27    710.00     26.65
 81.37    757.17     27.52
 81.47    735.00     27.11
 81.57    782.00     27.96
 81.67    773.00     27.80
 81.77    772.56     27.79
 81.87    798.00     28.25
 81.97    785.39     28.02
 82.07    724.54     26.92
 82.17    744.00     27.28
 82.27    764.38     27.65
 82.37    712.14     26.69
 82.47    684.00     26.15
 82.57    665.00     25.79
 82.67    660.00     25.69
 82.77    616.82     24.84
 82.87    653.65     25.57
 82.97    640.82     25.31
 83.07    569.00     23.85
 83.17    643.52     25.37
 83.27    520.00     22.80
 83.37    603.16     24.56
 83.47    601.33     24.52
 83.57    561.00     23.69
 83.67    567.00     23.81
 83.77    578.00     24.04
 83.87    549.00     23.43
 83.97    610.76     24.71
 84.07    571.00     23.90
 84.17    582.00     24.12
 84.27    567.43     23.82
 84.37    534.00     23.11
 84.47    593.00     24.35
 84.57    575.00     23.98
 84.67    548.00     23.41
 84.77    536.81     23.17
 84.87    589.00     24.27
 84.97    586.00     24.21
 85.07    553.00     23.52
 85.17    558.64     23.64
 85.27    582.00     24.12
 85.37    570.00     23.87
 85.47    516.00     22.72
 85.57    532.00     23.07
 85.67    490.54     22.15
 85.77    554.00     23.54
 85.87    595.00     24.39
 85.97    524.00     22.89
 86.07    578.29     24.05
 86.17    549.00     23.43
 86.27    494.95     22.25
 86.37    574.81     23.98
 86.47    538.51     23.21
 86.57    523.00     22.87
 86.67    570.00     23.87
 86.77    542.00     23.28
 86.87    557.00     23.60
 86.97    541.56     23.27
 87.07    580.00     24.08
 87.17    617.00     24.84
 87.27    638.26     25.26
 87.37    604.00     24.58
 87.47    615.82     24.82
 87.57    601.00     24.52
 87.67    649.33     25.48
 87.77    618.72     24.87
 87.87    586.13     24.21
 87.97    657.00     25.63
 88.07    659.00     25.67
 88.17    667.00     25.83
 88.27    658.00     25.65
 88.37    633.00     25.16
 88.47    621.00     24.92
 88.57    593.00     24.35
 88.67    632.00     25.14
 88.77    560.00     23.66
 88.87    530.40     23.03
 88.97    623.00     24.96
 89.07    587.00     24.23
 89.17    586.00     24.21
 89.27    563.00     23.73
 89.37    569.59     23.87
 89.47    633.48     25.17
 89.57    607.38     24.65
 89.67    574.00     23.96
 89.77    645.96     25.42
 89.87    652.94     25.55
 89.97    590.00     24.29
 90.07    599.00     24.47
 90.17    604.00     24.58
 90.27    591.00     24.31
 90.37    541.00     23.26
 90.47    541.00     23.26
 90.57    506.00     22.49
 90.67    543.13     23.31
 90.77    539.00     23.22
 90.87    558.00     23.62
 90.97    583.00     24.15
 91.07    539.00     23.22
 91.17    516.75     22.73
 91.27    519.91     22.80
 91.37    594.98     24.39
 91.47    487.00     22.07
 91.57    553.00     23.52
 91.67    466.00     21.59
 91.77    530.00     23.02
 91.87    532.00     23.07
 91.97    514.00     22.67
 92.07    554.00     23.54
 92.17    536.00     23.15
 92.27    563.00     23.73
 92.37    591.02     24.31
 92.47    589.18     24.27
 92.57    567.70     23.83
 92.67    532.00     23.07
 92.77    605.93     24.62
 92.87    595.81     24.41
 92.97    592.68     24.35
 93.07    698.00     26.42
 93.17    680.84     26.09
 93.27    708.00     26.61
 93.37    731.00     27.04
 93.47    719.59     26.83
 93.57    774.00     27.82
 93.67    792.00     28.14
 93.77    760.14     27.57
 93.87    786.00     28.04
 93.97    761.45     27.59
 94.07    769.03     27.73
 94.17    835.52     28.91
 94.27    830.00     28.81
 94.37    880.00     29.66
 94.47    851.00     29.17
 94.57    841.00     29.00
 94.67    894.72     29.91
 94.77    868.00     29.46
 94.87    901.00     30.02
 94.97    949.00     30.81
 95.07    897.46     29.96
 95.17    855.76     29.25
 95.27    916.00     30.27
 95.37    927.30     30.45
 95.47    941.00     30.68
 95.57    885.00     29.75
 95.67    829.89     28.81
 95.77    834.00     28.88
 95.87    830.00     28.81
 95.97    740.34     27.21
 96.07    766.00     27.68
 96.17    733.00     27.07
 96.27    720.00     26.83
 96.37    703.00     26.51
 96.47    715.99     26.76
 96.57    768.00     27.71
 96.67    772.97     27.80
 96.77    782.65     27.98
 96.87    823.88     28.70
 96.97    897.00     29.95
 97.07    900.00     30.00
 97.17    967.00     31.10
 97.27   1023.00     31.98
 97.37   1165.00     34.13
 97.47   1265.00     35.57
 97.57   1220.11     34.93
 97.67   1373.00     37.05
 97.77   1427.00     37.78
 97.87   1433.82     37.87
 97.97   1496.00     38.68
 98.07   1491.00     38.61
 98.17   1402.50     37.45
 98.27   1454.32     38.14
 98.37   1442.54     37.98
 98.47   1395.56     37.36
 98.57   1302.00     36.08
 98.67   1171.00     34.22
 98.77   1166.00     34.15
 98.87   1119.00     33.45
 98.97   1027.00     32.05
 99.07    980.00     31.30
 99.17    945.00     30.74
 99.27    957.38     30.94
 99.37    862.81     29.37
 99.47    916.75     30.28
 99.57    961.48     31.01
 99.67    981.00     31.32
 99.77   1017.73     31.90
 99.87   1101.00     33.18
 99.97   1191.00     34.51
100.07   1203.00     34.68
100.17   1306.53     36.15
100.27   1345.05     36.67
100.37   1374.00     37.07
100.47   1561.00     39.51
100.57   1597.78     39.97
100.67   1782.91     42.22
100.77   1729.00     41.58
100.87   1793.08     42.34
100.97   1852.98     43.05
101.07   2005.20     44.78
101.17   2049.00     45.27
101.27   1976.00     44.45
101.37   2028.00     45.03
101.47   1966.91     44.35
101.57   1892.00     43.50
101.67   1862.19     43.15
101.77   1779.79     42.19
101.87   1707.00     41.32
101.97   1654.00     40.67
102.07   1540.06     39.24
102.17   1479.00     38.46
102.27   1500.00     38.73
102.37   1402.00     37.44
102.47   1345.72     36.68
102.57   1283.00     35.82
102.67   1314.36     36.25
102.77   1210.00     34.79
102.87   1252.00     35.38
102.97   1207.45     34.75
103.07   1134.03     33.68
103.17   1123.00     33.51
103.27   1078.00     32.83
103.37   1091.00     33.03
103.47    994.00     31.53
103.57    983.00     31.35
103.67    935.37     30.58
103.77    979.40     31.30
103.87    888.77     29.81
103.97    861.00     29.34
104.07    757.56     27.52
104.17    772.00     27.78
104.27    717.77     26.79
104.37    716.54     26.77
104.47    686.00     26.19
104.57    691.56     26.30
104.67    655.31     25.60
104.77    558.12     23.62
104.87    609.00     24.68
104.97    541.27     23.27
105.07    597.05     24.43
105.17    616.00     24.82
105.27    551.41     23.48
105.37    599.00     24.47
105.47    553.50     23.53
105.57    540.00     23.24
105.67    577.00     24.02
105.77    567.00     23.81
105.87    606.00     24.62
105.97    600.75     24.51
106.07    565.19     23.77
106.17    553.00     23.52
106.27    614.87     24.80
106.37    610.49     24.71
106.47    566.00     23.79
106.57    567.00     23.81
106.67    619.00     24.88
106.77    578.00     24.04
106.87    622.00     24.94
106.97    650.00     25.50
107.07    626.00     25.02
107.17    644.00     25.38
107.27    656.47     25.62
107.37    632.25     25.14
107.47    759.16     27.55
107.57    701.00     26.48
107.67    720.00     26.83
107.77    689.00     26.25
107.87    696.00     26.38
107.97    696.83     26.40
108.07    696.00     26.38
108.17    729.18     27.00
108.27    704.28     26.54
108.37    729.00     27.00
108.47    690.12     26.27
108.57    680.00     26.08
108.67    718.03     26.80
108.77    697.00     26.40
108.87    707.00     26.59
108.97    744.00     27.28
109.07    771.52     27.78
109.17    704.00     26.53
109.27    712.00     26.68
109.37    743.11     27.26
109.47    702.00     26.50
109.57    663.00     25.75
109.67    725.00     26.93
109.77    724.48     26.92
109.87    707.00     26.59
109.97    742.00     27.24
110.07    665.09     25.79
110.17    719.47     26.82
110.27    662.00     25.73
110.37    633.00     25.16
110.47    571.85     23.91
110.57    672.00     25.92
110.67    616.01     24.82
110.77    582.00     24.12
110.87    634.00     25.18
110.97    621.00     24.92
111.07    612.00     24.74
111.17    577.00     24.02
111.27    552.00     23.49
111.37    590.00     24.29
111.47    576.82     24.02
111.57    612.53     24.75
111.67    544.00     23.32
111.77    612.00     24.74
111.87    550.00     23.45
111.97    537.00     23.17
112.07    591.00     24.31
112.17    538.96     23.22
112.27    535.61     23.14
112.37    546.00     23.37
112.47    568.00     23.83
112.57    511.95     22.63
112.67    603.24     24.56
112.77    598.76     24.47
112.87    605.77     24.61
112.97    547.00     23.39
113.07    552.00     23.49
113.17    569.00     23.85
113.27    653.00     25.55
113.37    586.00     24.21
113.47    583.00     24.15
113.57    603.85     24.57
113.67    673.99     25.96
113.77    653.00     25.55
113.87    664.00     25.77
113.97    636.00     25.22
114.07    688.00     26.23
114.17    729.00     27.00
114.27    751.81     27.42
114.37    725.12     26.93
114.47    762.58     27.61
114.57    850.00     29.15
114.67    872.18     29.53
114.77    973.00     31.19
114.87   1018.00     31.91
114.97   1170.00     34.21
115.07   1223.00     34.97
115.17   1364.00     36.93
115.27   1534.00     39.17
115.37   1736.00     41.67
115.47   1902.18     43.61
115.57   2111.66     45.95
115.67   2447.00     49.47
115.77   2864.00     53.52
115.87   2970.94     54.51
115.97   3399.00     58.30
116.07   3589.00     59.91
116.17   4018.00     63.39
116.27   4396.00     66.30
116.37   4704.98     68.59
116.47   5166.00     71.87
116.57   5497.00     74.14
116.67   5788.00     76.08
116.77   6121.00     78.24
116.87   6489.00     80.55
116.97   6542.00     80.88
117.07   6789.00     82.40
117.17   7089.61     84.20
117.27   7146.26     84.54
117.37   6865.78     82.86
117.47   6988.00     83.59
117.57   6817.00     82.57
117.67   6417.00     80.11
117.77   6198.79     78.73
117.87   5817.00     76.27
117.97   5840.50     76.42
118.07   5291.00     72.74
118.17   4911.00     70.08
118.27   4633.48     68.07
118.37   4336.00     65.85
118.47   3848.24     62.03
118.57   3541.00     59.51
118.67   3266.48     57.15
118.77   2907.00     53.92
118.87   2597.00     50.96
118.97   2441.00     49.41
119.07   2256.57     47.50
119.17   1958.00     44.25
119.27   1675.62     40.93
119.37   1546.00     39.32
119.47   1447.00     38.04
119.57   1325.00     36.40
119.67   1212.00     34.81
119.77   1092.45     33.05
119.87   1085.00     32.94
119.97   1035.44     32.18
120.07    979.09     31.29
120.17    870.93     29.51
120.27    857.00     29.27
120.37    745.00     27.29
120.47    798.00     28.25
120.57    676.56     26.01
120.67    698.00     26.42
120.77    760.55     27.58
120.87    662.00     25.73
120.97    651.00     25.51
121.07    609.00     24.68
121.17    653.00     25.55
121.27    602.12     24.54
121.37    656.00     25.61
121.47    595.00     24.39
121.57    620.00     24.90
121.67    553.00     23.52
121.77    607.00     24.64
121.87    606.47     24.63
121.97    576.65     24.01
122.07    619.00     24.88
122.17    641.67     25.33
122.27    626.00     25.02
122.37    679.62     26.07
122.47    629.00     25.08
122.57    629.00     25.08
122.67    584.54     24.18
122.77    695.24     26.37
122.87    708.63     26.62
122.97    680.87     26.09
123.07    680.00     26.08
123.17    663.00     25.75
123.27    701.00     26.48
123.37    715.00     26.74
123.47    656.00     25.61
123.57    672.00     25.92
123.67    663.44     25.76
123.77    708.53     26.62
123.87    632.02     25.14
123.97    603.04     24.56
124.07    689.00     26.25
124.17    643.00     25.36
124.27    656.00     25.61
124.37    665.00     25.79
124.47    676.00     26.00
124.57    676.00     26.00
124.67    627.00     25.04
124.77    649.99     25.49
124.87    618.51     24.87
124.97    583.68     24.16
