XYDATA



INTER 1.0 1.0 0 0
TEMP 1074.0
  9.97    578.00     24.04
 10.07    563.76     23.74
 10.17    566.00     23.79
 10.27    609.00     24.68
 10.37    617.00     24.84
 10.47    568.00     23.83
 10.57    577.35     24.03
 10.67    593.00     24.35
 10.77    587.00     24.23
 10.87    570.00     23.87
 10.97    639.00     25.28
 11.07    575.24     23.98
 11.17    604.00     24.58
 11.27    590.32     24.30
 11.37    612.96     24.76
 11.47    598.00     24.45
 11.57    563.44     23.74
 11.67    586.00     24.21
 11.77    577.43     24.03
 11.87    597.11     24.44
 11.97    611.42     24.73
 12.07    662.00     25.73
 12.17    702.03     26.50
 12.27    667.00     25.83
 12.37    690.00     26.27
 12.47    657.61     25.64
 12.57    603.00     24.56
 12.67    632.48     25.15
 12.77    574.00     23.96
 12.87    573.00     23.94
 12.97    534.00     23.11
 13.07    550.00     23.45
 13.17    546.00     23.37
 13.27    564.00     23.75
 13.37    581.00     24.10
 13.47    530.00     23.02
 13.57    574.00     23.96
 13.67    541.00     23.26
 13.77    561.00     23.69
 13.87    543.00     23.30
 13.97    574.00     23.96
 14.07    561.00     23.69
 14.17    594.47     24.38
 14.27    578.00     24.04
 14.37    576.00     24.00
 14.47    558.00     23.62
 14.57    542.00     23.28
 14.67    552.00     23.49
 14.77    561.00     23.69
 14.87    577.64     24.03
 14.97    539.00     23.22
 15.07    550.00     23.45
 15.17    524.03     22.89
 15.27    586.00     24.21
 15.37    582.00     24.12
 15.47    591.00     24.31
 15.57    546.00     23.37
 15.67    598.00     24.45
 15.77    598.71     24.47
 15.87    545.12     23.35
 15.97    536.00     23.15
 16.07    520.00     22.80
 16.17    603.00     24.56
 16.27    560.00     23.66
 16.37    583.00     24.15
 16.47    530.32     23.03
 16.57    538.48     23.21
 16.67    553.00     23.52
 16.77    558.00     23.62
 16.87    582.94     24.14
 16.97    608.21     24.66
 17.07    592.03     24.33
 17.17    566.00     23.79
 17.27    586.00     24.21
 17.37    526.00     22.93
 17.47    572.00     23.92
 17.57    565.00     23.77
 17.67    518.00     22.76
 17.77    589.00     24.27
 17.87    584.66     24.18
 17.97    544.00     23.32
 18.07    595.36     24.40
 18.17    555.00     23.56
 18.27    534.00     23.11
 18.37    584.00     24.17
 18.47    593.00     24.35
 18.57    560.00     23.66
 18.67    539.00     23.22
 18.77    529.23     23.01
 18.87    549.57     23.44
 18.97    545.00     23.35
 19.07    533.00     23.09
 19.17    604.72     24.59
 19.27    549.39     23.44
 19.37    550.00     23.45
 19.47    605.87     24.61
 19.57    533.45     23.10
 19.67    560.20     23.67
 19.77    535.06     23.13
 19.87    521.44     22.84
 19.97    584.54     24.18
 20.07    545.23     23.35
 20.17    563.51     23.74
 20.27    570.00     23.87
 20.37    556.00     23.58
 20.47    547.00     23.39
 20.57    560.40     23.67
 20.67    571.00     23.90
 20.77    527.00     22.96
 20.87    600.44     24.50
 20.97    559.00     23.64
 21.07    551.69     23.49
 21.17    593.29     24.36
 21.27    608.00     24.66
 21.37    580.00     24.08
 21.47    601.36     24.52
 21.57    565.00     23.77
 21.67    565.28     23.78
 21.77    588.00     24.25
 21.87    547.00     23.39
 21.97    527.00     22.96
 22.07    521.00     22.83
 22.17    513.00     22.65
 22.27    559.00     23.64
 22.37    539.22     23.22
 22.47    570.00     23.87
 22.57    533.00     23.09
 22.67    542.00     23.28
 22.77    574.00     23.96
 22.87    522.49     22.86
 22.97    559.00     23.64
 23.07    561.00     23.69
 23.17    568.00     23.83
 23.27    516.00     22.72
 23.37    529.00     23.00
 23.47    583.00     24.15
 23.57    593.69     24.37
 23.67    534.00     23.11
 23.77    572.00     23.92
 23.87    566.00     23.79
 23.97    557.03     23.60
 24.07    552.00     23.49
 24.17    533.26     23.09
 24.27    576.58     24.01
 24.37    558.00     23.62
 24.47    564.00     23.75
 24.57    569.00     23.85
 24.67    641.00     25.32
 24.77    657.00     25.63
 24.87    622.80     24.96
 24.97    581.57     24.12
 25.07    589.20     24.27
 25.17    589.00     24.27
 25.27    558.00     23.62
 25.37    549.37     23.44
 25.47    546.00     23.37
 25.57    534.00     23.11
 25.67    542.00     23.28
 25.77    535.00     23.13
 25.87    611.00     24.72
 25.97    538.00     23.19
 26.07    552.00     23.49
 26.17    541.00     23.26
 26.27    503.08     22.43
 26.37    529.00     23.00
 26.47    541.00     23.26
 26.57    552.84     23.51
 26.67    548.00     23.41
 26.77    508.24     22.54
 26.87    530.00     23.02
 26.97    507.00     22.52
 27.07    550.00     23.45
 27.17    554.00     23.54
 27.27    550.20     23.46
 27.37    546.08     23.37
 27.47    568.00     23.83
 27.57    560.00     23.66
 27.67    582.00     24.12
 27.77    591.00     24.31
 27.87    612.00     24.74
 27.97    676.00     26.00
 28.07    767.69     27.71
 28.17    858.00     29.29
 28.27    973.07     31.19
 28.37    869.17     29.48
 28.47    808.00     28.43
 28.57    765.00     27.66
 28.67    689.00     26.25
 28.77    738.98     27.18
 28.87    781.00     27.95
 28.97    855.81     29.25
 29.07    779.00     27.91
 29.17    696.00     26.38
 29.27    634.00     25.18
 29.37    641.15     25.32
 29.47    566.00     23.79
 29.57    524.31     22.90
 29.67    593.00     24.35
 29.77    579.00     24.06
 29.87    520.91     22.82
 29.97    626.00     25.02
 30.07    509.50     22.57
 30.17    568.00     23.83
 30.27    539.33     23.22
 30.37    520.24     22.81
 30.47    562.00     23.71
 30.57    590.55     24.30
 30.67    595.33     24.40
 30.77    602.00     24.54
 30.87    638.00     25.26
 30.97    619.00     24.88
 31.07    641.06     25.32
 31.17    600.00     24.49
 31.27    590.95     24.31
 31.37    574.42     23.97
 31.47    520.00     22.80
 31.57    570.56     23.89
 31.67    602.00     24.54
 31.77    540.68     23.25
 31.87    513.00     22.65
 31.97    518.74     22.78
 32.07    517.00     22.74
 32.17    517.00     22.74
 32.27    522.00     22.85
 32.37    565.09     23.77
 32.47    529.00     23.00
 32.57    485.95     22.04
 32.67    580.00     24.08
 32.77    515.87     22.71
 32.87    542.02     23.28
 32.97    562.00     23.71
 33.07    564.00     23.75
 33.17    570.84     23.89
 33.27    533.00     23.09
 33.37    574.00     23.96
 33.47    597.00     24.43
 33.57    627.00     25.04
 33.67    626.00     25.02
 33.77    728.74     27.00
 33.87    886.21     29.77
 33.97    974.00     31.21
 34.07   1129.00     33.60
 34.17   1020.00     31.94
 34.27    937.00     30.61
 34.37    704.99     26.55
 34.47    613.61     24.77
 34.57    547.44     23.40
 34.67    558.00     23.62
 34.77    542.00     23.28
 34.87    521.00     22.83
 34.97    546.00     23.37
 35.07    534.53     23.12
 35.17    510.00     22.58
 35.27    534.00     23.11
 35.37    552.56     23.51
 35.47    537.00     23.17
 35.57    528.00     22.98
 35.67    510.74     22.60
 35.77    479.17     21.89
 35.87    476.70     21.83
 35.97    549.00     23.43
 36.07    544.54     23.34
 36.17    551.00     23.47
 36.27    507.06     22.52
 36.37    514.84     22.69
 36.47    528.00     22.98
 36.57    532.00     23.07
 36.67    472.00     21.73
 36.77    519.86     22.80
 36.87    505.00     22.47
 36.97    510.00     22.58
 37.07    503.00     22.43
 37.17    539.99     23.24
 37.27    525.30     22.92
 37.37    534.00     23.11
 37.47    515.00     22.69
 37.57    539.20     23.22
 37.67    511.00     22.61
 37.77    554.30     23.54
 37.87    491.99     22.18
 37.97    556.00     23.58
 38.07    545.71     23.36
 38.17    506.00     22.49
 38.27    482.00     21.95
 38.37    506.87     22.51
 38.47    507.00     22.52
 38.57    489.35     22.12
 38.67    522.00     22.85
 38.77    488.00     22.09
 38.87    507.00     22.52
 38.97    503.49     22.44
 39.07    551.76     23.49
 39.17    519.00     22.78
 39.27    500.00     22.36
 39.37    472.82     21.74
 39.47    505.82     22.49
 39.57    505.00     22.47
 39.67    474.70     21.79
 39.77    448.00     21.17
 39.87    504.00     22.45
 39.97    511.71     22.62
 40.07    479.00     21.89
 40.17    503.00     22.43
 40.27    499.39     22.35
 40.37    478.00     21.86
 40.47    523.97     22.89
 40.57    531.00     23.04
 40.67    506.77     22.51
 40.77    543.00     23.30
 40.87    486.00     22.05
 40.97    488.00     22.09
 41.07    509.00     22.56
 41.17    471.35     21.71
 41.27    504.00     22.45
 41.37    532.00     23.07
 41.47    496.00     22.27
 41.57    501.00     22.38
 41.67    529.00     23.00
 41.77    530.00     23.02
 41.87    548.00     23.41
 41.97    500.00     22.36
 42.07    460.00     21.45
 42.17    542.00     23.28
 42.27    500.00     22.36
 42.37    576.93     24.02
 42.47    580.00     24.08
 42.57    650.92     25.51
 42.67    614.00     24.78
 42.77    611.26     24.72
 42.87    627.65     25.05
 42.97    539.00     23.22
 43.07    591.00     24.31
 43.17    528.00     22.98
 43.27    503.00     22.43
 43.37    555.00     23.56
 43.47    525.00     22.91
 43.57    493.56     22.22
 43.67    468.85     21.65
 43.77    462.90     21.52
 43.87    517.00     22.74
 43.97    488.00     22.09
 44.07    506.44     22.50
 44.17    501.00     22.38
 44.27    525.83     22.93
 44.37    508.00     22.54
 44.47    519.57     22.79
 44.57    512.98     22.65
 44.67    499.72     22.35
 44.77    511.00     22.61
 44.87    499.87     22.36
 44.97    548.00     23.41
 45.07    533.72     23.10
 45.17    471.00     21.70
 45.27    478.00     21.86
 45.37    483.00     21.98
 45.47    499.00     22.34
 45.57    505.29     22.48
 45.67    521.00     22.83
 45.77    536.22     23.16
 45.87    476.00     21.82
 45.97    504.87     22.47
 46.07    504.00     22.45
 46.17    500.00     22.36
 46.27    485.00     22.02
 46.37    510.00     22.58
 46.47    549.60     23.44
 46.57    491.00     22.16
 46.67    514.00     22.67
 46.77    513.00     22.65
 46.87    502.00     22.41
 46.97    526.00     22.93
 47.07    487.00     22.07
 47.17    543.25     23.31
 47.27    489.00     22.11
 47.37    569.00     23.85
 47.47    515.27     22.70
 47.57    524.00     22.89
 47.67    582.00     24.12
 47.77    567.91     23.83
 47.87    633.74     25.17
 47.97    564.12     23.75
 48.07    569.00     23.85
 48.17    562.00     23.71
 48.27    562.00     23.71
 48.37    528.21     22.98
 48.47    528.00     22.98
 48.57    511.00     22.61
 48.67    507.00     22.52
 48.77    527.00     22.96
 48.87    575.00     23.98
 48.97    541.00     23.26
 49.07    560.00     23.66
 49.17    579.14     24.07
 49.27    641.00     25.32
 49.37    653.00     25.55
 49.47    705.00     26.55
 49.57    812.00     28.50
 49.67    918.00     30.30
 49.77   1168.32     34.18
 49.87   1386.57     37.24
 49.97   1858.40     43.11
 50.07   2270.21     47.65
 50.17   2470.42     49.70
 50.27   2486.00     49.86
 50.37   2249.00     47.42
 50.47   1909.00     43.69
 50.57   1473.42     38.39
 50.67   1074.96     32.79
 50.77    830.00     28.81
 50.87    722.00     26.87
 50.97    706.39     26.58
 51.07    644.95     25.40
 51.17    586.98     24.23
 51.27    629.00     25.08
 51.37    582.00     24.12
 51.47    541.93     23.28
 51.57    547.00     23.39
 51.67    535.00     23.13
 51.77    515.26     22.70
 51.87    571.00     23.90
 51.97    575.62     23.99
 52.07    573.64     23.95
 52.17    492.29     22.19
 52.27    570.00     23.87
 52.37    538.34     23.20
 52.47    524.90     22.91
 52.57    578.13     24.04
 52.67    612.00     24.74
 52.77    580.00     24.08
 52.87    637.17     25.24
 52.97    643.61     25.37
 53.07    745.71     27.31
 53.17    917.00     30.28
 53.27   1173.00     34.25
 53.37   1107.00     33.27
 53.47   1264.40     35.56
 53.57   1167.00     34.16
 53.67   1190.08     34.50
 53.77    949.43     30.81
 53.87    824.00     28.71
 53.97    756.00     27.50
 54.07    641.24     25.32
 54.17    653.00     25.55
 54.27    632.00     25.14
 54.37    558.00     23.62
 54.47    554.92     23.56
 54.57    547.00     23.39
 54.67    527.00     22.96
 54.77    545.00     23.35
 54.87    556.00     23.58
 54.97    563.00     23.73
 55.07    567.00     23.81
 55.17    520.00     22.80
 55.27    561.00     23.69
 55.37    565.87     23.79
 55.47    580.82     24.10
 55.57    570.00     23.87
 55.67    589.00     24.27
 55.77    579.00     24.06
 55.87    625.00     25.00
 55.97    666.33     25.81
 56.07    616.00     24.82
 56.17    733.00     27.07
 56.27    903.10     30.05
 56.37   1096.03     33.11
 56.47   1447.38     38.04
 56.57   1844.00     42.94
 56.67   2158.00     46.45
 56.77   2534.00     50.34
 56.87   2582.00     50.81
 56.97   2581.00     50.80
 57.07   2392.00     48.91
 57.17   2065.00     45.44
 57.27   1582.73     39.78
 57.37   1240.00     35.21
 57.47   1034.00     32.16
 57.57    827.00     28.76
 57.67    774.12     27.82
 57.77    736.00     27.13
 57.87    642.00     25.34
 57.97    647.23     25.44
 58.07    681.00     26.10
 58.17    697.00     26.40
 58.27    732.00     27.06
 58.37    833.00     28.86
 58.47    937.00     30.61
 58.57   1011.00     31.80
 58.67   1150.90     33.92
 58.77   1224.00     34.99
 58.87   1441.00     37.96
 58.97   1440.00     37.95
 59.07   1513.01     38.90
 59.17   1522.00     39.01
 59.27   1296.60     36.01
 59.37   1278.34     35.75
 59.47   1239.15     35.20
 59.57   1190.77     34.51
 59.67   1125.00     33.54
 59.77   1178.00     34.32
 59.87   1276.00     35.72
 59.97   1319.00     36.32
 60.07   1388.66     37.26
 60.17   1535.00     39.18
 60.27   1611.00     40.14
 60.37   1499.00     38.72
 60.47   1438.90     37.93
 60.57   1199.03     34.63
 60.67   1099.00     33.15
 60.77    957.60     30.95
 60.87    762.69     27.62
 60.97    736.00     27.13
 61.07    674.00     25.96
 61.17    614.18     24.78
 61.27    591.00     24.31
 61.37    620.44     24.91
 61.47    725.59     26.94
 61.57    714.53     26.73
 61.67    827.74     28.77
 61.77    941.00     30.68
 61.87   1058.00     32.53
 61.97   1274.64     35.70
 62.07   1379.00     37.13
 62.17   1353.00     36.78
 62.27   1393.46     37.33
 62.37   1258.00     35.47
 62.47   1158.00     34.03
 62.57   1045.44     32.33
 62.67    844.00     29.05
 62.77    792.98     28.16
 62.87    662.00     25.73
 62.97    673.00     25.94
 63.07    603.00     24.56
 63.17    596.00     24.41
 63.27    632.00     25.14
 63.37    592.00     24.33
 63.47    564.15     23.75
 63.57    581.00     24.10
 63.67    549.45     23.44
 63.77    605.00     24.60
 63.87    633.00     25.16
 63.97    729.00     27.00
 64.07    724.00     26.91
 64.17    779.00     27.91
 64.27    874.00     29.56
 64.37    886.88     29.78
 64.47    999.00     31.61
 64.57   1057.00     32.51
 64.67   1034.00     32.16
 64.77   1009.00     31.76
 64.87    947.91     30.79
 64.97    931.00     30.51
 65.07    860.00     29.33
 65.17    813.22     28.52
 65.27    737.00     27.15
 65.37    705.00     26.55
 65.47    663.43     25.76
 65.57    606.00     24.62
 65.67    600.39     24.50
 65.77    623.54     24.97
 65.87    570.00     23.87
 65.97    532.00     23.07
 66.07    586.00     24.21
 66.17    518.00     22.76
 66.27    521.00     22.83
 66.37    571.00     23.90
 66.47    583.00     24.15
 66.57    604.65     24.59
 66.67    535.00     23.13
 66.77    557.56     23.61
 66.87    590.00     24.29
 66.97    646.00     25.42
 67.07    627.00     25.04
 67.17    655.67     25.61
 67.27    821.58     28.66
 67.37    877.15     29.62
 67.47   1032.00     32.12
 67.57   1271.03     35.65
 67.67   1590.54     39.88
 67.77   1823.00     42.70
 67.87   2098.00     45.80
 67.97   2331.00     48.28
 68.07   2509.29     50.09
 68.17   2446.00     49.46
 68.27   2235.48     47.28
 68.37   2111.39     45.95
 68.47   1846.00     42.97
 68.57   1484.19     38.53
 68.67   1315.00     36.26
 68.77   1020.00     31.94
 68.87    877.00     29.61
 68.97    793.00     28.16
 69.07    677.02     26.02
 69.17    712.00     26.68
 69.27    595.00     24.39
 69.37    624.00     24.98
 69.47    589.00     24.27
 69.57    603.00     24.56
 69.67    565.00     23.77
 69.77    528.00     22.98
 69.87    616.00     24.82
 69.97    608.33     24.66
 70.07    525.90     22.93
 70.17    575.00     23.98
 70.27    538.56     23.21
 70.37    558.00     23.62
 70.47    569.00     23.85
 70.57    599.00     24.47
 70.67    539.00     23.22
 70.77    576.00     24.00
 70.87    618.00     24.86
 70.97    655.00     25.59
 71.07    650.00     25.50
 71.17    730.00     27.02
 71.27    807.00     28.41
 71.37    918.28     30.30
 71.47   1089.46     33.01
 71.57   1332.07     36.50
 71.67   1445.66     38.02
 71.77   1567.67     39.59
 71.87   1807.00     42.51
 71.97   1851.35     43.03
 72.07   1927.00     43.90
 72.17   1898.00     43.57
 72.27   1796.00     42.38
 72.37   1634.00     40.42
 72.47   1468.75     38.32
 72.57   1347.00     36.70
 72.67   1116.00     33.41
 72.77   1023.00     31.98
 72.87    918.00     30.30
 72.97    809.00     28.44
 73.07    765.74     27.67
 73.17    802.15     28.32
 73.27    717.00     26.78
 73.37    713.66     26.71
 73.47    642.45     25.35
 73.57    679.45     26.07
 73.67    602.00     24.54
 73.77    647.10     25.44
 73.87    589.00     24.27
 73.97    593.28     24.36
 74.07    564.47     23.76
 74.17    577.57     24.03
 74.27    638.00     25.26
 74.37    616.00     24.82
 74.47    636.00     25.22
 74.57    617.90     24.86
 74.67    680.00     26.08
 74.77    652.00     25.53
 74.87    645.00     25.40
 74.97    593.00     24.35
 75.07    623.00     24.96
 75.17    610.00     24.70
 75.27    606.00     24.62
 75.37    564.94     23.77
 75.47    579.41     24.07
 75.57    601.69     24.53
 75.67    559.00     23.64
 75.77    533.08     23.09
 75.87    625.00     25.00
 75.97    627.00     25.04
 76.07    684.00     26.15
 76.17    605.00     24.60
 76.27    707.33     26.60
 76.37    697.91     26.42
 76.47    760.10     27.57
 76.57    706.00     26.57
 76.67    727.97     26.98
 76.77    663.00     25.75
 76.87    625.00     25.00
 76.97    680.46     26.09
 77.07    637.00     25.24
 77.17    610.27     24.70
 77.27    589.00     24.27
 77.37    531.00     23.04
 77.47    550.00     23.45
 77.57    531.00     23.04
 77.67    502.25     22.41
 77.77    507.00     22.52
 77.87    582.00     24.12
 77.97    541.00     23.26
 78.07    502.00     22.41
 78.17    534.00     23.11
 78.27    509.84     22.58
 78.37    490.57     22.15
 78.47    496.00     22.27
 78.57    573.14     23.94
 78.67    571.09     23.90
 78.77    538.00     23.19
 78.87    561.73     23.70
 78.97    554.97     23.56
 79.07    556.06     23.58
 79.17    499.48     22.35
 79.27    532.00     23.07
 79.37    527.00     22.96
 79.47    562.45     23.72
 79.57    564.30     23.75
 79.67    562.00     23.71
 79.77    550.00     23.45
 79.87    533.48     23.10
 79.97    523.00     22.87
 80.07    570.00     23.87
 80.17    562.00     23.71
 80.27    601.00     24.52
 80.37    559.00     23.64
 80.47    616.45     24.83
 80.57    585.22     24.19
 80.67    623.88     24.98
 80.77    658.30     25.66
 80.87    619.00     24.88
 80.97    673.03     25.94
 81.07    668.76     25.86
 81.17    760.33     27.57
 81.27    697.50     26.41
 81.37    796.00     28.21
 81.47    786.12     28.04
 81.57    707.26     26.59
 81.67    753.00     27.44
 81.77    759.96     27.57
 81.87    738.00     27.17
 81.97    738.00     27.17
 82.07    686.00     26.19
 82.17    677.00     26.02
 82.27    689.01     26.25
 82.37    651.00     25.51
 82.47    561.91     23.70
 82.57    613.00     24.76
 82.67    566.00     23.79
 82.77    546.60     23.38
 82.87    531.00     23.04
 82.97    599.65     24.49
 83.07    538.00     23.19
 83.17    570.92     23.89
 83.27    531.00     23.04
 83.37    533.00     23.09
 83.47    526.00     22.93
 83.57    570.00     23.87
 83.67    613.00     24.76
 83.77    612.52     24.75
 83.87    604.00     24.58
 83.97    533.00     23.09
 84.07    556.00     23.58
 84.17    565.00     23.77
 84.27    568.80     23.85
 84.37    505.00     22.47
 84.47    606.12     24.62
 84.57    603.17     24.56
 84.67    566.00     23.79
 84.77    533.00     23.09
 84.87    523.00     22.87
 84.97    503.91     22.45
 85.07    514.00     22.67
 85.17    554.00     23.54
 85.27    550.00     23.45
 85.37    549.00     23.43
 85.47    543.00     23.30
 85.57    565.16     23.77
 85.67    558.00     23.62
 85.77    496.18     22.28
 85.87    526.00     22.93
 85.97    544.00     23.32
 86.07    521.61     22.84
 86.17    554.00     23.54
 86.27    539.00     23.22
 86.37    538.04     23.20
 86.47    525.00     22.91
 86.57    573.00     23.94
 86.67    568.00     23.83
 86.77    605.55     24.61
 86.87    573.00     23.94
 86.97    620.00     24.90
 87.07    606.00     24.62
 87.17    618.00     24.86
 87.27    642.00     25.34
 87.37    686.00     26.19
 87.47    592.32     24.34
 87.57    593.99     24.37
 87.67    666.00     25.81
 87.77    627.00     25.04
 87.87    612.00     24.74
 87.97    607.00     24.64
 88.07    625.00     25.00
 88.17    625.49     25.01
 88.27    601.00     24.52
 88.37    541.79     23.28
 88.47    584.00     24.17
 88.57    632.00     25.14
 88.67    596.00     24.41
 88.77    617.00     24.84
 88.87    598.12     24.46
 88.97    623.00     24.96
 89.07    609.00     24.68
 89.17    574.00     23.96
 89.27    622.00     24.94
 89.37    582.00     24.12
 89.47    607.00     24.64
 89.57    599.00     24.47
 89.67    638.00     25.26
 89.77    586.88     24.23
 89.87    598.11     24.46
 89.97    549.00     23.43
 90.07    552.00     23.49
 90.17    604.22     24.58
 90.27    517.00     22.74
 90.37    480.00     21.91
 90.47    498.27     22.32
 90.57    541.00     23.26
 90.67    515.00     22.69
 90.77    565.53     23.78
 90.87    552.59     23.51
 90.97    511.00     22.61
 91.07    474.00     21.77
 91.17    491.00     22.16
 91.27    546.67     23.38
 91.37    576.38     24.01
 91.47    534.00     23.11
 91.57    547.00     23.39
 91.67    559.00     23.64
 91.77    527.00     22.96
 91.87    531.00     23.04
 91.97    515.66     22.71
 92.07    553.07     23.52
 92.17    584.00     24.17
 92.27    623.00     24.96
 92.37    646.06     25.42
 92.47    586.39     24.22
 92.57    619.00     24.88
 92.67    651.00     25.51
 92.77    664.82     25.78
 92.87    714.00     26.72
 92.97    735.56     27.12
 93.07    767.00     27.69
 93.17    829.00     28.79
 93.27    818.00     28.60
 93.37    803.00     28.34
 93.47    762.00     27.60
 93.57    833.00     28.86
 93.67    819.00     28.62
 93.77    808.00     28.43
 93.87    857.47     29.28
 93.97    845.75     29.08
 94.07    865.00     29.41
 94.17    858.00     29.29
 94.27    863.00     29.38
 94.37    834.57     28.89
 94.47    893.00     29.88
 94.57    885.00     29.75
 94.67    858.00     29.29
 94.77    886.25     29.77
 94.87    955.00     30.90
 94.97    894.83     29.91
 95.07    899.44     29.99
 95.17    847.70     29.12
 95.27    829.00     28.79
 95.37    826.15     28.74
 95.47    803.35     28.34
 95.57    699.00     26.44
 95.67    742.80     27.25
 95.77    720.00     26.83
 95.87    669.08     25.87
 95.97    632.59     25.15
 96.07    723.16     26.89
 96.17    694.00     26.34
 96.27    691.00     26.29
 96.37    757.51     27.52
 96.47    753.29     27.45
 96.57    863.21     29.38
 96.67    903.00     30.05
 96.77   1002.00     31.65
 96.87   1085.00     32.94
 96.97   1115.52     33.40
 97.07   1258.00     35.47
 97.17   1288.00     35.89
 97.27   1349.00     36.73
 97.37   1403.42     37.46
 97.47   1375.31     37.09
 97.57   1427.00     37.78
 97.67   1392.89     37.32
 97.77   1377.00     37.11
 97.87   1297.00     36.01
 97.97   1254.00     35.41
 98.07   1196.91     34.60
 98.17   1166.00     34.15
 98.27   1017.01     31.89
 98.37   1024.88     32.01
 98.47    957.06     30.94
 98.57    929.00     30.48
 98.67    818.00     28.60
 98.77    808.00     28.43
 98.87    763.36     27.63
 98.97    815.00     28.55
 99.07    809.00     28.44
 99.17    830.63     28.82
 99.27    903.00     30.05
 99.37    888.60     29.81
 99.47   1057.00     32.51
 99.57   1110.24     33.32
 99.67   1181.00     34.37
 99.77   1215.23     34.86
 99.87   1453.00     38.12
 99.97   1499.00     38.72
100.07   1709.00     41.34
100.17   1770.72     42.08
100.27   1884.00     43.41
100.37   1940.74     44.05
100.47   1995.00     44.67
100.57   2034.00     45.10
100.67   2107.00     45.90
100.77   2124.94     46.10
100.87   2009.11     44.82
100.97   2019.00     44.93
101.07   1938.00     44.02
101.17   1927.00     43.90
101.27   1718.00     41.45
101.37   1686.00     41.06
101.47   1656.66     40.70
101.57   1482.00     38.50
101.67   1476.00     38.42
101.77   1295.28     35.99
101.87   1304.63     36.12
101.97   1212.19     34.82
102.07   1200.02     34.64
102.17   1131.00     33.63
102.27   1128.00     33.59
102.37   1095.00     33.09
102.47   1060.00     32.56
102.57   1122.00     33.50
102.67   1060.00     32.56
102.77   1053.65     32.46
102.87    953.00     30.87
102.97    976.18     31.24
103.07    902.00     30.03
103.17    926.71     30.44
103.27    796.00     28.21
103.37    791.00     28.12
103.47    747.13     27.33
103.57    775.00     27.84
103.67    714.00     26.72
103.77    644.36     25.38
103.87    625.00     25.00
103.97    623.85     24.98
104.07    573.00     23.94
104.17    600.00     24.49
104.27    565.74     23.79
104.37    578.00     24.04
104.47    516.83     22.73
104.57    514.47     22.68
104.67    546.00     23.37
104.77    538.00     23.19
104.87    561.00     23.69
104.97    499.44     22.35
105.07    540.35     23.25
105.17    568.00     23.83
105.27    538.00     23.19
105.37    561.33     23.69
105.47    542.00     23.28
105.57    548.00     23.41
105.67    539.00     23.22
105.77    534.00     23.11
105.87    585.00     24.19
105.97    601.99     24.54
106.07    525.95     22.93
106.17    586.00     24.21
106.27    555.50     23.57
106.37    577.00     24.02
106.47    619.00     24.88
106.57    628.00     25.06
106.67    685.45     26.18
106.77    625.00     25.00
106.87    662.00     25.73
106.97    659.00     25.67
107.07    683.38     26.14
107.17    726.29     26.95
107.27    718.66     26.81
107.37    712.62     26.69
107.47    708.00     26.61
107.57    686.68     26.20
107.67    757.34     27.52
107.77    641.00     25.32
107.87    714.00     26.72
107.97    729.00     27.00
108.07    666.00     25.81
108.17    657.00     25.63
108.27    648.57     25.47
108.37    689.00     26.25
108.47    661.00     25.71
108.57    681.00     26.10
108.67    712.00     26.68
108.77    674.78     25.98
108.87    723.00     26.89
108.97    653.00     25.55
109.07    684.00     26.15
109.17    632.15     25.14
109.27    691.00     26.29
109.37    683.00     26.13
109.47    632.99     25.16
109.57    652.00     25.53
109.67    623.30     24.97
109.77    603.00     24.56
109.87    617.92     24.86
109.97    637.34     25.25
110.07    601.00     24.52
110.17    587.00     24.23
110.27    609.21     24.68
110.37    550.00     23.45
110.47    566.00     23.79
110.57    578.00     24.04
110.67    540.82     23.26
110.77    536.00     23.15
110.87    569.87     23.87
110.97    585.00     24.19
111.07    558.88     23.64
111.17    543.00     23.30
111.27    571.43     23.90
111.37    567.00     23.81
111.47    499.00     22.34
111.57    535.00     23.13
111.67    592.00     24.33
111.77    533.00     23.09
111.87    547.00     23.39
111.97    582.00     24.12
112.07    559.00     23.64
112.17    539.87     23.24
112.27    583.61     24.16
112.37    572.28     23.92
112.47    584.00     24.17
112.57    619.00     24.88
112.67    589.00     24.27
112.77    600.00     24.49
112.87    691.00     26.29
112.97    668.36     25.85
113.07    648.00     25.46
113.17    660.00     25.69
113.27    720.00     26.83
113.37    700.00     26.46
113.47    747.00     27.33
113.57    739.00     27.18
113.67    814.00     28.53
113.77    828.29     28.78
113.87    893.00     29.88
113.97    934.00     30.56
114.07    912.00     30.20
114.17   1005.10     31.70
114.27   1111.00     33.33
114.37   1131.00     33.63
114.47   1253.80     35.41
114.57   1427.00     37.78
114.67   1553.00     39.41
114.77   1686.00     41.06
114.87   1906.05     43.66
114.97   2086.00     45.67
115.07   2339.58     48.37
115.17   2572.00     50.71
115.27   2743.59     52.38
115.37   3023.94     54.99
115.47   3469.00     58.90
115.57   3752.00     61.25
115.67   4095.21     63.99
115.77   4637.84     68.10
115.87   4901.00     70.01
115.97   5280.58     72.67
116.07   5722.46     75.65
116.17   5986.00     77.37
116.27   6427.62     80.17
116.37   6519.00     80.74
116.47   6818.00     82.57
116.57   6744.69     82.13
116.67   6787.96     82.39
116.77   6823.00     82.60
116.87   6632.80     81.44
116.97   6534.14     80.83
117.07   6409.00     80.06
117.17   6013.00     77.54
117.27   5693.35     75.45
117.37   5361.21     73.22
117.47   4980.00     70.57
117.57   4725.19     68.74
117.67   4294.70     65.53
117.77   3970.89     63.01
117.87   3563.50     59.70
117.97   3136.43     56.00
118.07   2805.79     52.97
118.17   2565.00     50.65
118.27   2279.00     47.74
118.37   2083.67     45.65
118.47   1843.37     42.93
118.57   1554.62     39.43
118.67   1377.00     37.11
118.77   1304.00     36.11
118.87   1150.72     33.92
118.97   1119.64     33.46
119.07    939.65     30.65
119.17    917.22     30.29
119.27    838.76     28.96
119.37    786.00     28.04
119.47    759.11     27.55
119.57    725.00     26.93
119.67    651.00     25.51
119.77    653.00     25.55
119.87    660.00     25.69
119.97    660.00     25.69
120.07    571.00     23.90
120.17    614.00     24.78
120.27    584.00     24.17
120.37    569.98     23.87
120.47    576.00     24.00
120.57    539.00     23.22
120.67    575.00     23.98
120.77    571.00     23.90
120.87    586.00     24.21
120.97    543.00     23.30
121.07    586.00     24.21
121.17    553.00     23.52
121.27    603.00     24.56
121.37    583.00     24.15
121.47    607.00     24.64
121.57    622.00     24.94
121.67    607.00     24.64
121.77    625.00     25.00
121.87    574.41     23.97
121.97    561.82     23.70
122.07    571.90     23.91
122.17    607.00     24.64
122.27    581.41     24.11
122.37    583.00     24.15
122.47    617.00     24.84
122.57    666.00     25.81
122.67    626.00     25.02
122.77    627.50     25.05
122.87    642.00     25.34
122.97    630.00     25.10
123.07    693.00     26.32
123.17    656.00     25.61
123.27    675.21     25.98
123.37    639.00     25.28
123.47    641.67     25.33
123.57    667.69     25.84
123.67    649.00     25.48
123.77    602.39     24.54
123.87    631.00     25.12
123.97    602.00     24.54
124.07    639.65     25.29
124.17    588.79     24.26
124.27    660.22     25.69
124.37    594.00     24.37
124.47    644.00     25.38
124.57    631.00     25.12
124.67    606.00     24.62
124.77    546.55     23.38
124.87    588.00     24.25
124.97    586.00     24.21
