XYDATA



INTER 1.0 1.0 0 0
TEMP 1074.0
  9.97    525.00     22.91
 10.07    628.00     25.06
 10.17    615.00     24.80
 10.27    579.00     24.06
 10.37    624.00     24.98
 10.47    571.00     23.90
 10.57    550.90     23.47
 10.67    558.00     23.62
 10.77    592.00     24.33
 10.87    604.15     24.58
 10.97    568.00     23.83
 11.07    573.00     23.94
 11.17    625.00     25.00
 11.27    615.00     24.80
 11.37    563.96     23.75
 11.47    640.00     25.30
 11.57    605.00     24.60
 11.67    575.76     24.00
 11.77    595.01     24.39
 11.87    620.00     24.90
 11.97    591.73     24.33
 12.07    644.00     25.38
 12.17    692.00     26.31
 12.27    695.10     26.36
 12.37    663.00     25.75
 12.47    621.96     24.94
 12.57    605.00     24.60
 12.67    642.23     25.34
 12.77    580.00     24.08
 12.87    574.63     23.97
 12.97    581.35     24.11
 13.07    552.00     23.49
 13.17    545.00     23.35
 13.27    593.00     24.35
 13.37    558.25     23.63
 13.47    560.00     23.66
 13.57    589.02     24.27
 13.67    597.00     24.43
 13.77    591.88     24.33
 13.87    582.00     24.12
 13.97    554.00     23.54
 14.07    538.00     23.19
 14.17    577.00     24.02
 14.27    534.00     23.11
 14.37    604.91     24.59
 14.47    570.00     23.87
 14.57    585.00     24.19
 14.67    590.00     24.29
 14.77    552.00     23.49
 14.87    546.00     23.37
 14.97    515.00     22.69
 15.07    547.00     23.39
 15.17    550.61     23.47
 15.27    551.28     23.48
 15.37    559.92     23.66
 15.47    600.00     24.49
 15.57    531.00     23.04
 15.67    614.15     24.78
 15.77    562.90     23.73
 15.87    531.59     23.06
 15.97    552.23     23.50
 16.07    535.89     23.15
 16.17    590.45     24.30
 16.27    542.00     23.28
 16.37    597.21     24.44
 16.47    559.00     23.64
 16.57    542.00     23.28
 16.67    521.00     22.83
 16.77    613.41     24.77
 16.87    562.05     23.71
 16.97    569.00     23.85
 17.07    566.00     23.79
 17.17    536.00     23.15
 17.27    529.00     23.00
 17.37    562.47     23.72
 17.47    586.00     24.21
 17.57    593.65     24.36
 17.67    574.00     23.96
 17.77    581.00     24.10
 17.87    590.00     24.29
 17.97    534.85     23.13
 18.07    593.32     24.36
 18.17    541.00     23.26
 18.27    579.79     24.08
 18.37    570.76     23.89
 18.47    577.00     24.02
 18.57    555.00     23.56
 18.67    539.00     23.22
 18.77    525.55     22.92
 18.87    566.00     23.79
 18.97    580.00     24.08
 19.07    531.00     23.04
 19.17    589.00     24.27
 19.27    562.00     23.71
 19.37    575.44     23.99
 19.47    590.00     24.29
 19.57    574.72     23.97
 19.67    547.00     23.39
 19.77    506.00     22.49
 19.87    526.00     22.93
 19.97    557.00     23.60
 20.07    551.01     23.47
 20.17    551.00     23.47
 20.27    556.00     23.58
 20.37    528.47     22.99
 20.47    580.00     24.08
 20.57    551.00     23.47
 20.67    551.07     23.47
 20.77    562.00     23.71
 20.87    597.22     24.44
 20.97    523.00     22.87
 21.07    544.00     23.32
 21.17    526.00     22.93
 21.27    520.13     22.81
 21.37    556.00     23.58
 21.47    595.44     24.40
 21.57    560.00     23.66
 21.67    561.00     23.69
 21.77    557.00     23.60
 21.87    624.00     24.98
 21.97    542.00     23.28
 22.07    586.00     24.21
 22.17    573.80     23.95
 22.27    576.00     24.00
 22.37    563.23     23.73
 22.47    593.34     24.36
 22.57    547.00     23.39
 22.67    552.00     23.49
 22.77    498.00     22.32
 22.87    561.00     23.69
 22.97    545.00     23.35
 23.07    533.17     23.09
 23.17    550.75     23.47
 23.27    525.66     22.93
 23.37    557.00     23.60
 23.47    573.00     23.94
 23.57    573.92     23.96
 23.67    569.00     23.85
 23.77    564.00     23.75
 23.87    527.69     22.97
 23.97    541.00     23.26
 24.07    588.00     24.25
 24.17    580.00     24.08
 24.27    603.00     24.56
 24.37    576.54     24.01
 24.47    623.15     24.96
 24.57    635.00     25.20
 24.67    562.00     23.71
 24.77    636.00     25.22
 24.87    606.51     24.63
 24.97    622.82     24.96
 25.07    598.62     24.47
 25.17    580.00     24.08
 25.27    583.57     24.16
 25.37    575.10     23.98
 25.47    572.88     23.93
 25.57    607.00     24.64
 25.67    574.00     23.96
 25.77    608.00     24.66
 25.87    572.00     23.92
 25.97    560.00     23.66
 26.07    505.94     22.49
 26.17    521.00     22.83
 26.27    545.00     23.35
 26.37    532.00     23.07
 26.47    530.00     23.02
 26.57    559.00     23.64
 26.67    582.80     24.14
 26.77    538.26     23.20
 26.87    554.00     23.54
 26.97    570.00     23.87
 27.07    554.00     23.54
 27.17    547.00     23.39
 27.27    544.00     23.32
 27.37    528.73     22.99
 27.47    542.00     23.28
 27.57    574.56     23.97
 27.67    523.00     22.87
 27.77    554.55     23.55
 27.87    631.24     25.12
 27.97    708.54     26.62
 28.07    767.00     27.69
 28.17    889.00     29.82
 28.27    945.00     30.74
 28.37    912.29     30.20
 28.47    826.00     28.74
 28.57    701.39     26.48
 28.67    723.00     26.89
 28.77    681.00     26.10
 28.87    790.00     28.11
 28.97    820.12     28.64
 29.07    828.86     28.79
 29.17    719.00     26.81
 29.27    645.00     25.40
 29.37    617.00     24.84
 29.47    577.00     24.02
 29.57    603.00     24.56
 29.67    580.82     24.10
 29.77    601.00     24.52
 29.87    542.33     23.29
 29.97    617.00     24.84
 30.07    598.00     24.45
 30.17    564.00     23.75
 30.27    579.20     24.07
 30.37    497.04     22.29
 30.47    562.00     23.71
 30.57    556.00     23.58
 30.67    553.00     23.52
 30.77    631.68     25.13
 30.87    636.00     25.22
 30.97    624.00     24.98
 31.07    628.00     25.06
 31.17    599.00     24.47
 31.27    568.85     23.85
 31.37    545.33     23.35
 31.47    536.00     23.15
 31.57    504.00     22.45
 31.67    543.12     23.30
 31.77    575.00     23.98
 31.87    558.00     23.62
 31.97    536.25     23.16
 32.07    530.00     23.02
 32.17    530.00     23.02
 32.27    513.00     22.65
 32.37    532.00     23.07
 32.47    565.00     23.77
 32.57    494.42     22.24
 32.67    521.18     22.83
 32.77    535.00     23.13
 32.87    515.00     22.69
 32.97    517.00     22.74
 33.07    515.00     22.69
 33.17    500.00     22.36
 33.27    542.31     23.29
 33.37    507.00     22.52
 33.47    596.00     24.41
 33.57    626.00     25.02
 33.67    625.00     25.00
 33.77    701.68     26.49
 33.87    891.00     29.85
 33.97    993.00     31.51
 34.07   1068.00     32.68
 34.17    966.36     31.09
 34.27    926.00     30.43
 34.37    771.00     27.77
 34.47    609.64     24.69
 34.57    617.39     24.85
 34.67    574.00     23.96
 34.77    546.38     23.37
 34.87    552.00     23.49
 34.97    529.00     23.00
 35.07    580.00     24.08
 35.17    507.00     22.52
 35.27    533.00     23.09
 35.37    489.00     22.11
 35.47    553.00     23.52
 35.57    499.52     22.35
 35.67    509.00     22.56
 35.77    504.00     22.45
 35.87    544.38     23.33
 35.97    523.00     22.87
 36.07    550.38     23.46
 36.17    517.00     22.74
 36.27    507.33     22.52
 36.37    510.00     22.58
 36.47    506.00     22.49
 36.57    538.00     23.19
 36.67    521.00     22.83
 36.77    515.00     22.69
 36.87    506.00     22.49
 36.97    484.76     22.02
 37.07    539.00     23.22
 37.17    548.85     23.43
 37.27    504.87     22.47
 37.37    573.00     23.94
 37.47    494.00     22.23
 37.57    536.00     23.15
 37.67    530.00     23.02
 37.77    484.00     22.00
 37.87    501.40     22.39
 37.97    554.29     23.54
 38.07    530.00     23.02
 38.17    507.00     22.52
 38.27    498.00     22.32
 38.37    484.00     22.00
 38.47    510.00     22.58
 38.57    547.73     23.40
 38.67    483.00     21.98
 38.77    499.76     22.36
 38.87    520.00     22.80
 38.97    534.35     23.12
 39.07    464.74     21.56
 39.17    475.28     21.80
 39.27    508.00     22.54
 39.37    512.00     22.63
 39.47    514.00     22.67
 39.57    508.00     22.54
 39.67    499.97     22.36
 39.77    518.00     22.76
 39.87    532.00     23.07
 39.97    527.07     22.96
 40.07    528.01     22.98
 40.17    536.29     23.16
 40.27    488.00     22.09
 40.37    508.00     22.54
 40.47    449.00     21.19
 40.57    487.00     22.07
 40.67    520.00     22.80
 40.77    526.00     22.93
 40.87    488.00     22.09
 40.97    537.00     23.17
 41.07    478.00     21.86
 41.17    546.57     23.38
 41.27    498.00     22.32
 41.37    516.00     22.72
 41.47    485.78     22.04
 41.57    522.00     22.85
 41.67    481.00     21.93
 41.77    548.00     23.41
 41.87    529.09     23.00
 41.97    541.49     23.27
 42.07    481.50     21.94
 42.17    560.64     23.68
 42.27    485.00     22.02
 42.37    604.24     24.58
 42.47    576.00     24.00
 42.57    606.40     24.63
 42.67    529.00     23.00
 42.77    567.00     23.81
 42.87    596.91     24.43
 42.97    589.64     24.28
 43.07    573.96     23.96
 43.17    540.00     23.24
 43.27    498.91     22.34
 43.37    519.00     22.78
 43.47    496.00     22.27
 43.57    471.33     21.71
 43.67    499.00     22.34
 43.77    548.39     23.42
 43.87    502.00     22.41
 43.97    492.00     22.18
 44.07    510.00     22.58
 44.17    490.00     22.14
 44.27    462.00     21.49
 44.37    467.44     21.62
 44.47    514.00     22.67
 44.57    511.78     22.62
 44.67    496.00     22.27
 44.77    516.00     22.72
 44.87    494.00     22.23
 44.97    491.05     22.16
 45.07    490.65     22.15
 45.17    471.38     21.71
 45.27    532.30     23.07
 45.37    484.00     22.00
 45.47    528.48     22.99
 45.57    473.01     21.75
 45.67    547.75     23.40
 45.77    532.00     23.07
 45.87    461.56     21.48
 45.97    498.65     22.33
 46.07    497.27     22.30
 46.17    522.00     22.85
 46.27    560.00     23.66
 46.37    550.00     23.45
 46.47    555.00     23.56
 46.57    488.34     22.10
 46.67    500.00     22.36
 46.77    526.45     22.94
 46.87    516.00     22.72
 46.97    549.00     23.43
 47.07    497.00     22.29
 47.17    516.00     22.72
 47.27    553.81     23.53
 47.37    509.83     22.58
 47.47    531.00     23.04
 47.57    526.45     22.94
 47.67    529.98     23.02
 47.77    565.00     23.77
 47.87    639.36     25.29
 47.97    630.00     25.10
 48.07    591.00     24.31
 48.17    560.00     23.66
 48.27    557.00     23.60
 48.37    561.00     23.69
 48.47    519.00     22.78
 48.57    529.00     23.00
 48.67    538.00     23.19
 48.77    543.00     23.30
 48.87    549.00     23.43
 48.97    526.84     22.95
 49.07    565.00     23.77
 49.17    580.00     24.08
 49.27    636.00     25.22
 49.37    651.00     25.51
 49.47    665.00     25.79
 49.57    753.79     27.46
 49.67    954.00     30.89
 49.77   1108.00     33.29
 49.87   1484.00     38.52
 49.97   1841.00     42.91
 50.07   2222.00     47.14
 50.17   2527.00     50.27
 50.27   2562.60     50.62
 50.37   2319.00     48.16
 50.47   1948.00     44.14
 50.57   1460.00     38.21
 50.67   1018.00     31.91
 50.77    825.02     28.72
 50.87    706.00     26.57
 50.97    664.55     25.78
 51.07    636.33     25.23
 51.17    581.00     24.10
 51.27    601.00     24.52
 51.37    574.00     23.96
 51.47    589.00     24.27
 51.57    611.00     24.72
 51.67    557.47     23.61
 51.77    538.00     23.19
 51.87    525.00     22.91
 51.97    560.25     23.67
 52.07    514.94     22.69
 52.17    588.00     24.25
 52.27    552.93     23.51
 52.37    518.62     22.77
 52.47    566.96     23.81
 52.57    568.58     23.84
 52.67    577.00     24.02
 52.77    555.76     23.57
 52.87    606.00     24.62
 52.97    681.00     26.10
 53.07    802.84     28.33
 53.17    941.00     30.68
 53.27   1017.00     31.89
 53.37   1124.00     33.53
 53.47   1174.00     34.26
 53.57   1199.00     34.63
 53.67   1073.71     32.77
 53.77    980.38     31.31
 53.87    860.00     29.33
 53.97    733.00     27.07
 54.07    693.00     26.32
 54.17    576.65     24.01
 54.27    614.00     24.78
 54.37    556.73     23.60
 54.47    636.00     25.22
 54.57    566.00     23.79
 54.67    564.84     23.77
 54.77    510.24     22.59
 54.87    589.06     24.27
 54.97    557.00     23.60
 55.07    577.00     24.02
 55.17    585.00     24.19
 55.27    590.00     24.29
 55.37    585.62     24.20
 55.47    582.00     24.12
 55.57    557.00     23.60
 55.67    576.19     24.00
 55.77    569.03     23.85
 55.87    611.00     24.72
 55.97    635.13     25.20
 56.07    641.00     25.32
 56.17    739.85     27.20
 56.27    924.09     30.40
 56.37   1175.35     34.28
 56.47   1362.00     36.91
 56.57   1788.00     42.28
 56.67   2235.92     47.29
 56.77   2430.09     49.30
 56.87   2654.00     51.52
 56.97   2558.76     50.58
 57.07   2294.01     47.90
 57.17   2055.61     45.34
 57.27   1636.00     40.45
 57.37   1299.00     36.04
 57.47    989.72     31.46
 57.57    956.00     30.92
 57.67    794.00     28.18
 57.77    770.00     27.75
 57.87    697.00     26.40
 57.97    690.00     26.27
 58.07    718.00     26.80
 58.17    701.00     26.48
 58.27    747.00     27.33
 58.37    821.00     28.65
 58.47    948.96     30.81
 58.57   1100.26     33.17
 58.67   1164.00     34.12
 58.77   1357.00     36.84
 58.87   1469.00     38.33
 58.97   1439.07     37.94
 59.07   1592.00     39.90
 59.17   1492.98     38.64
 59.27   1479.19     38.46
 59.37   1404.00     37.47
 59.47   1316.00     36.28
 59.57   1138.12     33.74
 59.67   1177.00     34.31
 59.77   1202.00     34.67
 59.87   1296.00     36.00
 59.97   1239.70     35.21
 60.07   1473.00     38.38
 60.17   1556.49     39.45
 60.27   1558.00     39.47
 60.37   1512.00     38.88
 60.47   1495.00     38.67
 60.57   1251.96     35.38
 60.67   1094.87     33.09
 60.77    929.00     30.48
 60.87    738.00     27.17
 60.97    709.00     26.63
 61.07    682.00     26.12
 61.17    667.00     25.83
 61.27    667.00     25.83
 61.37    600.76     24.51
 61.47    668.33     25.85
 61.57    758.42     27.54
 61.67    859.00     29.31
 61.77   1012.00     31.81
 61.87   1122.00     33.50
 61.97   1234.00     35.13
 62.07   1435.95     37.89
 62.17   1476.02     38.42
 62.27   1371.00     37.03
 62.37   1281.35     35.80
 62.47   1178.00     34.32
 62.57   1036.00     32.19
 62.67    879.00     29.65
 62.77    845.75     29.08
 62.87    666.88     25.82
 62.97    595.56     24.40
 63.07    541.00     23.26
 63.17    584.83     24.18
 63.27    578.00     24.04
 63.37    555.79     23.58
 63.47    517.96     22.76
 63.57    542.70     23.30
 63.67    588.00     24.25
 63.77    616.00     24.82
 63.87    630.00     25.10
 63.97    629.60     25.09
 64.07    714.00     26.72
 64.17    758.00     27.53
 64.27    880.00     29.66
 64.37    921.63     30.36
 64.47    956.00     30.92
 64.57   1084.00     32.92
 64.67   1032.00     32.12
 64.77   1051.00     32.42
 64.87    964.24     31.05
 64.97    953.00     30.87
 65.07    880.30     29.67
 65.17    736.39     27.14
 65.27    727.07     26.96
 65.37    718.00     26.80
 65.47    664.00     25.77
 65.57    644.00     25.38
 65.67    642.40     25.35
 65.77    600.01     24.50
 65.87    592.00     24.33
 65.97    547.00     23.39
 66.07    562.61     23.72
 66.17    551.00     23.47
 66.27    534.00     23.11
 66.37    542.00     23.28
 66.47    593.00     24.35
 66.57    558.00     23.62
 66.67    558.00     23.62
 66.77    603.63     24.57
 66.87    583.00     24.15
 66.97    592.00     24.33
 67.07    622.00     24.94
 67.17    668.00     25.85
 67.27    777.94     27.89
 67.37    932.33     30.53
 67.47   1092.95     33.06
 67.57   1325.38     36.41
 67.67   1513.00     38.90
 67.77   1868.27     43.22
 67.87   2104.00     45.87
 67.97   2372.67     48.71
 68.07   2441.00     49.41
 68.17   2342.59     48.40
 68.27   2242.57     47.36
 68.37   2083.00     45.64
 68.47   1823.00     42.70
 68.57   1553.00     39.41
 68.67   1342.00     36.63
 68.77   1070.00     32.71
 68.87    899.02     29.98
 68.97    790.00     28.11
 69.07    712.57     26.69
 69.17    658.25     25.66
 69.27    625.00     25.00
 69.37    626.17     25.02
 69.47    587.81     24.24
 69.57    578.00     24.04
 69.67    590.75     24.31
 69.77    570.00     23.87
 69.87    588.64     24.26
 69.97    531.00     23.04
 70.07    563.00     23.73
 70.17    609.11     24.68
 70.27    606.00     24.62
 70.37    582.00     24.12
 70.47    559.02     23.64
 70.57    528.00     22.98
 70.67    595.00     24.39
 70.77    555.00     23.56
 70.87    638.18     25.26
 70.97    643.00     25.36
 71.07    647.00     25.44
 71.17    728.22     26.99
 71.27    885.00     29.75
 71.37    960.00     30.98
 71.47   1030.00     32.09
 71.57   1240.00     35.21
 71.67   1413.00     37.59
 71.77   1607.00     40.09
 71.87   1810.00     42.54
 71.97   1812.73     42.58
 72.07   1964.85     44.33
 72.17   1897.65     43.56
 72.27   1823.00     42.70
 72.37   1702.00     41.26
 72.47   1488.99     38.59
 72.57   1278.00     35.75
 72.67   1177.00     34.31
 72.77   1018.00     31.91
 72.87    878.00     29.63
 72.97    863.37     29.38
 73.07    859.40     29.32
 73.17    831.74     28.84
 73.27    691.00     26.29
 73.37    694.69     26.36
 73.47    723.36     26.90
 73.57    625.00     25.00
 73.67    626.00     25.02
 73.77    561.49     23.70
 73.87    564.00     23.75
 73.97    585.00     24.19
 74.07    604.00     24.58
 74.17    588.13     24.25
 74.27    602.00     24.54
 74.37    614.00     24.78
 74.47    632.00     25.14
 74.57    679.00     26.06
 74.67    678.00     26.04
 74.77    608.00     24.66
 74.87    610.00     24.70
 74.97    587.33     24.23
 75.07    623.00     24.96
 75.17    537.86     23.19
 75.27    570.00     23.87
 75.37    504.76     22.47
 75.47    546.45     23.38
 75.57    544.08     23.33
 75.67    551.00     23.47
 75.77    599.00     24.47
 75.87    625.37     25.01
 75.97    631.00     25.12
 76.07    621.00     24.92
 76.17    624.00     24.98
 76.27    670.00     25.88
 76.37    677.32     26.03
 76.47    676.00     26.00
 76.57    705.00     26.55
 76.67    727.55     26.97
 76.77    726.00     26.94
 76.87    717.16     26.78
 76.97    614.00     24.78
 77.07    621.03     24.92
 77.17    560.33     23.67
 77.27    528.00     22.98
 77.37    542.00     23.28
 77.47    580.16     24.09
 77.57    562.00     23.71
 77.67    517.08     22.74
 77.77    513.04     22.65
 77.87    534.48     23.12
 77.97    525.00     22.91
 78.07    526.20     22.94
 78.17    506.88     22.51
 78.27    529.00     23.00
 78.37    520.78     22.82
 78.47    543.00     23.30
 78.57    530.44     23.03
 78.67    550.09     23.45
 78.77    527.00     22.96
 78.87    506.00     22.49
 78.97    502.00     22.41
 79.07    471.00     21.70
 79.17    515.76     22.71
 79.27    511.25     22.61
 79.37    532.88     23.08
 79.47    510.00     22.58
 79.57    554.00     23.54
 79.67    581.00     24.10
 79.77    537.01     23.17
 79.87    528.00     22.98
 79.97    558.69     23.64
 80.07    566.28     23.80
 80.17    530.55     23.03
 80.27    573.00     23.94
 80.37    578.00     24.04
 80.47    549.00     23.43
 80.57    567.00     23.81
 80.67    615.00     24.80
 80.77    658.00     25.65
 80.87    678.00     26.04
 80.97    638.00     25.26
 81.07    732.62     27.07
 81.17    730.00     27.02
 81.27    754.90     27.48
 81.37    711.81     26.68
 81.47    768.00     27.71
 81.57    773.00     27.80
 81.67    723.00     26.89
 81.77    747.00     27.33
 81.87    729.88     27.02
 81.97    668.02     25.85
 82.07    707.00     26.59
 82.17    648.00     25.46
 82.27    649.00     25.48
 82.37    655.00     25.59
 82.47    577.65     24.03
 82.57    610.21     24.70
 82.67    585.00     24.19
 82.77    540.06     23.24
 82.87    569.00     23.85
 82.97    541.00     23.26
 83.07    583.22     24.15
 83.17    586.48     24.22
 83.27    511.00     22.61
 83.37    533.00     23.09
 83.47    566.72     23.81
 83.57    507.00     22.52
 83.67    537.29     23.18
 83.77    596.00     24.41
 83.87    572.00     23.92
 83.97    619.40     24.89
 84.07    594.99     24.39
 84.17    565.00     23.77
 84.27    606.00     24.62
 84.37    549.00     23.43
 84.47    589.00     24.27
 84.57    577.85     24.04
 84.67    518.45     22.77
 84.77    565.00     23.77
 84.87    526.00     22.93
 84.97    542.00     23.28
 85.07    488.33     22.10
 85.17    551.00     23.47
 85.27    527.00     22.96
 85.37    567.58     23.82
 85.47    546.00     23.37
 85.57    527.42     22.97
 85.67    567.33     23.82
 85.77    510.00     22.58
 85.87    513.00     22.65
 85.97    548.00     23.41
 86.07    525.74     22.93
 86.17    519.00     22.78
 86.27    522.00     22.85
 86.37    503.43     22.44
 86.47    531.00     23.04
 86.57    596.00     24.41
 86.67    578.00     24.04
 86.77    576.16     24.00
 86.87    599.00     24.47
 86.97    562.52     23.72
 87.07    579.00     24.06
 87.17    616.00     24.82
 87.27    647.00     25.44
 87.37    630.00     25.10
 87.47    635.00     25.20
 87.57    618.82     24.88
 87.67    640.00     25.30
 87.77    682.00     26.12
 87.87    646.00     25.42
 87.97    564.75     23.76
 88.07    606.00     24.62
 88.17    596.00     24.41
 88.27    601.00     24.52
 88.37    617.00     24.84
 88.47    629.00     25.08
 88.57    570.00     23.87
 88.67    615.31     24.81
 88.77    583.00     24.15
 88.87    594.00     24.37
 88.97    608.26     24.66
 89.07    574.00     23.96
 89.17    645.34     25.40
 89.27    569.74     23.87
 89.37    615.00     24.80
 89.47    571.00     23.90
 89.57    592.00     24.33
 89.67    556.61     23.59
 89.77    575.00     23.98
 89.87    598.00     24.45
 89.97    614.00     24.78
 90.07    588.00     24.25
 90.17    553.00     23.52
 90.27    550.11     23.45
 90.37    586.45     24.22
 90.47    528.35     22.99
 90.57    553.15     23.52
 90.67    531.52     23.05
 90.77    558.92     23.64
 90.87    542.03     23.28
 90.97    497.85     22.31
 91.07    539.13     23.22
 91.17    563.00     23.73
 91.27    536.23     23.16
 91.37    502.00     22.41
 91.47    570.15     23.88
 91.57    516.00     22.72
 91.67    548.00     23.41
 91.77    516.99     22.74
 91.87    551.00     23.47
 91.97    585.00     24.19
 92.07    538.00     23.19
 92.17    579.00     24.06
 92.27    544.00     23.32
 92.37    597.00     24.43
 92.47    637.00     25.24
 92.57    636.00     25.22
 92.67    651.00     25.51
 92.77    695.54     26.37
 92.87    747.00     27.33
 92.97    722.81     26.89
 93.07    738.63     27.18
 93.17    709.68     26.64
 93.27    722.00     26.87
 93.37    785.00     28.02
 93.47    836.00     28.91
 93.57    866.00     29.43
 93.67    838.00     28.95
 93.77    845.00     29.07
 93.87    788.00     28.07
 93.97    881.00     29.68
 94.07    830.00     28.81
 94.17    887.32     29.79
 94.27    898.00     29.97
 94.37    834.00     28.88
 94.47    865.00     29.41
 94.57    890.72     29.84
 94.67    869.97     29.50
 94.77    940.00     30.66
 94.87    883.52     29.72
 94.97    872.23     29.53
 95.07    865.00     29.41
 95.17    915.00     30.25
 95.27    773.72     27.82
 95.37    813.00     28.51
 95.47    758.91     27.55
 95.57    773.24     27.81
 95.67    696.86     26.40
 95.77    699.00     26.44
 95.87    711.00     26.66
 95.97    670.00     25.88
 96.07    649.23     25.48
 96.17    661.27     25.72
 96.27    688.11     26.23
 96.37    770.78     27.76
 96.47    842.93     29.03
 96.57    886.15     29.77
 96.67    936.00     30.59
 96.77   1003.41     31.68
 96.87   1054.00     32.47
 96.97   1176.55     34.30
 97.07   1197.08     34.60
 97.17   1280.52     35.78
 97.27   1384.00     37.20
 97.37   1343.00     36.65
 97.47   1374.00     37.07
 97.57   1431.00     37.83
 97.67   1387.80     37.25
 97.77   1386.00     37.23
 97.87   1390.97     37.30
 97.97   1256.00     35.44
 98.07   1235.00     35.14
 98.17   1143.68     33.82
 98.27   1079.00     32.85
 98.37   1069.06     32.70
 98.47    996.00     31.56
 98.57    903.00     30.05
 98.67    816.00     28.57
 98.77    769.00     27.73
 98.87    805.00     28.37
 98.97    771.00     27.77
 99.07    836.00     28.91
 99.17    905.00     30.08
 99.27    908.00     30.13
 99.37    881.00     29.68
 99.47   1025.00     32.02
 99.57   1094.00     33.08
 99.67   1170.00     34.21
 99.77   1280.00     35.78
 99.87   1380.00     37.15
 99.97   1548.00     39.34
100.07   1541.00     39.26
100.17   1719.00     41.46
100.27   1854.00     43.06
100.37   1964.00     44.32
100.47   2065.27     45.45
100.57   2047.00     45.24
100.67   2143.00     46.29
100.77   2052.00     45.30
100.87   2008.00     44.81
100.97   2070.00     45.50
101.07   2018.00     44.92
101.17   1954.68     44.21
101.27   1837.00     42.86
101.37   1702.00     41.26
101.47   1666.00     40.82
101.57   1497.45     38.70
101.67   1448.00     38.05
101.77   1353.63     36.79
101.87   1290.00     35.92
101.97   1319.57     36.33
102.07   1235.00     35.14
102.17   1197.59     34.61
102.27   1089.00     33.00
102.37   1097.47     33.13
102.47   1125.00     33.54
102.57   1078.00     32.83
102.67   1119.00     33.45
102.77   1027.00     32.05
102.87   1027.71     32.06
102.97    945.11     30.74
103.07    877.13     29.62
103.17    904.61     30.08
103.27    870.00     29.50
103.37    849.68     29.15
103.47    752.30     27.43
103.57    725.00     26.93
103.67    731.32     27.04
103.77    648.78     25.47
103.87    623.97     24.98
103.97    655.00     25.59
104.07    582.70     24.14
104.17    630.00     25.10
104.27    580.00     24.08
104.37    568.00     23.83
104.47    576.00     24.00
104.57    561.00     23.69
104.67    516.00     22.72
104.77    552.00     23.49
104.87    545.31     23.35
104.97    561.75     23.70
105.07    521.00     22.83
105.17    560.78     23.68
105.27    548.00     23.41
105.37    578.87     24.06
105.47    558.00     23.62
105.57    556.00     23.58
105.67    537.00     23.17
105.77    564.48     23.76
105.87    556.00     23.58
105.97    557.00     23.60
106.07    566.00     23.79
106.17    545.00     23.35
106.27    619.17     24.88
106.37    563.38     23.74
106.47    610.00     24.70
106.57    586.46     24.22
106.67    562.00     23.71
106.77    651.00     25.51
106.87    650.00     25.50
106.97    686.00     26.19
107.07    615.00     24.80
107.17    684.00     26.15
107.27    683.03     26.13
107.37    663.00     25.75
107.47    743.48     27.27
107.57    714.00     26.72
107.67    692.30     26.31
107.77    686.81     26.21
107.87    690.00     26.27
107.97    671.00     25.90
108.07    628.00     25.06
108.17    703.00     26.51
108.27    691.08     26.29
108.37    697.00     26.40
108.47    686.00     26.19
108.57    672.57     25.93
108.67    718.00     26.80
108.77    676.00     26.00
108.87    650.00     25.50
108.97    722.47     26.88
109.07    719.00     26.81
109.17    695.00     26.36
109.27    713.24     26.71
109.37    622.00     24.94
109.47    641.00     25.32
109.57    652.00     25.53
109.67    632.00     25.14
109.77    656.00     25.61
109.87    641.35     25.32
109.97    625.00     25.00
110.07    605.00     24.60
110.17    616.00     24.82
110.27    571.00     23.90
110.37    584.00     24.17
110.47    553.00     23.52
110.57    548.67     23.42
110.67    532.62     23.08
110.77    531.00     23.04
110.87    530.00     23.02
110.97    556.00     23.58
111.07    509.00     22.56
111.17    558.02     23.62
111.27    493.11     22.21
111.37    528.00     22.98
111.47    567.00     23.81
111.57    515.00     22.69
111.67    545.00     23.35
111.77    587.00     24.23
111.87    514.68     22.69
111.97    548.00     23.41
112.07    549.00     23.43
112.17    587.95     24.25
112.27    536.16     23.16
112.37    550.00     23.45
112.47    575.99     24.00
112.57    609.00     24.68
112.67    603.00     24.56
112.77    622.00     24.94
112.87    609.27     24.68
112.97    647.87     25.45
113.07    698.00     26.42
113.17    661.47     25.72
113.27    735.27     27.12
113.37    792.26     28.15
113.47    804.97     28.37
113.57    824.00     28.71
113.67    860.00     29.33
113.77    897.67     29.96
113.87    962.41     31.02
113.97    993.00     31.51
114.07   1019.00     31.92
114.17   1074.08     32.77
114.27   1134.00     33.67
114.37   1211.00     34.80
114.47   1300.00     36.06
114.57   1415.00     37.62
114.67   1534.34     39.17
114.77   1734.45     41.65
114.87   1899.84     43.59
114.97   2102.00     45.85
115.07   2285.17     47.80
115.17   2583.00     50.82
115.27   2898.00     53.83
115.37   3060.00     55.32
115.47   3471.00     58.92
115.57   3713.00     60.93
115.67   4186.00     64.70
115.77   4558.65     67.52
115.87   4816.47     69.40
115.97   5215.00     72.21
116.07   5564.00     74.59
116.17   5930.00     77.01
116.27   6274.00     79.21
116.37   6629.33     81.42
116.47   6845.00     82.73
116.57   6946.32     83.34
116.67   7187.00     84.78
116.77   6933.00     83.26
116.87   6730.00     82.04
116.97   6697.00     81.84
117.07   6374.00     79.84
117.17   6144.00     78.38
117.27   5732.08     75.71
117.37   5381.03     73.36
117.47   4916.00     70.11
117.57   4558.00     67.51
117.67   4234.93     65.08
117.77   4101.00     64.04
117.87   3563.39     59.69
117.97   3243.00     56.95
118.07   2882.00     53.68
118.17   2550.11     50.50
118.27   2222.00     47.14
118.37   2020.00     44.94
118.47   1772.00     42.10
118.57   1636.78     40.46
118.67   1398.00     37.39
118.77   1255.00     35.43
118.87   1117.00     33.42
118.97   1098.00     33.14
119.07    989.00     31.45
119.17    893.00     29.88
119.27    813.43     28.52
119.37    786.00     28.04
119.47    740.00     27.20
119.57    708.00     26.61
119.67    625.00     25.00
119.77    671.11     25.91
119.87    631.00     25.12
119.97    592.68     24.34
120.07    596.00     24.41
120.17    586.15     24.21
120.27    583.42     24.15
120.37    576.87     24.02
120.47    636.00     25.22
120.57    572.00     23.92
120.67    616.98     24.84
120.77    533.00     23.09
120.87    558.11     23.62
120.97    591.06     24.31
121.07    566.00     23.79
121.17    567.00     23.81
121.27    619.39     24.89
121.37    596.00     24.41
121.47    611.52     24.73
121.57    575.00     23.98
121.67    525.00     22.91
121.77    638.07     25.26
121.87    596.00     24.41
121.97    628.00     25.06
122.07    575.00     23.98
122.17    616.00     24.82
122.27    579.99     24.08
122.37    649.00     25.48
122.47    609.75     24.69
122.57    675.20     25.98
122.67    619.00     24.88
122.77    594.57     24.38
122.87    608.50     24.67
122.97    615.88     24.82
123.07    653.00     25.55
123.17    637.00     25.24
123.27    607.30     24.64
123.37    618.00     24.86
123.47    590.00     24.29
123.57    643.63     25.37
123.67    674.27     25.97
123.77    618.00     24.86
123.87    661.00     25.71
123.97    661.00     25.71
124.07    622.99     24.96
124.17    614.00     24.78
124.27    602.00     24.54
124.37    611.00     24.72
124.47    579.30     24.07
124.57    614.00     24.78
124.67    586.53     24.22
124.77    601.00     24.52
124.87    578.00     24.04
124.97    603.00     24.56
