XYDATA



INTER 1.0 1.0 0 0
TEMP 1074.1
  9.97    571.52     23.91
 10.07    649.00     25.48
 10.17    598.00     24.45
 10.27    642.00     25.34
 10.37    617.00     24.84
 10.47    588.00     24.25
 10.57    583.00     24.15
 10.67    579.00     24.06
 10.77    593.00     24.35
 10.87    612.00     24.74
 10.97    586.00     24.21
 11.07    603.00     24.56
 11.17    540.61     23.25
 11.27    589.00     24.27
 11.37    568.00     23.83
 11.47    614.00     24.78
 11.57    588.00     24.25
 11.67    568.82     23.85
 11.77    590.00     24.29
 11.87    611.50     24.73
 11.97    676.00     26.00
 12.07    641.30     25.32
 12.17    713.00     26.70
 12.27    684.00     26.15
 12.37    659.00     25.67
 12.47    692.34     26.31
 12.57    577.00     24.02
 12.67    570.00     23.87
 12.77    568.01     23.83
 12.87    525.00     22.91
 12.97    543.00     23.30
 13.07    546.37     23.37
 13.17    574.00     23.96
 13.27    581.00     24.10
 13.37    601.15     24.52
 13.47    564.00     23.75
 13.57    606.00     24.62
 13.67    543.00     23.30
 13.77    546.00     23.37
 13.87    606.70     24.63
 13.97    540.84     23.26
 14.07    508.00     22.54
 14.17    546.00     23.37
 14.27    546.83     23.38
 14.37    555.00     23.56
 14.47    578.00     24.04
 14.57    549.00     23.43
 14.67    584.00     24.17
 14.77    540.11     23.24
 14.87    543.00     23.30
 14.97    574.28     23.96
 15.07    532.00     23.07
 15.17    553.75     23.53
 15.27    603.81     24.57
 15.37    562.00     23.71
 15.47    566.33     23.80
 15.57    556.16     23.58
 15.67    594.00     24.37
 15.77    542.60     23.29
 15.87    586.00     24.21
 15.97    594.47     24.38
 16.07    553.00     23.52
 16.17    560.00     23.66
 16.27    575.00     23.98
 16.37    549.00     23.43
 16.47    531.00     23.04
 16.57    514.00     22.67
 16.67    592.99     24.35
 16.77    562.00     23.71
 16.87    574.00     23.96
 16.97    564.00     23.75
 17.07    573.00     23.94
 17.17    535.45     23.14
 17.27    604.01     24.58
 17.37    567.00     23.81
 17.47    545.13     23.35
 17.57    551.25     23.48
 17.67    538.08     23.20
 17.77    520.65     22.82
 17.87    552.00     23.49
 17.97    568.00     23.83
 18.07    594.05     24.37
 18.17    563.00     23.73
 18.27    564.06     23.75
 18.37    558.00     23.62
 18.47    585.89     24.21
 18.57    538.00     23.19
 18.67    571.00     23.90
 18.77    580.00     24.08
 18.87    571.71     23.91
 18.97    546.00     23.37
 19.07    555.00     23.56
 19.17    588.00     24.25
 19.27    602.46     24.54
 19.37    560.00     23.66
 19.47    602.00     24.54
 19.57    560.27     23.67
 19.67    557.64     23.61
 19.77    534.00     23.11
 19.87    535.90     23.15
 19.97    531.80     23.06
 20.07    520.10     22.81
 20.17    571.00     23.90
 20.27    518.52     22.77
 20.37    590.00     24.29
 20.47    594.60     24.38
 20.57    550.00     23.45
 20.67    545.00     23.35
 20.77    517.00     22.74
 20.87    574.00     23.96
 20.97    574.00     23.96
 21.07    552.21     23.50
 21.17    534.00     23.11
 21.27    538.00     23.19
 21.37    594.00     24.37
 21.47    554.85     23.56
 21.57    586.00     24.21
 21.67    548.00     23.41
 21.77    604.00     24.58
 21.87    525.00     22.91
 21.97    536.00     23.15
 22.07    552.11     23.50
 22.17    581.00     24.10
 22.27    608.00     24.66
 22.37    526.00     22.93
 22.47    540.96     23.26
 22.57    519.00     22.78
 22.67    545.00     23.35
 22.77    552.00     23.49
 22.87    523.42     22.88
 22.97    585.00     24.19
 23.07    547.00     23.39
 23.17    573.00     23.94
 23.27    532.00     23.07
 23.37    586.04     24.21
 23.47    534.70     23.12
 23.57    517.00     22.74
 23.67    515.00     22.69
 23.77    600.00     24.49
 23.87    562.00     23.71
 23.97    506.40     22.50
 24.07    570.00     23.87
 24.17    546.00     23.37
 24.27    564.00     23.75
 24.37    519.82     22.80
 24.47    577.75     24.04
 24.57    603.00     24.56
 24.67    558.00     23.62
 24.77    655.00     25.59
 24.87    629.76     25.09
 24.97    612.00     24.74
 25.07    522.00     22.85
 25.17    531.97     23.06
 25.27    515.80     22.71
 25.37    578.00     24.04
 25.47    561.00     23.69
 25.57    555.18     23.56
 25.67    567.00     23.81
 25.77    571.00     23.90
 25.87    556.00     23.58
 25.97    525.02     22.91
 26.07    557.00     23.60
 26.17    573.00     23.94
 26.27    522.00     22.85
 26.37    520.86     22.82
 26.47    555.27     23.56
 26.57    505.36     22.48
 26.67    558.00     23.62
 26.77    555.00     23.56
 26.87    581.88     24.12
 26.97    537.00     23.17
 27.07    543.00     23.30
 27.17    539.63     23.23
 27.27    541.00     23.26
 27.37    582.59     24.14
 27.47    550.00     23.45
 27.57    564.00     23.75
 27.67    589.00     24.27
 27.77    528.33     22.99
 27.87    612.00     24.74
 27.97    691.75     26.30
 28.07    832.00     28.84
 28.17    933.00     30.55
 28.27    940.00     30.66
 28.37    932.00     30.53
 28.47    737.00     27.15
 28.57    726.51     26.95
 28.67    668.00     25.85
 28.77    759.18     27.55
 28.87    774.00     27.82
 28.97    808.95     28.44
 29.07    777.82     27.89
 29.17    670.00     25.88
 29.27    649.00     25.48
 29.37    599.00     24.47
 29.47    544.72     23.34
 29.57    573.00     23.94
 29.67    592.40     24.34
 29.77    591.00     24.31
 29.87    574.42     23.97
 29.97    635.00     25.20
 30.07    566.00     23.79
 30.17    568.00     23.83
 30.27    569.00     23.85
 30.37    568.00     23.83
 30.47    584.00     24.17
 30.57    555.00     23.56
 30.67    582.00     24.12
 30.77    608.00     24.66
 30.87    596.00     24.41
 30.97    612.00     24.74
 31.07    642.18     25.34
 31.17    572.00     23.92
 31.27    537.37     23.18
 31.37    540.90     23.26
 31.47    530.00     23.02
 31.57    542.00     23.28
 31.67    544.00     23.32
 31.77    510.59     22.60
 31.87    527.00     22.96
 31.97    490.00     22.14
 32.07    532.00     23.07
 32.17    531.41     23.05
 32.27    540.00     23.24
 32.37    510.00     22.58
 32.47    539.00     23.22
 32.57    543.00     23.30
 32.67    575.00     23.98
 32.77    574.42     23.97
 32.87    556.00     23.58
 32.97    520.00     22.80
 33.07    560.27     23.67
 33.17    549.00     23.43
 33.27    558.00     23.62
 33.37    540.00     23.24
 33.47    586.00     24.21
 33.57    634.46     25.19
 33.67    652.00     25.53
 33.77    743.70     27.27
 33.87    915.00     30.25
 33.97   1069.00     32.70
 34.07   1076.00     32.80
 34.17   1027.00     32.05
 34.27    916.00     30.27
 34.37    787.17     28.06
 34.47    666.00     25.81
 34.57    571.00     23.90
 34.67    588.00     24.25
 34.77    544.00     23.32
 34.87    537.09     23.18
 34.97    516.00     22.72
 35.07    541.00     23.26
 35.17    553.87     23.53
 35.27    503.00     22.43
 35.37    525.00     22.91
 35.47    525.14     22.92
 35.57    509.00     22.56
 35.67    532.00     23.07
 35.77    511.00     22.61
 35.87    475.53     21.81
 35.97    520.00     22.80
 36.07    526.00     22.93
 36.17    513.00     22.65
 36.27    508.59     22.55
 36.37    542.00     23.28
 36.47    534.00     23.11
 36.57    492.00     22.18
 36.67    508.00     22.54
 36.77    554.42     23.55
 36.87    480.69     21.92
 36.97    548.00     23.41
 37.07    557.04     23.60
 37.17    472.07     21.73
 37.27    474.95     21.79
 37.37    531.00     23.04
 37.47    499.88     22.36
 37.57    503.00     22.43
 37.67    530.00     23.02
 37.77    523.00     22.87
 37.87    496.00     22.27
 37.97    497.00     22.29
 38.07    463.00     21.52
 38.17    479.00     21.89
 38.27    504.71     22.47
 38.37    499.90     22.36
 38.47    473.56     21.76
 38.57    466.49     21.60
 38.67    501.00     22.38
 38.77    548.61     23.42
 38.87    519.00     22.78
 38.97    509.00     22.56
 39.07    498.81     22.33
 39.17    528.10     22.98
 39.27    464.51     21.55
 39.37    496.00     22.27
 39.47    522.00     22.85
 39.57    537.41     23.18
 39.67    493.52     22.22
 39.77    482.00     21.95
 39.87    540.55     23.25
 39.97    499.71     22.35
 40.07    503.00     22.43
 40.17    465.00     21.56
 40.27    507.00     22.52
 40.37    469.66     21.67
 40.47    489.00     22.11
 40.57    479.30     21.89
 40.67    470.00     21.68
 40.77    469.00     21.66
 40.87    492.78     22.20
 40.97    486.00     22.05
 41.07    525.96     22.93
 41.17    460.00     21.45
 41.27    473.31     21.76
 41.37    510.53     22.59
 41.47    480.46     21.92
 41.57    472.95     21.75
 41.67    512.00     22.63
 41.77    521.42     22.83
 41.87    486.00     22.05
 41.97    448.00     21.17
 42.07    485.00     22.02
 42.17    519.00     22.78
 42.27    506.86     22.51
 42.37    585.00     24.19
 42.47    613.49     24.77
 42.57    578.00     24.04
 42.67    666.59     25.82
 42.77    558.00     23.62
 42.87    635.61     25.21
 42.97    533.46     23.10
 43.07    549.70     23.45
 43.17    510.00     22.58
 43.27    484.00     22.00
 43.37    508.00     22.54
 43.47    515.00     22.69
 43.57    460.28     21.45
 43.67    485.00     22.02
 43.77    505.26     22.48
 43.87    489.00     22.11
 43.97    463.00     21.52
 44.07    533.00     23.09
 44.17    519.79     22.80
 44.27    497.00     22.29
 44.37    464.81     21.56
 44.47    503.00     22.43
 44.57    477.00     21.84
 44.67    482.00     21.95
 44.77    535.00     23.13
 44.87    515.95     22.71
 44.97    544.29     23.33
 45.07    515.00     22.69
 45.17    545.92     23.36
 45.27    486.00     22.05
 45.37    466.43     21.60
 45.47    464.20     21.55
 45.57    470.72     21.70
 45.67    470.00     21.68
 45.77    524.00     22.89
 45.87    479.00     21.89
 45.97    488.00     22.09
 46.07    497.00     22.29
 46.17    497.49     22.30
 46.27    522.71     22.86
 46.37    461.00     21.47
 46.47    541.17     23.26
 46.57    526.00     22.93
 46.67    460.64     21.46
 46.77    546.00     23.37
 46.87    469.00     21.66
 46.97    460.00     21.45
 47.07    507.97     22.54
 47.17    529.62     23.01
 47.27    499.00     22.34
 47.37    492.00     22.18
 47.47    537.00     23.17
 47.57    528.01     22.98
 47.67    525.93     22.93
 47.77    533.83     23.10
 47.87    540.74     23.25
 47.97    583.00     24.15
 48.07    535.00     23.13
 48.17    544.00     23.32
 48.27    557.00     23.60
 48.37    554.91     23.56
 48.47    559.00     23.64
 48.57    550.00     23.45
 48.67    555.00     23.56
 48.77    552.00     23.49
 48.87    541.02     23.26
 48.97    530.00     23.02
 49.07    517.00     22.74
 49.17    605.00     24.60
 49.27    600.00     24.49
 49.37    684.00     26.15
 49.47    733.00     27.07
 49.57    789.00     28.09
 49.67    928.00     30.46
 49.77   1124.03     33.53
 49.87   1449.00     38.07
 49.97   1850.43     43.02
 50.07   2272.00     47.67
 50.17   2513.36     50.13
 50.27   2502.47     50.02
 50.37   2299.96     47.96
 50.47   1890.00     43.47
 50.57   1422.00     37.71
 50.67   1117.27     33.43
 50.77    830.77     28.82
 50.87    687.00     26.21
 50.97    636.00     25.22
 51.07    611.00     24.72
 51.17    616.17     24.82
 51.27    603.93     24.57
 51.37    562.00     23.71
 51.47    525.09     22.91
 51.57    571.00     23.90
 51.67    554.00     23.54
 51.77    528.00     22.98
 51.87    521.54     22.84
 51.97    551.00     23.47
 52.07    505.47     22.48
 52.17    565.00     23.77
 52.27    549.00     23.43
 52.37    548.00     23.41
 52.47    584.29     24.17
 52.57    528.11     22.98
 52.67    583.00     24.15
 52.77    559.00     23.64
 52.87    634.40     25.19
 52.97    699.00     26.44
 53.07    814.00     28.53
 53.17    944.00     30.72
 53.27   1067.00     32.66
 53.37   1093.90     33.07
 53.47   1271.69     35.66
 53.57   1266.47     35.59
 53.67   1081.00     32.88
 53.77   1003.00     31.67
 53.87    856.00     29.26
 53.97    738.00     27.17
 54.07    707.24     26.59
 54.17    617.86     24.86
 54.27    592.00     24.33
 54.37    567.00     23.81
 54.47    538.28     23.20
 54.57    586.85     24.22
 54.67    566.08     23.79
 54.77    592.00     24.33
 54.87    565.14     23.77
 54.97    509.80     22.58
 55.07    586.00     24.21
 55.17    535.87     23.15
 55.27    518.95     22.78
 55.37    579.00     24.06
 55.47    563.28     23.73
 55.57    566.00     23.79
 55.67    578.00     24.04
 55.77    603.00     24.56
 55.87    624.36     24.99
 55.97    639.00     25.28
 56.07    725.84     26.94
 56.17    771.89     27.78
 56.27    899.00     29.98
 56.37   1074.00     32.77
 56.47   1466.00     38.29
 56.57   1728.00     41.57
 56.67   2259.45     47.53
 56.77   2445.42     49.45
 56.87   2610.00     51.09
 56.97   2662.00     51.59
 57.07   2456.00     49.56
 57.17   1977.72     44.47
 57.27   1634.00     40.42
 57.37   1280.00     35.78
 57.47   1050.90     32.42
 57.57    881.29     29.69
 57.67    786.04     28.04
 57.77    653.21     25.56
 57.87    639.30     25.28
 57.97    708.00     26.61
 58.07    687.00     26.21
 58.17    655.00     25.59
 58.27    746.16     27.32
 58.37    870.00     29.50
 58.47   1005.68     31.71
 58.57   1070.38     32.72
 58.67   1316.65     36.29
 58.77   1424.00     37.74
 58.87   1583.00     39.79
 58.97   1644.67     40.55
 59.07   1632.00     40.40
 59.17   1566.10     39.57
 59.27   1408.89     37.54
 59.37   1342.00     36.63
 59.47   1307.90     36.16
 59.57   1214.00     34.84
 59.67   1192.00     34.53
 59.77   1146.00     33.85
 59.87   1281.00     35.79
 59.97   1284.00     35.83
 60.07   1440.00     37.95
 60.17   1463.00     38.25
 60.27   1542.00     39.27
 60.37   1567.64     39.59
 60.47   1520.00     38.99
 60.57   1317.00     36.29
 60.67   1085.00     32.94
 60.77    891.00     29.85
 60.87    762.45     27.61
 60.97    669.00     25.87
 61.07    645.00     25.40
 61.17    675.77     26.00
 61.27    679.00     26.06
 61.37    653.00     25.55
 61.47    669.00     25.87
 61.57    771.00     27.77
 61.67    872.62     29.54
 61.77    936.00     30.59
 61.87   1092.00     33.05
 61.97   1195.00     34.57
 62.07   1353.00     36.78
 62.17   1443.00     37.99
 62.27   1479.86     38.47
 62.37   1337.00     36.57
 62.47   1147.00     33.87
 62.57   1076.00     32.80
 62.67    949.00     30.81
 62.77    800.64     28.30
 62.87    677.00     26.02
 62.97    621.00     24.92
 63.07    565.00     23.77
 63.17    600.00     24.49
 63.27    617.13     24.84
 63.37    584.47     24.18
 63.47    556.18     23.58
 63.57    611.00     24.72
 63.67    561.55     23.70
 63.77    593.00     24.35
 63.87    607.54     24.65
 63.97    629.00     25.08
 64.07    694.94     26.36
 64.17    759.00     27.55
 64.27    804.69     28.37
 64.37    942.84     30.71
 64.47    937.47     30.62
 64.57    969.90     31.14
 64.67   1074.70     32.78
 64.77    973.67     31.20
 64.87    930.84     30.51
 64.97    839.00     28.97
 65.07    860.77     29.34
 65.17    744.20     27.28
 65.27    778.00     27.89
 65.37    710.00     26.65
 65.47    606.23     24.62
 65.57    625.00     25.00
 65.67    571.00     23.90
 65.77    559.85     23.66
 65.87    623.00     24.96
 65.97    554.00     23.54
 66.07    582.00     24.12
 66.17    556.00     23.58
 66.27    559.00     23.64
 66.37    543.30     23.31
 66.47    537.25     23.18
 66.57    511.00     22.61
 66.67    543.00     23.30
 66.77    564.00     23.75
 66.87    582.00     24.12
 66.97    576.00     24.00
 67.07    653.00     25.55
 67.17    685.45     26.18
 67.27    711.00     26.66
 67.37    867.62     29.46
 67.47   1048.00     32.37
 67.57   1213.70     34.84
 67.67   1545.63     39.31
 67.77   1836.48     42.85
 67.87   2106.52     45.90
 67.97   2352.16     48.50
 68.07   2411.49     49.11
 68.17   2395.00     48.94
 68.27   2258.00     47.52
 68.37   2022.00     44.97
 68.47   1837.00     42.86
 68.57   1523.00     39.03
 68.67   1331.00     36.48
 68.77   1023.00     31.98
 68.87    868.18     29.46
 68.97    774.00     27.82
 69.07    711.44     26.67
 69.17    678.00     26.04
 69.27    669.00     25.87
 69.37    598.00     24.45
 69.47    595.00     24.39
 69.57    594.00     24.37
 69.67    576.00     24.00
 69.77    590.00     24.29
 69.87    565.00     23.77
 69.97    544.05     23.32
 70.07    526.02     22.94
 70.17    584.00     24.17
 70.27    549.00     23.43
 70.37    551.00     23.47
 70.47    609.50     24.69
 70.57    570.00     23.87
 70.67    563.46     23.74
 70.77    601.43     24.52
 70.87    588.00     24.25
 70.97    593.00     24.35
 71.07    679.00     26.06
 71.17    713.00     26.70
 71.27    803.00     28.34
 71.37    928.00     30.46
 71.47   1032.17     32.13
 71.57   1295.00     35.99
 71.67   1275.00     35.71
 71.77   1579.00     39.74
 71.87   1750.00     41.83
 71.97   1884.00     43.41
 72.07   1906.63     43.67
 72.17   1895.37     43.54
 72.27   1719.00     41.46
 72.37   1688.00     41.09
 72.47   1583.00     39.79
 72.57   1429.00     37.80
 72.67   1158.81     34.04
 72.77   1087.00     32.97
 72.87    992.00     31.50
 72.97    900.00     30.00
 73.07    808.00     28.43
 73.17    818.16     28.60
 73.27    733.00     27.07
 73.37    773.42     27.81
 73.47    694.54     26.35
 73.57    656.49     25.62
 73.67    590.00     24.29
 73.77    593.00     24.35
 73.87    578.00     24.04
 73.97    614.00     24.78
 74.07    561.00     23.69
 74.17    604.00     24.58
 74.27    528.27     22.98
 74.37    602.00     24.54
 74.47    656.00     25.61
 74.57    615.00     24.80
 74.67    546.46     23.38
 74.77    607.13     24.64
 74.87    594.40     24.38
 74.97    619.00     24.88
 75.07    568.00     23.83
 75.17    547.90     23.41
 75.27    560.00     23.66
 75.37    530.00     23.02
 75.47    533.28     23.09
 75.57    539.58     23.23
 75.67    590.00     24.29
 75.77    585.51     24.20
 75.87    545.85     23.36
 75.97    652.26     25.54
 76.07    662.83     25.75
 76.17    660.00     25.69
 76.27    703.00     26.51
 76.37    634.00     25.18
 76.47    697.00     26.40
 76.57    702.00     26.50
 76.67    671.00     25.90
 76.77    708.75     26.62
 76.87    664.91     25.79
 76.97    656.00     25.61
 77.07    613.42     24.77
 77.17    587.17     24.23
 77.27    578.00     24.04
 77.37    537.00     23.17
 77.47    519.45     22.79
 77.57    515.00     22.69
 77.67    511.00     22.61
 77.77    490.00     22.14
 77.87    534.00     23.11
 77.97    493.00     22.20
 78.07    507.00     22.52
 78.17    505.00     22.47
 78.27    520.00     22.80
 78.37    511.31     22.61
 78.47    512.15     22.63
 78.57    577.00     24.02
 78.67    470.00     21.68
 78.77    483.97     22.00
 78.87    539.00     23.22
 78.97    499.87     22.36
 79.07    524.00     22.89
 79.17    560.09     23.67
 79.27    492.00     22.18
 79.37    497.00     22.29
 79.47    492.00     22.18
 79.57    539.00     23.22
 79.67    570.00     23.87
 79.77    516.00     22.72
 79.87    525.82     22.93
 79.97    529.00     23.00
 80.07    550.00     23.45
 80.17    558.92     23.64
 80.27    568.00     23.83
 80.37    552.18     23.50
 80.47    614.00     24.78
 80.57    575.00     23.98
 80.67    600.46     24.50
 80.77    644.19     25.38
 80.87    697.82     26.42
 80.97    646.00     25.42
 81.07    683.00     26.13
 81.17    704.00     26.53
 81.27    771.66     27.78
 81.37    736.00     27.13
 81.47    783.00     27.98
 81.57    740.00     27.20
 81.67    763.00     27.62
 81.77    685.85     26.19
 81.87    732.00     27.06
 81.97    751.00     27.40
 82.07    638.00     25.26
 82.17    686.00     26.19
 82.27    636.00     25.22
 82.37    643.00     25.36
 82.47    582.90     24.14
 82.57    598.00     24.45
 82.67    621.49     24.93
 82.77    583.00     24.15
 82.87    558.00     23.62
 82.97    601.31     24.52
 83.07    591.27     24.32
 83.17    584.23     24.17
 83.27    554.00     23.54
 83.37    557.00     23.60
 83.47    588.53     24.26
 83.57    590.72     24.30
 83.67    606.78     24.63
 83.77    569.34     23.86
 83.87    554.00     23.54
 83.97    543.00     23.30
 84.07    562.00     23.71
 84.17    553.00     23.52
 84.27    520.00     22.80
 84.37    599.00     24.47
 84.47    530.00     23.02
 84.57    577.00     24.02
 84.67    539.00     23.22
 84.77    588.00     24.25
 84.87    543.00     23.30
 84.97    572.00     23.92
 85.07    535.75     23.15
 85.17    536.00     23.15
 85.27    534.00     23.11
 85.37    552.00     23.49
 85.47    504.00     22.45
 85.57    531.00     23.04
 85.67    541.00     23.26
 85.77    511.00     22.61
 85.87    505.00     22.47
 85.97    544.00     23.32
 86.07    565.83     23.79
 86.17    537.00     23.17
 86.27    526.52     22.95
 86.37    533.00     23.09
 86.47    578.25     24.05
 86.57    610.00     24.70
 86.67    517.00     22.74
 86.77    623.00     24.96
 86.87    558.00     23.62
 86.97    646.00     25.42
 87.07    628.14     25.06
 87.17    596.00     24.41
 87.27    631.00     25.12
 87.37    637.00     25.24
 87.47    689.00     26.25
 87.57    665.90     25.81
 87.67    665.00     25.79
 87.77    589.69     24.28
 87.87    627.00     25.04
 87.97    562.00     23.71
 88.07    555.08     23.56
 88.17    584.00     24.17
 88.27    617.00     24.84
 88.37    590.00     24.29
 88.47    584.00     24.17
 88.57    587.00     24.23
 88.67    582.00     24.12
 88.77    577.00     24.02
 88.87    620.00     24.90
 88.97    631.24     25.12
 89.07    615.00     24.80
 89.17    596.00     24.41
 89.27    640.24     25.30
 89.37    580.00     24.08
 89.47    612.00     24.74
 89.57    615.00     24.80
 89.67    613.27     24.76
 89.77    546.37     23.37
 89.87    529.00     23.00
 89.97    538.53     23.21
 90.07    594.51     24.38
 90.17    533.28     23.09
 90.27    594.83     24.39
 90.37    562.00     23.71
 90.47    540.67     23.25
 90.57    517.27     22.74
 90.67    500.82     22.38
 90.77    521.41     22.83
 90.87    489.05     22.11
 90.97    493.63     22.22
 91.07    558.49     23.63
 91.17    534.00     23.11
 91.27    494.24     22.23
 91.37    527.13     22.96
 91.47    539.00     23.22
 91.57    542.00     23.28
 91.67    565.74     23.79
 91.77    536.21     23.16
 91.87    525.00     22.91
 91.97    592.92     24.35
 92.07    564.00     23.75
 92.17    554.68     23.55
 92.27    567.42     23.82
 92.37    622.00     24.94
 92.47    627.00     25.04
 92.57    636.00     25.22
 92.67    682.00     26.12
 92.77    651.24     25.52
 92.87    761.00     27.59
 92.97    708.00     26.61
 93.07    770.00     27.75
 93.17    764.00     27.64
 93.27    797.00     28.23
 93.37    791.00     28.12
 93.47    860.00     29.33
 93.57    843.00     29.03
 93.67    785.03     28.02
 93.77    838.00     28.95
 93.87    833.00     28.86
 93.97    857.00     29.27
 94.07    854.00     29.22
 94.17    868.00     29.46
 94.27    827.56     28.77
 94.37    847.70     29.12
 94.47    902.00     30.03
 94.57    946.00     30.76
 94.67    859.78     29.32
 94.77    874.79     29.58
 94.87    830.44     28.82
 94.97    874.51     29.57
 95.07    929.00     30.48
 95.17    823.42     28.70
 95.27    864.00     29.39
 95.37    797.00     28.23
 95.47    747.00     27.33
 95.57    778.37     27.90
 95.67    775.00     27.84
 95.77    739.00     27.18
 95.87    688.49     26.24
 95.97    708.00     26.61
 96.07    662.00     25.73
 96.17    676.00     26.00
 96.27    723.00     26.89
 96.37    719.75     26.83
 96.47    831.00     28.83
 96.57    838.00     28.95
 96.67    898.00     29.97
 96.77    985.66     31.40
 96.87   1045.00     32.33
 96.97   1156.00     34.00
 97.07   1219.00     34.91
 97.17   1273.73     35.69
 97.27   1367.00     36.97
 97.37   1387.00     37.24
 97.47   1397.00     37.38
 97.57   1467.00     38.30
 97.67   1401.00     37.43
 97.77   1368.00     36.99
 97.87   1361.00     36.89
 97.97   1312.00     36.22
 98.07   1239.00     35.20
 98.17   1150.00     33.91
 98.27   1010.00     31.78
 98.37   1011.45     31.80
 98.47   1000.48     31.63
 98.57    926.00     30.43
 98.67    870.20     29.50
 98.77    806.00     28.39
 98.87    787.22     28.06
 98.97    758.04     27.53
 99.07    746.00     27.31
 99.17    852.10     29.19
 99.27    844.00     29.05
 99.37    932.00     30.53
 99.47    988.00     31.43
 99.57   1149.21     33.90
 99.67   1244.49     35.28
 99.77   1313.29     36.24
 99.87   1473.00     38.38
 99.97   1472.61     38.37
100.07   1562.48     39.53
100.17   1797.40     42.40
100.27   1841.00     42.91
100.37   2006.89     44.80
100.47   1993.44     44.65
100.57   2125.00     46.10
100.67   2082.24     45.63
100.77   2084.00     45.65
100.87   2129.00     46.14
100.97   2038.09     45.15
101.07   1915.95     43.77
101.17   1854.41     43.06
101.27   1743.62     41.76
101.37   1782.58     42.22
101.47   1616.00     40.20
101.57   1516.85     38.95
101.67   1480.00     38.47
101.77   1317.10     36.29
101.87   1276.25     35.72
101.97   1222.36     34.96
102.07   1215.00     34.86
102.17   1134.00     33.67
102.27   1094.00     33.08
102.37   1091.00     33.03
102.47   1058.00     32.53
102.57   1134.00     33.67
102.67   1078.59     32.84
102.77   1035.92     32.19
102.87   1017.00     31.89
102.97    932.00     30.53
103.07    878.00     29.63
103.17    886.00     29.77
103.27    837.31     28.94
103.37    834.00     28.88
103.47    801.00     28.30
103.57    810.00     28.46
103.67    735.55     27.12
103.77    659.00     25.67
103.87    628.10     25.06
103.97    606.00     24.62
104.07    616.00     24.82
104.17    584.00     24.17
104.27    595.00     24.39
104.37    603.97     24.58
104.47    577.00     24.02
104.57    575.00     23.98
104.67    551.02     23.47
104.77    556.00     23.58
104.87    577.12     24.02
104.97    572.47     23.93
105.07    540.55     23.25
105.17    593.00     24.35
105.27    578.80     24.06
105.37    531.00     23.04
105.47    523.00     22.87
105.57    534.06     23.11
105.67    507.00     22.52
105.77    536.00     23.15
105.87    567.70     23.83
105.97    555.00     23.56
106.07    593.00     24.35
106.17    591.00     24.31
106.27    592.00     24.33
106.37    647.56     25.45
106.47    606.00     24.62
106.57    647.00     25.44
106.67    626.00     25.02
106.77    663.74     25.76
106.87    643.00     25.36
106.97    653.00     25.55
107.07    655.00     25.59
107.17    701.00     26.48
107.27    705.00     26.55
107.37    657.00     25.63
107.47    674.00     25.96
107.57    713.00     26.70
107.67    691.00     26.29
107.77    656.12     25.61
107.87    704.06     26.53
107.97    704.00     26.53
108.07    699.00     26.44
108.17    672.46     25.93
108.27    671.00     25.90
108.37    695.00     26.36
108.47    692.52     26.32
108.57    665.65     25.80
108.67    687.00     26.21
108.77    701.00     26.48
108.87    705.00     26.55
108.97    710.76     26.66
109.07    664.00     25.77
109.17    675.00     25.98
109.27    655.68     25.61
109.37    637.55     25.25
109.47    652.00     25.53
109.57    619.00     24.88
109.67    644.00     25.38
109.77    569.93     23.87
109.87    619.00     24.88
109.97    583.10     24.15
110.07    588.61     24.26
110.17    573.69     23.95
110.27    587.00     24.23
110.37    548.00     23.41
110.47    578.54     24.05
110.57    586.85     24.22
110.67    525.00     22.91
110.77    553.00     23.52
110.87    535.18     23.13
110.97    499.62     22.35
111.07    542.00     23.28
111.17    572.22     23.92
111.27    524.34     22.90
111.37    543.00     23.30
111.47    553.00     23.52
111.57    529.00     23.00
111.67    557.77     23.62
111.77    560.00     23.66
111.87    506.00     22.49
111.97    618.00     24.86
112.07    542.00     23.28
112.17    525.00     22.91
112.27    623.32     24.97
112.37    614.96     24.80
112.47    594.00     24.37
112.57    570.26     23.88
112.67    628.00     25.06
112.77    635.00     25.20
112.87    617.00     24.84
112.97    670.00     25.88
113.07    655.12     25.60
113.17    727.00     26.96
113.27    738.00     27.17
113.37    747.76     27.35
113.47    797.00     28.23
113.57    844.44     29.06
113.67    906.00     30.10
113.77    899.00     29.98
113.87    933.00     30.55
113.97   1008.02     31.75
114.07   1042.16     32.28
114.17   1179.99     34.35
114.27   1239.80     35.21
114.37   1268.45     35.62
114.47   1316.59     36.28
114.57   1493.70     38.65
114.67   1628.00     40.35
114.77   1780.00     42.19
114.87   1956.00     44.23
114.97   2129.00     46.14
115.07   2326.49     48.23
115.17   2535.00     50.35
115.27   2868.00     53.55
115.37   3089.00     55.58
115.47   3363.14     57.99
115.57   3818.00     61.79
115.67   4120.00     64.19
115.77   4390.00     66.26
115.87   4742.00     68.86
115.97   5162.00     71.85
116.07   5638.00     75.09
116.17   6065.00     77.88
116.27   6287.00     79.29
116.37   6578.00     81.10
116.47   6879.51     82.94
116.57   6949.00     83.36
116.67   7079.04     84.14
116.77   6954.00     83.39
116.87   6719.44     81.97
116.97   6780.00     82.34
117.07   6644.00     81.51
117.17   6191.00     78.68
117.27   5658.00     75.22
117.37   5346.08     73.12
117.47   5016.00     70.82
117.57   4751.76     68.93
117.67   4243.00     65.14
117.77   3904.00     62.48
117.87   3662.00     60.51
117.97   3252.00     57.03
118.07   2828.95     53.19
118.17   2557.00     50.57
118.27   2304.00     48.00
118.37   1945.00     44.10
118.47   1783.00     42.23
118.57   1588.41     39.85
118.67   1338.00     36.58
118.77   1202.00     34.67
118.87   1148.14     33.88
118.97   1052.00     32.43
119.07    953.00     30.87
119.17    869.00     29.48
119.27    869.85     29.49
119.37    771.00     27.77
119.47    703.00     26.51
119.57    731.11     27.04
119.67    663.00     25.75
119.77    617.00     24.84
119.87    641.00     25.32
119.97    655.00     25.59
120.07    647.79     25.45
120.17    577.35     24.03
120.27    601.00     24.52
120.37    639.04     25.28
120.47    633.37     25.17
120.57    591.51     24.32
120.67    604.53     24.59
120.77    591.18     24.31
120.87    549.35     23.44
120.97    582.00     24.12
121.07    539.82     23.23
121.17    552.00     23.49
121.27    574.00     23.96
121.37    569.00     23.85
121.47    572.00     23.92
121.57    580.40     24.09
121.67    602.00     24.54
121.77    622.00     24.94
121.87    614.00     24.78
121.97    643.00     25.36
122.07    610.15     24.70
122.17    610.00     24.70
122.27    591.07     24.31
122.37    647.00     25.44
122.47    606.00     24.62
122.57    620.00     24.90
122.67    627.39     25.05
122.77    628.00     25.06
122.87    660.07     25.69
122.97    679.00     26.06
123.07    654.00     25.57
123.17    680.08     26.08
123.27    675.00     25.98
123.37    664.00     25.77
123.47    592.95     24.35
123.57    675.50     25.99
123.67    636.00     25.22
123.77    582.00     24.12
123.87    643.70     25.37
123.97    639.35     25.29
124.07    665.00     25.79
124.17    650.00     25.50
124.27    643.00     25.36
124.37    620.94     24.92
124.47    645.96     25.42
124.57    581.00     24.10
124.67    647.00     25.44
124.77    599.00     24.47
124.87    551.79     23.49
124.97    587.00     24.23
