XYDATA



INTER 1.0 1.0 0 0
TEMP 1072.796
  9.97    608.00     24.66
 10.07    545.09     23.35
 10.17    562.00     23.71
 10.27    578.00     24.04
 10.37    575.56     23.99
 10.47    587.00     24.23
 10.57    556.00     23.58
 10.67    592.00     24.33
 10.77    550.16     23.46
 10.87    591.25     24.32
 10.97    548.80     23.43
 11.07    604.53     24.59
 11.17    557.00     23.60
 11.27    587.00     24.23
 11.37    554.00     23.54
 11.47    540.00     23.24
 11.57    584.00     24.17
 11.67    631.56     25.13
 11.77    668.00     25.85
 11.87    666.00     25.81
 11.97    595.85     24.41
 12.07    712.61     26.69
 12.17    684.43     26.16
 12.27    672.00     25.92
 12.37    678.00     26.04
 12.47    623.00     24.96
 12.57    659.71     25.68
 12.67    589.00     24.27
 12.77    589.38     24.28
 12.87    561.24     23.69
 12.97    594.82     24.39
 13.07    555.00     23.56
 13.17    583.00     24.15
 13.27    607.00     24.64
 13.37    570.01     23.87
 13.47    552.00     23.49
 13.57    577.00     24.02
 13.67    569.70     23.87
 13.77    558.00     23.62
 13.87    580.32     24.09
 13.97    561.00     23.69
 14.07    538.00     23.19
 14.17    596.00     24.41
 14.27    546.53     23.38
 14.37    561.00     23.69
 14.47    550.00     23.45
 14.57    569.45     23.86
 14.67    527.23     22.96
 14.77    586.59     24.22
 14.87    547.00     23.39
 14.97    535.38     23.14
 15.07    523.00     22.87
 15.17    574.63     23.97
 15.27    544.00     23.32
 15.37    579.00     24.06
 15.47    591.92     24.33
 15.57    602.00     24.54
 15.67    556.00     23.58
 15.77    536.00     23.15
 15.87    535.54     23.14
 15.97    563.00     23.73
 16.07    548.00     23.41
 16.17    556.00     23.58
 16.27    578.31     24.05
 16.37    556.00     23.58
 16.47    560.00     23.66
 16.57    559.00     23.64
 16.67    573.00     23.94
 16.77    563.00     23.73
 16.87    563.00     23.73
 16.97    591.00     24.31
 17.07    526.00     22.93
 17.17    565.97     23.79
 17.27    562.00     23.71
 17.37    532.67     23.08
 17.47    601.13     24.52
 17.57    585.00     24.19
 17.67    587.00     24.23
 17.77    561.00     23.69
 17.87    607.00     24.64
 17.97    548.00     23.41
 18.07    564.75     23.76
 18.17    558.00     23.62
 18.27    563.00     23.73
 18.37    544.00     23.32
 18.47    529.57     23.01
 18.57    542.54     23.29
 18.67    570.00     23.87
 18.77    535.00     23.13
 18.87    527.03     22.96
 18.97    585.00     24.19
 19.07    533.00     23.09
 19.17    547.73     23.40
 19.27    584.00     24.17
 19.37    574.26     23.96
 19.47    583.00     24.15
 19.57    529.00     23.00
 19.67    553.00     23.52
 19.77    543.03     23.30
 19.87    588.00     24.25
 19.97    539.00     23.22
 20.07    541.00     23.26
 20.17    582.00     24.12
 20.27    578.00     24.04
 20.37    528.00     22.98
 20.47    578.00     24.04
 20.57    528.36     22.99
 20.67    514.71     22.69
 20.77    553.45     23.53
 20.87    519.00     22.78
 20.97    554.99     23.56
 21.07    572.38     23.92
 21.17    584.00     24.17
 21.27    531.00     23.04
 21.37    587.00     24.23
 21.47    548.00     23.41
 21.57    578.00     24.04
 21.67    555.00     23.56
 21.77    586.00     24.21
 21.87    571.00     23.90
 21.97    574.00     23.96
 22.07    514.00     22.67
 22.17    585.58     24.20
 22.27    579.43     24.07
 22.37    551.00     23.47
 22.47    568.00     23.83
 22.57    545.00     23.35
 22.67    551.00     23.47
 22.77    540.00     23.24
 22.87    592.12     24.33
 22.97    569.00     23.85
 23.07    533.39     23.10
 23.17    542.00     23.28
 23.27    587.60     24.24
 23.37    534.00     23.11
 23.47    562.74     23.72
 23.57    552.00     23.49
 23.67    543.00     23.30
 23.77    574.60     23.97
 23.87    586.00     24.21
 23.97    582.00     24.12
 24.07    560.00     23.66
 24.17    558.95     23.64
 24.27    599.00     24.47
 24.37    528.38     22.99
 24.47    594.85     24.39
 24.57    596.00     24.41
 24.67    533.00     23.09
 24.77    616.00     24.82
 24.87    609.00     24.68
 24.97    635.00     25.20
 25.07    614.07     24.78
 25.17    569.00     23.85
 25.27    561.00     23.69
 25.37    578.00     24.04
 25.47    551.00     23.47
 25.57    562.94     23.73
 25.67    543.00     23.30
 25.77    552.00     23.49
 25.87    560.00     23.66
 25.97    595.00     24.39
 26.07    577.00     24.02
 26.17    533.00     23.09
 26.27    502.00     22.41
 26.37    562.45     23.72
 26.47    513.00     22.65
 26.57    548.00     23.41
 26.67    528.00     22.98
 26.77    558.00     23.62
 26.87    557.12     23.60
 26.97    578.91     24.06
 27.07    530.00     23.02
 27.17    543.00     23.30
 27.27    567.17     23.82
 27.37    571.00     23.90
 27.47    552.00     23.49
 27.57    579.00     24.06
 27.67    590.00     24.29
 27.77    542.88     23.30
 27.87    613.13     24.76
 27.97    689.00     26.25
 28.07    787.47     28.06
 28.17    849.80     29.15
 28.27    956.00     30.92
 28.37    920.00     30.33
 28.47    772.00     27.78
 28.57    696.00     26.38
 28.67    700.02     26.46
 28.77    773.73     27.82
 28.87    829.00     28.79
 28.97    805.30     28.38
 29.07    777.00     27.87
 29.17    682.49     26.12
 29.27    633.00     25.16
 29.37    596.53     24.42
 29.47    554.58     23.55
 29.57    527.08     22.96
 29.67    582.00     24.12
 29.77    612.00     24.74
 29.87    601.00     24.52
 29.97    524.59     22.90
 30.07    551.00     23.47
 30.17    573.00     23.94
 30.27    598.00     24.45
 30.37    564.00     23.75
 30.47    581.00     24.10
 30.57    557.00     23.60
 30.67    538.65     23.21
 30.77    570.00     23.87
 30.87    586.00     24.21
 30.97    649.00     25.48
 31.07    599.48     24.48
 31.17    584.00     24.17
 31.27    575.17     23.98
 31.37    561.00     23.69
 31.47    568.97     23.85
 31.57    518.08     22.76
 31.67    558.47     23.63
 31.77    493.34     22.21
 31.87    526.00     22.93
 31.97    567.00     23.81
 32.07    488.43     22.10
 32.17    554.93     23.56
 32.27    576.00     24.00
 32.37    484.62     22.01
 32.47    556.00     23.58
 32.57    537.67     23.19
 32.67    547.00     23.39
 32.77    538.00     23.19
 32.87    538.73     23.21
 32.97    550.33     23.46
 33.07    524.00     22.89
 33.17    526.60     22.95
 33.27    530.00     23.02
 33.37    518.00     22.76
 33.47    541.00     23.26
 33.57    620.00     24.90
 33.67    653.16     25.56
 33.77    701.30     26.48
 33.87    873.33     29.55
 33.97    983.00     31.35
 34.07   1071.00     32.73
 34.17    966.00     31.08
 34.27    935.20     30.58
 34.37    757.00     27.51
 34.47    662.00     25.73
 34.57    566.00     23.79
 34.67    573.00     23.94
 34.77    543.00     23.30
 34.87    546.00     23.37
 34.97    531.00     23.04
 35.07    563.07     23.73
 35.17    483.20     21.98
 35.27    536.43     23.16
 35.37    523.00     22.87
 35.47    503.00     22.43
 35.57    478.24     21.87
 35.67    502.00     22.41
 35.77    462.00     21.49
 35.87    493.00     22.20
 35.97    520.00     22.80
 36.07    493.00     22.20
 36.17    553.55     23.53
 36.27    500.42     22.37
 36.37    490.45     22.15
 36.47    508.19     22.54
 36.57    504.00     22.45
 36.67    504.00     22.45
 36.77    501.00     22.38
 36.87    493.74     22.22
 36.97    506.00     22.49
 37.07    484.00     22.00
 37.17    544.00     23.32
 37.27    478.11     21.87
 37.37    477.48     21.85
 37.47    513.98     22.67
 37.57    541.17     23.26
 37.67    538.00     23.19
 37.77    553.00     23.52
 37.87    513.86     22.67
 37.97    549.00     23.43
 38.07    557.05     23.60
 38.17    492.00     22.18
 38.27    536.74     23.17
 38.37    527.77     22.97
 38.47    542.77     23.30
 38.57    475.00     21.79
 38.67    520.89     22.82
 38.77    473.72     21.77
 38.87    525.96     22.93
 38.97    492.00     22.18
 39.07    519.15     22.78
 39.17    508.00     22.54
 39.27    504.00     22.45
 39.37    475.00     21.79
 39.47    504.00     22.45
 39.57    485.10     22.03
 39.67    548.05     23.41
 39.77    476.00     21.82
 39.87    472.00     21.73
 39.97    494.66     22.24
 40.07    466.00     21.59
 40.17    509.00     22.56
 40.27    497.00     22.29
 40.37    488.95     22.11
 40.47    513.41     22.66
 40.57    504.00     22.45
 40.67    524.00     22.89
 40.77    533.00     23.09
 40.87    496.00     22.27
 40.97    522.00     22.85
 41.07    487.00     22.07
 41.17    512.00     22.63
 41.27    525.00     22.91
 41.37    533.00     23.09
 41.47    547.99     23.41
 41.57    541.00     23.26
 41.67    489.00     22.11
 41.77    550.02     23.45
 41.87    483.00     21.98
 41.97    507.26     22.52
 42.07    551.00     23.47
 42.17    490.00     22.14
 42.27    501.00     22.38
 42.37    584.00     24.17
 42.47    572.10     23.92
 42.57    582.00     24.12
 42.67    621.06     24.92
 42.77    579.67     24.08
 42.87    571.00     23.90
 42.97    558.00     23.62
 43.07    526.00     22.93
 43.17    551.78     23.49
 43.27    499.25     22.34
 43.37    540.00     23.24
 43.47    524.00     22.89
 43.57    486.64     22.06
 43.67    478.47     21.87
 43.77    511.04     22.61
 43.87    493.88     22.22
 43.97    493.00     22.20
 44.07    499.56     22.35
 44.17    495.00     22.25
 44.27    525.00     22.91
 44.37    469.00     21.66
 44.47    515.00     22.69
 44.57    476.00     21.82
 44.67    539.75     23.23
 44.77    477.84     21.86
 44.87    470.00     21.68
 44.97    530.50     23.03
 45.07    527.00     22.96
 45.17    485.00     22.02
 45.27    531.00     23.04
 45.37    510.00     22.58
 45.47    520.00     22.80
 45.57    530.00     23.02
 45.67    522.00     22.85
 45.77    485.00     22.02
 45.87    531.10     23.05
 45.97    483.00     21.98
 46.07    542.00     23.28
 46.17    498.00     22.32
 46.27    521.00     22.83
 46.37    527.00     22.96
 46.47    515.76     22.71
 46.57    482.00     21.95
 46.67    506.00     22.49
 46.77    461.00     21.47
 46.87    499.00     22.34
 46.97    512.00     22.63
 47.07    467.00     21.61
 47.17    473.84     21.77
 47.27    520.00     22.80
 47.37    537.00     23.17
 47.47    579.20     24.07
 47.57    551.00     23.47
 47.67    596.00     24.41
 47.77    592.00     24.33
 47.87    640.00     25.30
 47.97    559.00     23.64
 48.07    608.88     24.68
 48.17    534.00     23.11
 48.27    570.00     23.87
 48.37    566.40     23.80
 48.47    540.00     23.24
 48.57    599.00     24.47
 48.67    528.00     22.98
 48.77    521.00     22.83
 48.87    548.00     23.41
 48.97    552.87     23.51
 49.07    595.44     24.40
 49.17    562.00     23.71
 49.27    563.00     23.73
 49.37    610.00     24.70
 49.47    618.76     24.87
 49.57    743.00     27.26
 49.67    871.00     29.51
 49.77   1092.18     33.05
 49.87   1451.00     38.09
 49.97   1854.41     43.06
 50.07   2214.31     47.06
 50.17   2441.00     49.41
 50.27   2434.00     49.34
 50.37   2206.00     46.97
 50.47   1931.94     43.95
 50.57   1415.00     37.62
 50.67   1074.00     32.77
 50.77    854.00     29.22
 50.87    690.73     26.28
 50.97    701.00     26.48
 51.07    629.00     25.08
 51.17    635.00     25.20
 51.27    599.00     24.47
 51.37    596.00     24.41
 51.47    587.04     24.23
 51.57    546.00     23.37
 51.67    608.00     24.66
 51.77    558.00     23.62
 51.87    543.00     23.30
 51.97    502.00     22.41
 52.07    478.00     21.86
 52.17    543.79     23.32
 52.27    550.14     23.46
 52.37    544.00     23.32
 52.47    568.79     23.85
 52.57    579.00     24.06
 52.67    551.44     23.48
 52.77    598.67     24.47
 52.87    627.18     25.04
 52.97    753.67     27.45
 53.07    824.00     28.71
 53.17    934.00     30.56
 53.27   1088.00     32.98
 53.37   1142.00     33.79
 53.47   1212.35     34.82
 53.57   1189.00     34.48
 53.67   1154.59     33.98
 53.77   1048.40     32.38
 53.87    863.95     29.39
 53.97    777.00     27.87
 54.07    649.00     25.48
 54.17    633.00     25.16
 54.27    588.52     24.26
 54.37    559.94     23.66
 54.47    584.00     24.17
 54.57    518.87     22.78
 54.67    558.00     23.62
 54.77    575.00     23.98
 54.87    519.00     22.78
 54.97    541.00     23.26
 55.07    596.00     24.41
 55.17    506.91     22.51
 55.27    531.88     23.06
 55.37    569.00     23.85
 55.47    533.53     23.10
 55.57    603.75     24.57
 55.67    597.00     24.43
 55.77    608.00     24.66
 55.87    604.21     24.58
 55.97    650.95     25.51
 56.07    695.77     26.38
 56.17    797.80     28.25
 56.27    981.20     31.32
 56.37   1212.96     34.83
 56.47   1498.00     38.70
 56.57   1800.27     42.43
 56.67   2261.59     47.56
 56.77   2587.04     50.86
 56.87   2548.00     50.48
 56.97   2609.00     51.08
 57.07   2379.00     48.77
 57.17   1966.17     44.34
 57.27   1584.75     39.81
 57.37   1256.64     35.45
 57.47   1086.00     32.95
 57.57    826.41     28.75
 57.67    820.00     28.64
 57.77    727.02     26.96
 57.87    704.97     26.55
 57.97    646.44     25.43
 58.07    626.06     25.02
 58.17    712.00     26.68
 58.27    774.00     27.82
 58.37    827.00     28.76
 58.47    808.00     28.43
 58.57    996.00     31.56
 58.67   1132.23     33.65
 58.77   1273.47     35.69
 58.87   1279.00     35.76
 58.97   1356.00     36.82
 59.07   1494.00     38.65
 59.17   1378.00     37.12
 59.27   1391.00     37.30
 59.37   1296.00     36.00
 59.47   1113.49     33.37
 59.57   1172.92     34.25
 59.67   1168.00     34.18
 59.77   1117.23     33.43
 59.87   1248.00     35.33
 59.97   1353.00     36.78
 60.07   1499.00     38.72
 60.17   1462.68     38.25
 60.27   1541.35     39.26
 60.37   1482.00     38.50
 60.47   1432.43     37.85
 60.57   1247.00     35.31
 60.67   1040.00     32.25
 60.77    966.65     31.09
 60.87    786.18     28.04
 60.97    676.00     26.00
 61.07    634.00     25.18
 61.17    621.00     24.92
 61.27    633.00     25.16
 61.37    687.00     26.21
 61.47    732.69     27.07
 61.57    786.07     28.04
 61.67    895.00     29.92
 61.77    971.00     31.16
 61.87   1082.00     32.89
 61.97   1270.00     35.64
 62.07   1354.00     36.80
 62.17   1413.48     37.60
 62.27   1472.24     38.37
 62.37   1316.00     36.28
 62.47   1258.94     35.48
 62.57   1036.74     32.20
 62.67    933.36     30.55
 62.77    839.90     28.98
 62.87    672.00     25.92
 62.97    622.00     24.94
 63.07    596.00     24.41
 63.17    633.00     25.16
 63.27    621.00     24.92
 63.37    566.98     23.81
 63.47    590.00     24.29
 63.57    604.00     24.58
 63.67    589.00     24.27
 63.77    671.00     25.90
 63.87    632.58     25.15
 63.97    671.00     25.90
 64.07    700.12     26.46
 64.17    799.00     28.27
 64.27    851.00     29.17
 64.37    921.00     30.35
 64.47    905.00     30.08
 64.57   1029.31     32.08
 64.67    971.64     31.17
 64.77   1053.87     32.46
 64.87    976.06     31.24
 64.97    946.40     30.76
 65.07    871.00     29.51
 65.17    815.00     28.55
 65.27    747.00     27.33
 65.37    706.00     26.57
 65.47    648.00     25.46
 65.57    655.00     25.59
 65.67    619.00     24.88
 65.77    555.00     23.56
 65.87    560.00     23.66
 65.97    551.00     23.47
 66.07    534.00     23.11
 66.17    549.00     23.43
 66.27    585.00     24.19
 66.37    553.00     23.52
 66.47    605.00     24.60
 66.57    582.70     24.14
 66.67    574.00     23.96
 66.77    586.00     24.21
 66.87    641.00     25.32
 66.97    596.00     24.41
 67.07    653.00     25.55
 67.17    677.56     26.03
 67.27    763.00     27.62
 67.37    894.14     29.90
 67.47   1102.00     33.20
 67.57   1261.00     35.51
 67.67   1603.00     40.04
 67.77   1846.25     42.97
 67.87   1993.23     44.65
 67.97   2296.00     47.92
 68.07   2453.79     49.54
 68.17   2471.00     49.71
 68.27   2335.00     48.32
 68.37   2229.00     47.21
 68.47   1827.11     42.74
 68.57   1470.00     38.34
 68.67   1335.34     36.54
 68.77   1023.00     31.98
 68.87    916.90     30.28
 68.97    815.00     28.55
 69.07    711.00     26.66
 69.17    686.00     26.19
 69.27    628.00     25.06
 69.37    596.00     24.41
 69.47    591.00     24.31
 69.57    610.00     24.70
 69.67    550.61     23.47
 69.77    552.39     23.50
 69.87    560.00     23.66
 69.97    574.00     23.96
 70.07    568.00     23.83
 70.17    584.00     24.17
 70.27    551.00     23.47
 70.37    579.00     24.06
 70.47    577.00     24.02
 70.57    600.97     24.51
 70.67    620.00     24.90
 70.77    587.00     24.23
 70.87    653.00     25.55
 70.97    651.00     25.51
 71.07    684.92     26.17
 71.17    687.00     26.21
 71.27    846.00     29.09
 71.37    959.00     30.97
 71.47   1092.25     33.05
 71.57   1306.00     36.14
 71.67   1493.07     38.64
 71.77   1657.67     40.71
 71.87   1829.00     42.77
 71.97   1868.00     43.22
 72.07   1847.00     42.98
 72.17   1806.00     42.50
 72.27   1691.00     41.12
 72.37   1576.39     39.70
 72.47   1500.57     38.74
 72.57   1244.00     35.27
 72.67   1050.00     32.40
 72.77   1048.15     32.38
 72.87    857.00     29.27
 72.97    777.00     27.87
 73.07    776.00     27.86
 73.17    716.00     26.76
 73.27    651.42     25.52
 73.37    628.14     25.06
 73.47    626.00     25.02
 73.57    614.00     24.78
 73.67    578.00     24.04
 73.77    574.36     23.97
 73.87    635.00     25.20
 73.97    579.73     24.08
 74.07    648.00     25.46
 74.17    538.11     23.20
 74.27    622.28     24.95
 74.37    599.00     24.47
 74.47    587.00     24.23
 74.57    645.00     25.40
 74.67    562.70     23.72
 74.77    579.65     24.08
 74.87    651.00     25.51
 74.97    531.93     23.06
 75.07    566.00     23.79
 75.17    599.00     24.47
 75.27    567.00     23.81
 75.37    591.00     24.31
 75.47    520.62     22.82
 75.57    565.00     23.77
 75.67    569.00     23.85
 75.77    543.87     23.32
 75.87    552.11     23.50
 75.97    620.00     24.90
 76.07    660.00     25.69
 76.17    673.00     25.94
 76.27    716.38     26.77
 76.37    758.00     27.53
 76.47    724.00     26.91
 76.57    747.00     27.33
 76.67    669.00     25.87
 76.77    727.00     26.96
 76.87    688.14     26.23
 76.97    623.00     24.96
 77.07    575.00     23.98
 77.17    596.00     24.41
 77.27    564.00     23.75
 77.37    570.02     23.88
 77.47    523.00     22.87
 77.57    532.00     23.07
 77.67    556.13     23.58
 77.77    582.47     24.13
 77.87    542.00     23.28
 77.97    513.00     22.65
 78.07    522.00     22.85
 78.17    522.00     22.85
 78.27    539.01     23.22
 78.37    557.10     23.60
 78.47    517.10     22.74
 78.57    487.00     22.07
 78.67    467.00     21.61
 78.77    495.00     22.25
 78.87    549.92     23.45
 78.97    482.00     21.95
 79.07    491.00     22.16
 79.17    507.35     22.52
 79.27    535.00     23.13
 79.37    514.05     22.67
 79.47    525.27     22.92
 79.57    544.00     23.32
 79.67    529.50     23.01
 79.77    506.00     22.49
 79.87    535.00     23.13
 79.97    579.00     24.06
 80.07    536.00     23.15
 80.17    530.00     23.02
 80.27    587.60     24.24
 80.37    554.00     23.54
 80.47    548.00     23.41
 80.57    655.63     25.61
 80.67    633.00     25.16
 80.77    609.00     24.68
 80.87    668.06     25.85
 80.97    654.00     25.57
 81.07    704.00     26.53
 81.17    768.00     27.71
 81.27    772.00     27.78
 81.37    708.61     26.62
 81.47    762.00     27.60
 81.57    717.69     26.79
 81.67    786.00     28.04
 81.77    658.00     25.65
 81.87    754.94     27.48
 81.97    652.45     25.54
 82.07    638.60     25.27
 82.17    622.00     24.94
 82.27    634.00     25.18
 82.37    620.00     24.90
 82.47    607.00     24.64
 82.57    626.00     25.02
 82.67    585.00     24.19
 82.77    530.00     23.02
 82.87    579.95     24.08
 82.97    555.06     23.56
 83.07    545.00     23.35
 83.17    523.00     22.87
 83.27    568.00     23.83
 83.37    551.24     23.48
 83.47    573.00     23.94
 83.57    516.00     22.72
 83.67    544.00     23.32
 83.77    613.66     24.77
 83.87    579.13     24.07
 83.97    542.00     23.28
 84.07    567.00     23.81
 84.17    590.00     24.29
 84.27    601.57     24.53
 84.37    602.68     24.55
 84.47    522.76     22.86
 84.57    603.65     24.57
 84.67    556.74     23.60
 84.77    550.00     23.45
 84.87    549.29     23.44
 84.97    541.00     23.26
 85.07    515.00     22.69
 85.17    577.34     24.03
 85.27    563.00     23.73
 85.37    553.00     23.52
 85.47    542.69     23.30
 85.57    504.62     22.46
 85.67    534.00     23.11
 85.77    553.00     23.52
 85.87    531.00     23.04
 85.97    531.00     23.04
 86.07    571.00     23.90
 86.17    539.36     23.22
 86.27    500.01     22.36
 86.37    546.00     23.37
 86.47    597.19     24.44
 86.57    554.00     23.54
 86.67    548.04     23.41
 86.77    543.82     23.32
 86.87    575.00     23.98
 86.97    623.00     24.96
 87.07    635.00     25.20
 87.17    655.00     25.59
 87.27    665.00     25.79
 87.37    670.23     25.89
 87.47    633.80     25.18
 87.57    666.00     25.81
 87.67    594.00     24.37
 87.77    577.84     24.04
 87.87    622.00     24.94
 87.97    661.00     25.71
 88.07    586.31     24.21
 88.17    600.63     24.51
 88.27    563.36     23.74
 88.37    610.00     24.70
 88.47    623.00     24.96
 88.57    584.42     24.17
 88.67    574.00     23.96
 88.77    615.53     24.81
 88.87    609.72     24.69
 88.97    605.00     24.60
 89.07    614.00     24.78
 89.17    624.00     24.98
 89.27    621.00     24.92
 89.37    598.67     24.47
 89.47    602.00     24.54
 89.57    618.00     24.86
 89.67    592.24     24.34
 89.77    575.00     23.98
 89.87    609.00     24.68
 89.97    604.00     24.58
 90.07    547.00     23.39
 90.17    523.85     22.89
 90.27    593.65     24.37
 90.37    569.00     23.85
 90.47    523.00     22.87
 90.57    512.00     22.63
 90.67    521.00     22.83
 90.77    511.00     22.61
 90.87    532.43     23.07
 90.97    495.42     22.26
 91.07    541.00     23.26
 91.17    536.00     23.15
 91.27    540.01     23.24
 91.37    521.00     22.83
 91.47    532.00     23.07
 91.57    521.00     22.83
 91.67    549.00     23.43
 91.77    541.00     23.26
 91.87    555.00     23.56
 91.97    552.00     23.49
 92.07    611.00     24.72
 92.17    569.00     23.85
 92.27    587.00     24.23
 92.37    636.49     25.23
 92.47    587.00     24.23
 92.57    631.00     25.12
 92.67    691.00     26.29
 92.77    700.25     26.46
 92.87    720.00     26.83
 92.97    754.00     27.46
 93.07    746.00     27.31
 93.17    764.17     27.64
 93.27    799.00     28.27
 93.37    792.00     28.14
 93.47    831.00     28.83
 93.57    794.75     28.19
 93.67    812.66     28.51
 93.77    817.00     28.58
 93.87    862.00     29.36
 93.97    821.25     28.66
 94.07    852.00     29.19
 94.17    842.80     29.03
 94.27    870.00     29.50
 94.37    876.00     29.60
 94.47    898.00     29.97
 94.57    942.00     30.69
 94.67    999.00     31.61
 94.77    928.00     30.46
 94.87    909.00     30.15
 94.97    955.00     30.90
 95.07    971.00     31.16
 95.17    823.79     28.70
 95.27    815.71     28.56
 95.37    839.00     28.97
 95.47    813.00     28.51
 95.57    756.00     27.50
 95.67    716.00     26.76
 95.77    723.00     26.89
 95.87    724.00     26.91
 95.97    671.32     25.91
 96.07    694.00     26.34
 96.17    757.00     27.51
 96.27    757.54     27.52
 96.37    769.00     27.73
 96.47    811.00     28.48
 96.57    918.31     30.30
 96.67    964.00     31.05
 96.77    956.32     30.92
 96.87   1050.00     32.40
 96.97   1207.00     34.74
 97.07   1259.00     35.48
 97.17   1241.00     35.23
 97.27   1419.36     37.67
 97.37   1443.00     37.99
 97.47   1425.00     37.75
 97.57   1423.00     37.72
 97.67   1472.07     38.37
 97.77   1365.00     36.95
 97.87   1314.28     36.25
 97.97   1277.70     35.74
 98.07   1193.00     34.54
 98.17   1151.00     33.93
 98.27   1152.10     33.94
 98.37    976.17     31.24
 98.47    964.00     31.05
 98.57    896.00     29.93
 98.67    902.00     30.03
 98.77    827.00     28.76
 98.87    817.00     28.58
 98.97    746.00     27.31
 99.07    822.00     28.67
 99.17    817.00     28.58
 99.27    871.00     29.51
 99.37    926.87     30.44
 99.47   1033.00     32.14
 99.57   1159.92     34.06
 99.67   1209.00     34.77
 99.77   1249.00     35.34
 99.87   1348.33     36.72
 99.97   1572.00     39.65
100.07   1616.93     40.21
100.17   1719.00     41.46
100.27   1809.00     42.53
100.37   1917.76     43.79
100.47   1995.95     44.68
100.57   2002.81     44.75
100.67   2004.00     44.77
100.77   2091.54     45.73
100.87   2020.67     44.95
100.97   1896.00     43.54
101.07   1958.00     44.25
101.17   1824.23     42.71
101.27   1792.79     42.34
101.37   1608.59     40.11
101.47   1544.00     39.29
101.57   1442.95     37.99
101.67   1417.00     37.64
101.77   1358.00     36.85
101.87   1336.50     36.56
101.97   1306.91     36.15
102.07   1234.20     35.13
102.17   1150.00     33.91
102.27   1106.00     33.26
102.37   1170.00     34.21
102.47   1147.85     33.88
102.57   1034.00     32.16
102.67   1043.00     32.30
102.77   1085.58     32.95
102.87   1000.00     31.62
102.97    991.00     31.48
103.07    947.81     30.79
103.17    907.57     30.13
103.27    875.00     29.58
103.37    853.59     29.22
103.47    736.06     27.13
103.57    725.00     26.93
103.67    712.65     26.70
103.77    696.00     26.38
103.87    729.00     27.00
103.97    646.00     25.42
104.07    623.00     24.96
104.17    586.00     24.21
104.27    560.39     23.67
104.37    540.91     23.26
104.47    540.00     23.24
104.57    566.00     23.79
104.67    566.00     23.79
104.77    516.06     22.72
104.87    561.00     23.69
104.97    548.00     23.41
105.07    515.61     22.71
105.17    546.08     23.37
105.27    535.00     23.13
105.37    550.00     23.45
105.47    558.00     23.62
105.57    575.00     23.98
105.67    566.83     23.81
105.77    563.00     23.73
105.87    573.88     23.96
105.97    573.34     23.94
106.07    599.63     24.49
106.17    605.00     24.60
106.27    636.69     25.23
106.37    623.18     24.96
106.47    610.00     24.70
106.57    660.00     25.69
106.67    687.01     26.21
106.77    689.90     26.27
106.87    680.00     26.08
106.97    633.29     25.17
107.07    689.00     26.25
107.17    661.60     25.72
107.27    718.00     26.80
107.37    667.00     25.83
107.47    706.00     26.57
107.57    663.00     25.75
107.67    687.85     26.23
107.77    649.00     25.48
107.87    702.00     26.50
107.97    698.73     26.43
108.07    650.00     25.50
108.17    705.18     26.56
108.27    719.06     26.82
108.37    662.93     25.75
108.47    713.57     26.71
108.57    685.00     26.17
108.67    735.86     27.13
108.77    717.00     26.78
108.87    660.00     25.69
108.97    725.33     26.93
109.07    670.00     25.88
109.17    668.00     25.85
109.27    634.67     25.19
109.37    685.00     26.17
109.47    628.10     25.06
109.57    616.00     24.82
109.67    655.00     25.59
109.77    608.77     24.67
109.87    592.71     24.35
109.97    618.84     24.88
110.07    570.00     23.87
110.17    573.00     23.94
110.27    593.48     24.36
110.37    599.00     24.47
110.47    597.90     24.45
110.57    525.65     22.93
110.67    590.00     24.29
110.77    499.60     22.35
110.87    572.22     23.92
110.97    554.00     23.54
111.07    504.76     22.47
111.17    508.58     22.55
111.27    525.00     22.91
111.37    515.00     22.69
111.47    538.00     23.19
111.57    514.00     22.67
111.67    563.00     23.73
111.77    544.27     23.33
111.87    582.00     24.12
111.97    542.00     23.28
112.07    563.00     23.73
112.17    536.00     23.15
112.27    581.00     24.10
112.37    566.73     23.81
112.47    613.02     24.76
112.57    561.00     23.69
112.67    582.00     24.12
112.77    602.00     24.54
112.87    628.76     25.08
112.97    672.00     25.92
113.07    614.00     24.78
113.17    699.63     26.45
113.27    680.00     26.08
113.37    731.93     27.05
113.47    635.00     25.20
113.57    683.00     26.13
113.67    779.69     27.92
113.77    801.00     28.30
113.87    887.24     29.79
113.97    835.00     28.90
114.07    895.57     29.93
114.17    916.00     30.27
114.27   1054.19     32.47
114.37   1218.00     34.90
114.47   1254.68     35.42
114.57   1391.00     37.30
114.67   1479.00     38.46
114.77   1577.98     39.72
114.87   1804.00     42.47
114.97   2072.97     45.53
115.07   2378.00     48.76
115.17   2427.73     49.27
115.27   2915.00     53.99
115.37   3207.00     56.63
115.47   3516.00     59.30
115.57   3774.36     61.44
115.67   4057.48     63.70
115.77   4416.00     66.45
115.87   4947.60     70.34
115.97   5249.00     72.45
116.07   5496.00     74.14
116.17   5865.00     76.58
116.27   6258.06     79.11
116.37   6456.00     80.35
116.47   6550.00     80.93
116.57   6674.18     81.70
116.67   6854.27     82.79
116.77   6709.00     81.91
116.87   6784.31     82.37
116.97   6481.27     80.51
117.07   6075.00     77.94
117.17   5908.00     76.86
117.27   5520.00     74.30
117.37   5194.00     72.07
117.47   4806.00     69.33
117.57   4676.84     68.39
117.67   4245.00     65.15
117.77   3891.00     62.38
117.87   3469.06     58.90
117.97   3187.83     56.46
118.07   2931.00     54.14
118.17   2536.63     50.36
118.27   2210.00     47.01
118.37   2063.21     45.42
118.47   1784.00     42.24
118.57   1598.88     39.99
118.67   1464.00     38.26
118.77   1346.22     36.69
118.87   1124.87     33.54
118.97   1020.96     31.95
119.07    981.76     31.33
119.17    896.00     29.93
119.27    842.49     29.03
119.37    826.00     28.74
119.47    704.00     26.53
119.57    743.00     27.26
119.67    702.00     26.50
119.77    647.00     25.44
119.87    610.96     24.72
119.97    674.00     25.96
120.07    634.00     25.18
120.17    558.00     23.62
120.27    575.62     23.99
120.37    597.00     24.43
120.47    573.88     23.96
120.57    619.00     24.88
120.67    567.00     23.81
120.77    567.66     23.83
120.87    579.00     24.06
120.97    619.13     24.88
121.07    537.00     23.17
121.17    606.00     24.62
121.27    567.00     23.81
121.37    570.52     23.89
121.47    555.00     23.56
121.57    587.00     24.23
121.67    623.00     24.96
121.77    615.00     24.80
121.87    603.00     24.56
121.97    641.01     25.32
122.07    571.87     23.91
122.17    591.78     24.33
122.27    631.00     25.12
122.37    661.19     25.71
122.47    665.00     25.79
122.57    663.00     25.75
122.67    642.00     25.34
122.77    690.00     26.27
122.87    639.00     25.28
122.97    618.70     24.87
123.07    625.55     25.01
123.17    648.00     25.46
123.27    616.00     24.82
123.37    647.00     25.44
123.47    597.17     24.44
123.57    601.69     24.53
123.67    613.07     24.76
123.77    613.00     24.76
123.87    630.00     25.10
123.97    638.00     25.26
124.07    662.00     25.73
124.17    627.00     25.04
124.27    622.00     24.94
124.37    646.00     25.42
124.47    574.00     23.96
124.57    564.72     23.76
124.67    611.86     24.74
124.77    617.32     24.85
124.87    557.99     23.62
124.97    597.00     24.43
