XYDATA



INTER 1.0 1.0 0 0
TEMP 1074.0
  9.97    604.48     24.59
 10.07    599.00     24.47
 10.17    593.00     24.35
 10.27    568.84     23.85
 10.37    579.00     24.06
 10.47    632.00     25.14
 10.57    596.00     24.41
 10.67    593.15     24.35
 10.77    614.39     24.79
 10.87    586.00     24.21
 10.97    601.00     24.52
 11.07    582.00     24.12
 11.17    574.00     23.96
 11.27    568.00     23.83
 11.37    589.00     24.27
 11.47    600.00     24.49
 11.57    560.00     23.66
 11.67    607.80     24.65
 11.77    654.00     25.57
 11.87    634.00     25.18
 11.97    685.00     26.17
 12.07    664.00     25.77
 12.17    721.98     26.87
 12.27    646.00     25.42
 12.37    690.00     26.27
 12.47    661.75     25.72
 12.57    629.00     25.08
 12.67    588.74     24.26
 12.77    595.00     24.39
 12.87    591.00     24.31
 12.97    601.00     24.52
 13.07    552.87     23.51
 13.17    616.88     24.84
 13.27    565.00     23.77
 13.37    570.00     23.87
 13.47    565.00     23.77
 13.57    535.31     23.14
 13.67    577.00     24.02
 13.77    573.00     23.94
 13.87    578.00     24.04
 13.97    553.00     23.52
 14.07    582.00     24.12
 14.17    593.00     24.35
 14.27    559.00     23.64
 14.37    562.00     23.71
 14.47    557.00     23.60
 14.57    535.00     23.13
 14.67    574.00     23.96
 14.77    614.71     24.79
 14.87    567.00     23.81
 14.97    546.00     23.37
 15.07    532.00     23.07
 15.17    560.00     23.66
 15.27    544.20     23.33
 15.37    572.44     23.93
 15.47    547.00     23.39
 15.57    553.00     23.52
 15.67    560.00     23.66
 15.77    594.95     24.39
 15.87    535.00     23.13
 15.97    578.00     24.04
 16.07    532.00     23.07
 16.17    551.00     23.47
 16.27    576.00     24.00
 16.37    595.00     24.39
 16.47    550.00     23.45
 16.57    583.61     24.16
 16.67    533.00     23.09
 16.77    510.00     22.58
 16.87    504.00     22.45
 16.97    575.00     23.98
 17.07    591.00     24.31
 17.17    581.00     24.10
 17.27    522.67     22.86
 17.37    546.00     23.37
 17.47    572.84     23.93
 17.57    562.00     23.71
 17.67    581.32     24.11
 17.77    549.00     23.43
 17.87    552.00     23.49
 17.97    592.65     24.34
 18.07    551.00     23.47
 18.17    572.07     23.92
 18.27    541.00     23.26
 18.37    558.00     23.62
 18.47    528.00     22.98
 18.57    538.00     23.19
 18.67    563.00     23.73
 18.77    555.00     23.56
 18.87    525.00     22.91
 18.97    562.00     23.71
 19.07    559.00     23.64
 19.17    593.00     24.35
 19.27    545.00     23.35
 19.37    565.54     23.78
 19.47    589.02     24.27
 19.57    573.00     23.94
 19.67    579.00     24.06
 19.77    591.00     24.31
 19.87    541.00     23.26
 19.97    559.00     23.64
 20.07    514.51     22.68
 20.17    566.00     23.79
 20.27    600.00     24.49
 20.37    612.00     24.74
 20.47    563.00     23.73
 20.57    545.00     23.35
 20.67    578.97     24.06
 20.77    560.45     23.67
 20.87    566.65     23.80
 20.97    531.00     23.04
 21.07    563.00     23.73
 21.17    564.11     23.75
 21.27    585.91     24.21
 21.37    543.17     23.31
 21.47    567.00     23.81
 21.57    536.88     23.17
 21.67    591.58     24.32
 21.77    557.43     23.61
 21.87    536.00     23.15
 21.97    527.00     22.96
 22.07    561.61     23.70
 22.17    535.00     23.13
 22.27    592.61     24.34
 22.37    553.00     23.52
 22.47    543.00     23.30
 22.57    563.58     23.74
 22.67    531.00     23.04
 22.77    513.00     22.65
 22.87    536.71     23.17
 22.97    506.00     22.49
 23.07    545.00     23.35
 23.17    594.25     24.38
 23.27    542.00     23.28
 23.37    545.00     23.35
 23.47    592.86     24.35
 23.57    504.00     22.45
 23.67    521.00     22.83
 23.77    560.00     23.66
 23.87    580.19     24.09
 23.97    572.00     23.92
 24.07    539.94     23.24
 24.17    529.19     23.00
 24.27    515.64     22.71
 24.37    589.00     24.27
 24.47    606.60     24.63
 24.57    636.79     25.23
 24.67    600.93     24.51
 24.77    655.31     25.60
 24.87    666.00     25.81
 24.97    559.67     23.66
 25.07    567.00     23.81
 25.17    572.00     23.92
 25.27    581.30     24.11
 25.37    585.19     24.19
 25.47    574.00     23.96
 25.57    570.00     23.87
 25.67    563.00     23.73
 25.77    513.40     22.66
 25.87    580.00     24.08
 25.97    547.00     23.39
 26.07    559.74     23.66
 26.17    534.97     23.13
 26.27    559.00     23.64
 26.37    574.00     23.96
 26.47    519.57     22.79
 26.57    518.00     22.76
 26.67    542.00     23.28
 26.77    548.00     23.41
 26.87    513.00     22.65
 26.97    570.00     23.87
 27.07    557.00     23.60
 27.17    518.00     22.76
 27.27    598.00     24.45
 27.37    573.00     23.94
 27.47    589.00     24.27
 27.57    580.07     24.08
 27.67    552.00     23.49
 27.77    571.00     23.90
 27.87    598.00     24.45
 27.97    660.00     25.69
 28.07    787.00     28.05
 28.17    909.00     30.15
 28.27    880.00     29.66
 28.37    964.00     31.05
 28.47    756.00     27.50
 28.57    684.00     26.15
 28.67    671.00     25.90
 28.77    709.44     26.64
 28.87    780.43     27.94
 28.97    805.00     28.37
 29.07    775.00     27.84
 29.17    712.48     26.69
 29.27    641.00     25.32
 29.37    603.77     24.57
 29.47    587.16     24.23
 29.57    631.00     25.12
 29.67    627.00     25.04
 29.77    574.00     23.96
 29.87    610.00     24.70
 29.97    576.00     24.00
 30.07    536.00     23.15
 30.17    561.25     23.69
 30.27    550.73     23.47
 30.37    510.13     22.59
 30.47    561.00     23.69
 30.57    558.00     23.62
 30.67    569.41     23.86
 30.77    618.00     24.86
 30.87    580.56     24.09
 30.97    591.53     24.32
 31.07    618.00     24.86
 31.17    604.00     24.58
 31.27    576.00     24.00
 31.37    539.00     23.22
 31.47    579.67     24.08
 31.57    529.67     23.01
 31.67    561.00     23.69
 31.77    569.66     23.87
 31.87    555.30     23.56
 31.97    543.00     23.30
 32.07    494.75     22.24
 32.17    491.51     22.17
 32.27    539.63     23.23
 32.37    542.18     23.28
 32.47    569.00     23.85
 32.57    546.35     23.37
 32.67    523.00     22.87
 32.77    545.00     23.35
 32.87    520.00     22.80
 32.97    553.00     23.52
 33.07    522.00     22.85
 33.17    493.84     22.22
 33.27    515.72     22.71
 33.37    566.00     23.79
 33.47    607.53     24.65
 33.57    609.00     24.68
 33.67    624.00     24.98
 33.77    777.00     27.87
 33.87    834.00     28.88
 33.97    933.78     30.56
 34.07   1024.00     32.00
 34.17    972.00     31.18
 34.27    860.26     29.33
 34.37    719.46     26.82
 34.47    627.00     25.04
 34.57    583.00     24.15
 34.67    574.41     23.97
 34.77    538.54     23.21
 34.87    536.00     23.15
 34.97    502.04     22.41
 35.07    475.00     21.79
 35.17    475.09     21.80
 35.27    494.00     22.23
 35.37    521.76     22.84
 35.47    535.00     23.13
 35.57    473.00     21.75
 35.67    480.03     21.91
 35.77    528.00     22.98
 35.87    539.38     23.22
 35.97    508.00     22.54
 36.07    552.74     23.51
 36.17    547.00     23.39
 36.27    479.00     21.89
 36.37    477.62     21.85
 36.47    514.70     22.69
 36.57    518.02     22.76
 36.67    482.00     21.95
 36.77    537.92     23.19
 36.87    532.00     23.07
 36.97    512.00     22.63
 37.07    499.00     22.34
 37.17    528.25     22.98
 37.27    521.76     22.84
 37.37    547.00     23.39
 37.47    544.24     23.33
 37.57    515.00     22.69
 37.67    508.29     22.55
 37.77    542.00     23.28
 37.87    483.95     22.00
 37.97    508.52     22.55
 38.07    496.00     22.27
 38.17    507.92     22.54
 38.27    506.00     22.49
 38.37    513.00     22.65
 38.47    562.00     23.71
 38.57    507.00     22.52
 38.67    508.00     22.54
 38.77    540.60     23.25
 38.87    491.00     22.16
 38.97    464.00     21.54
 39.07    494.00     22.23
 39.17    516.00     22.72
 39.27    487.26     22.07
 39.37    467.00     21.61
 39.47    534.00     23.11
 39.57    491.00     22.16
 39.67    476.03     21.82
 39.77    527.74     22.97
 39.87    490.41     22.15
 39.97    507.26     22.52
 40.07    450.00     21.21
 40.17    485.00     22.02
 40.27    502.00     22.41
 40.37    524.00     22.89
 40.47    486.70     22.06
 40.57    516.98     22.74
 40.67    496.00     22.27
 40.77    505.00     22.47
 40.87    515.61     22.71
 40.97    478.22     21.87
 41.07    492.00     22.18
 41.17    537.00     23.17
 41.27    540.62     23.25
 41.37    490.00     22.14
 41.47    495.00     22.25
 41.57    477.37     21.85
 41.67    462.91     21.52
 41.77    468.40     21.64
 41.87    520.28     22.81
 41.97    552.64     23.51
 42.07    505.84     22.49
 42.17    567.22     23.82
 42.27    557.00     23.60
 42.37    548.00     23.41
 42.47    569.00     23.85
 42.57    582.71     24.14
 42.67    633.60     25.17
 42.77    629.09     25.08
 42.87    553.00     23.52
 42.97    611.21     24.72
 43.07    592.27     24.34
 43.17    507.00     22.52
 43.27    515.00     22.69
 43.37    520.00     22.80
 43.47    492.00     22.18
 43.57    502.00     22.41
 43.67    488.00     22.09
 43.77    500.03     22.36
 43.87    482.00     21.95
 43.97    478.48     21.87
 44.07    501.62     22.40
 44.17    494.00     22.23
 44.27    479.00     21.89
 44.37    472.00     21.73
 44.47    537.90     23.19
 44.57    489.00     22.11
 44.67    498.00     22.32
 44.77    447.00     21.14
 44.87    505.87     22.49
 44.97    518.00     22.76
 45.07    498.66     22.33
 45.17    542.41     23.29
 45.27    508.00     22.54
 45.37    508.00     22.54
 45.47    521.05     22.83
 45.57    526.00     22.93
 45.67    543.44     23.31
 45.77    478.86     21.88
 45.87    514.21     22.68
 45.97    498.00     22.32
 46.07    499.00     22.34
 46.17    527.00     22.96
 46.27    533.00     23.09
 46.37    470.00     21.68
 46.47    518.00     22.76
 46.57    491.00     22.16
 46.67    501.00     22.38
 46.77    543.00     23.30
 46.87    528.00     22.98
 46.97    553.00     23.52
 47.07    539.23     23.22
 47.17    533.04     23.09
 47.27    537.00     23.17
 47.37    498.00     22.32
 47.47    510.00     22.58
 47.57    580.53     24.09
 47.67    602.00     24.54
 47.77    543.00     23.30
 47.87    640.00     25.30
 47.97    591.58     24.32
 48.07    584.00     24.17
 48.17    531.15     23.05
 48.27    524.20     22.90
 48.37    525.21     22.92
 48.47    496.02     22.27
 48.57    558.00     23.62
 48.67    504.00     22.45
 48.77    533.00     23.09
 48.87    523.00     22.87
 48.97    602.38     24.54
 49.07    587.21     24.23
 49.17    544.49     23.33
 49.27    664.21     25.77
 49.37    676.00     26.00
 49.47    708.97     26.63
 49.57    777.90     27.89
 49.67    925.00     30.41
 49.77   1127.00     33.57
 49.87   1412.15     37.58
 49.97   1778.99     42.18
 50.07   2283.00     47.78
 50.17   2503.00     50.03
 50.27   2521.00     50.21
 50.37   2281.00     47.76
 50.47   1846.00     42.97
 50.57   1495.51     38.67
 50.67   1175.50     34.29
 50.77    809.00     28.44
 50.87    689.17     26.25
 50.97    664.00     25.77
 51.07    649.00     25.48
 51.17    626.00     25.02
 51.27    621.00     24.92
 51.37    629.74     25.09
 51.47    587.00     24.23
 51.57    572.00     23.92
 51.67    502.77     22.42
 51.77    546.00     23.37
 51.87    602.00     24.54
 51.97    555.00     23.56
 52.07    571.92     23.91
 52.17    497.02     22.29
 52.27    557.00     23.60
 52.37    544.00     23.32
 52.47    564.00     23.75
 52.57    580.00     24.08
 52.67    605.05     24.60
 52.77    616.00     24.82
 52.87    681.00     26.10
 52.97    657.00     25.63
 53.07    800.00     28.28
 53.17    932.00     30.53
 53.27    993.00     31.51
 53.37   1104.00     33.23
 53.47   1109.00     33.30
 53.57   1151.00     33.93
 53.67   1033.00     32.14
 53.77    961.48     31.01
 53.87    881.55     29.69
 53.97    805.05     28.37
 54.07    659.00     25.67
 54.17    642.00     25.34
 54.27    558.00     23.62
 54.37    595.00     24.39
 54.47    561.00     23.69
 54.57    586.00     24.21
 54.67    497.64     22.31
 54.77    582.44     24.13
 54.87    562.00     23.71
 54.97    547.00     23.39
 55.07    577.00     24.02
 55.17    547.95     23.41
 55.27    544.00     23.32
 55.37    560.00     23.66
 55.47    566.00     23.79
 55.57    508.00     22.54
 55.67    616.00     24.82
 55.77    563.00     23.73
 55.87    615.00     24.80
 55.97    648.00     25.46
 56.07    662.00     25.73
 56.17    736.00     27.13
 56.27    923.00     30.38
 56.37   1143.66     33.82
 56.47   1390.00     37.28
 56.57   1721.00     41.48
 56.67   2251.23     47.45
 56.77   2468.00     49.68
 56.87   2603.00     51.02
 56.97   2603.00     51.02
 57.07   2410.02     49.09
 57.17   2079.28     45.60
 57.27   1657.99     40.72
 57.37   1272.00     35.67
 57.47   1059.00     32.54
 57.57    881.00     29.68
 57.67    711.00     26.66
 57.77    745.78     27.31
 57.87    661.00     25.71
 57.97    668.52     25.86
 58.07    670.00     25.88
 58.17    737.00     27.15
 58.27    818.00     28.60
 58.37    882.00     29.70
 58.47    946.76     30.77
 58.57   1122.42     33.50
 58.67   1298.00     36.03
 58.77   1331.58     36.49
 58.87   1507.03     38.82
 58.97   1564.00     39.55
 59.07   1561.00     39.51
 59.17   1558.13     39.47
 59.27   1524.00     39.04
 59.37   1330.00     36.47
 59.47   1294.00     35.97
 59.57   1172.00     34.23
 59.67   1163.00     34.10
 59.77   1099.00     33.15
 59.87   1175.00     34.28
 59.97   1316.42     36.28
 60.07   1413.00     37.59
 60.17   1505.08     38.80
 60.27   1586.00     39.82
 60.37   1545.38     39.31
 60.47   1420.00     37.68
 60.57   1299.00     36.04
 60.67   1120.00     33.47
 60.77    939.38     30.65
 60.87    805.00     28.37
 60.97    753.72     27.45
 61.07    632.80     25.16
 61.17    653.21     25.56
 61.27    683.04     26.14
 61.37    681.79     26.11
 61.47    682.00     26.12
 61.57    751.58     27.41
 61.67    869.86     29.49
 61.77    960.28     30.99
 61.87   1109.76     33.31
 61.97   1292.00     35.94
 62.07   1343.00     36.65
 62.17   1405.65     37.49
 62.27   1346.84     36.70
 62.37   1299.00     36.04
 62.47   1251.68     35.38
 62.57   1040.00     32.25
 62.67    878.00     29.63
 62.77    839.64     28.98
 62.87    681.00     26.10
 62.97    630.75     25.11
 63.07    612.96     24.76
 63.17    593.00     24.35
 63.27    517.00     22.74
 63.37    620.00     24.90
 63.47    576.00     24.00
 63.57    601.00     24.52
 63.67    576.00     24.00
 63.77    582.00     24.12
 63.87    651.00     25.51
 63.97    697.00     26.40
 64.07    671.00     25.90
 64.17    811.83     28.49
 64.27    773.00     27.80
 64.37    892.00     29.87
 64.47    976.07     31.24
 64.57   1018.00     31.91
 64.67   1024.00     32.00
 64.77   1008.00     31.75
 64.87    910.38     30.17
 64.97    918.72     30.31
 65.07    811.00     28.48
 65.17    787.43     28.06
 65.27    757.00     27.51
 65.37    713.00     26.70
 65.47    655.00     25.59
 65.57    579.98     24.08
 65.67    572.00     23.92
 65.77    587.00     24.23
 65.87    578.87     24.06
 65.97    565.00     23.77
 66.07    543.00     23.30
 66.17    549.22     23.44
 66.27    536.28     23.16
 66.37    562.00     23.71
 66.47    563.00     23.73
 66.57    568.00     23.83
 66.67    581.00     24.10
 66.77    581.00     24.10
 66.87    588.00     24.25
 66.97    597.00     24.43
 67.07    677.00     26.02
 67.17    647.83     25.45
 67.27    724.00     26.91
 67.37    911.00     30.18
 67.47    994.00     31.53
 67.57   1361.00     36.89
 67.67   1521.00     39.00
 67.77   1871.02     43.26
 67.87   2021.00     44.96
 67.97   2289.00     47.84
 68.07   2422.00     49.21
 68.17   2306.88     48.03
 68.27   2163.00     46.51
 68.37   2105.00     45.88
 68.47   1879.00     43.35
 68.57   1511.00     38.87
 68.67   1305.00     36.12
 68.77   1021.00     31.95
 68.87    887.00     29.78
 68.97    772.00     27.78
 69.07    724.00     26.91
 69.17    646.00     25.42
 69.27    625.73     25.01
 69.37    583.00     24.15
 69.47    592.00     24.33
 69.57    630.00     25.10
 69.67    562.00     23.71
 69.77    542.00     23.28
 69.87    600.00     24.49
 69.97    584.00     24.17
 70.07    575.00     23.98
 70.17    546.00     23.37
 70.27    543.00     23.30
 70.37    565.00     23.77
 70.47    578.26     24.05
 70.57    557.00     23.60
 70.67    581.00     24.10
 70.77    588.00     24.25
 70.87    603.00     24.56
 70.97    589.00     24.27
 71.07    627.93     25.06
 71.17    736.00     27.13
 71.27    838.14     28.95
 71.37    880.00     29.66
 71.47   1040.00     32.25
 71.57   1274.00     35.69
 71.67   1410.00     37.55
 71.77   1631.00     40.39
 71.87   1799.00     42.41
 71.97   1890.00     43.47
 72.07   1946.00     44.11
 72.17   1850.00     43.01
 72.27   1835.00     42.84
 72.37   1667.02     40.83
 72.47   1540.91     39.25
 72.57   1419.00     37.67
 72.67   1172.00     34.23
 72.77   1010.00     31.78
 72.87   1064.09     32.62
 72.97    876.00     29.60
 73.07    858.08     29.29
 73.17    744.00     27.28
 73.27    705.00     26.55
 73.37    661.00     25.71
 73.47    607.00     24.64
 73.57    591.00     24.31
 73.67    628.00     25.06
 73.77    586.35     24.21
 73.87    566.00     23.79
 73.97    629.00     25.08
 74.07    592.00     24.33
 74.17    589.00     24.27
 74.27    606.00     24.62
 74.37    635.00     25.20
 74.47    592.96     24.35
 74.57    575.77     24.00
 74.67    646.00     25.42
 74.77    643.00     25.36
 74.87    602.91     24.55
 74.97    512.05     22.63
 75.07    563.00     23.73
 75.17    546.06     23.37
 75.27    556.00     23.58
 75.37    576.28     24.01
 75.47    533.00     23.09
 75.57    576.77     24.02
 75.67    559.27     23.65
 75.77    569.00     23.85
 75.87    562.24     23.71
 75.97    637.49     25.25
 76.07    618.00     24.86
 76.17    612.00     24.74
 76.27    676.00     26.00
 76.37    697.00     26.40
 76.47    689.00     26.25
 76.57    696.83     26.40
 76.67    707.00     26.59
 76.77    711.32     26.67
 76.87    691.39     26.29
 76.97    681.10     26.10
 77.07    607.00     24.64
 77.17    596.00     24.41
 77.27    566.00     23.79
 77.37    555.00     23.56
 77.47    545.00     23.35
 77.57    515.55     22.71
 77.67    508.00     22.54
 77.77    569.95     23.87
 77.87    517.00     22.74
 77.97    505.99     22.49
 78.07    530.00     23.02
 78.17    520.00     22.80
 78.27    494.23     22.23
 78.37    502.00     22.41
 78.47    530.17     23.03
 78.57    545.00     23.35
 78.67    577.08     24.02
 78.77    534.00     23.11
 78.87    528.83     23.00
 78.97    555.63     23.57
 79.07    521.00     22.83
 79.17    488.00     22.09
 79.27    497.00     22.29
 79.37    535.57     23.14
 79.47    534.11     23.11
 79.57    577.55     24.03
 79.67    507.40     22.53
 79.77    524.00     22.89
 79.87    560.42     23.67
 79.97    535.00     23.13
 80.07    534.00     23.11
 80.17    566.00     23.79
 80.27    555.58     23.57
 80.37    597.00     24.43
 80.47    582.00     24.12
 80.57    583.46     24.15
 80.67    614.00     24.78
 80.77    639.92     25.30
 80.87    647.94     25.45
 80.97    683.00     26.13
 81.07    712.00     26.68
 81.17    744.00     27.28
 81.27    774.00     27.82
 81.37    803.36     28.34
 81.47    680.00     26.08
 81.57    762.00     27.60
 81.67    756.00     27.50
 81.77    716.28     26.76
 81.87    749.00     27.37
 81.97    727.00     26.96
 82.07    720.86     26.85
 82.17    697.00     26.40
 82.27    620.65     24.91
 82.37    635.00     25.20
 82.47    649.75     25.49
 82.57    587.00     24.23
 82.67    630.68     25.11
 82.77    553.31     23.52
 82.87    577.00     24.02
 82.97    561.18     23.69
 83.07    539.76     23.23
 83.17    525.57     22.93
 83.27    531.00     23.04
 83.37    524.33     22.90
 83.47    571.00     23.90
 83.57    571.00     23.90
 83.67    580.07     24.08
 83.77    530.47     23.03
 83.87    562.00     23.71
 83.97    555.00     23.56
 84.07    565.00     23.77
 84.17    587.00     24.23
 84.27    544.00     23.32
 84.37    602.00     24.54
 84.47    577.85     24.04
 84.57    500.00     22.36
 84.67    510.40     22.59
 84.77    561.58     23.70
 84.87    547.00     23.39
 84.97    522.00     22.85
 85.07    522.10     22.85
 85.17    523.00     22.87
 85.27    532.00     23.07
 85.37    518.00     22.76
 85.47    523.00     22.87
 85.57    510.00     22.58
 85.67    529.00     23.00
 85.77    528.00     22.98
 85.87    516.20     22.72
 85.97    552.00     23.49
 86.07    528.67     22.99
 86.17    499.00     22.34
 86.27    516.62     22.73
 86.37    548.00     23.41
 86.47    569.00     23.85
 86.57    581.00     24.10
 86.67    565.00     23.77
 86.77    594.00     24.37
 86.87    568.25     23.84
 86.97    579.00     24.06
 87.07    627.00     25.04
 87.17    579.00     24.06
 87.27    616.81     24.84
 87.37    683.00     26.13
 87.47    674.00     25.96
 87.57    606.00     24.62
 87.67    682.00     26.12
 87.77    625.18     25.00
 87.87    572.70     23.93
 87.97    622.00     24.94
 88.07    592.00     24.33
 88.17    606.00     24.62
 88.27    578.00     24.04
 88.37    600.00     24.49
 88.47    562.58     23.72
 88.57    595.95     24.41
 88.67    518.00     22.76
 88.77    605.00     24.60
 88.87    579.28     24.07
 88.97    597.60     24.45
 89.07    632.61     25.15
 89.17    552.51     23.51
 89.27    604.00     24.58
 89.37    597.69     24.45
 89.47    649.00     25.48
 89.57    557.20     23.61
 89.67    544.00     23.32
 89.77    561.00     23.69
 89.87    572.00     23.92
 89.97    596.00     24.41
 90.07    527.00     22.96
 90.17    586.66     24.22
 90.27    512.00     22.63
 90.37    526.00     22.93
 90.47    532.07     23.07
 90.57    510.00     22.58
 90.67    540.14     23.24
 90.77    522.00     22.85
 90.87    527.00     22.96
 90.97    526.00     22.93
 91.07    540.38     23.25
 91.17    477.00     21.84
 91.27    570.00     23.87
 91.37    528.00     22.98
 91.47    559.00     23.64
 91.57    498.91     22.34
 91.67    553.00     23.52
 91.77    550.53     23.46
 91.87    532.00     23.07
 91.97    561.00     23.69
 92.07    533.00     23.09
 92.17    577.00     24.02
 92.27    569.00     23.85
 92.37    621.00     24.92
 92.47    569.00     23.85
 92.57    627.24     25.04
 92.67    709.78     26.64
 92.77    665.00     25.79
 92.87    730.00     27.02
 92.97    694.00     26.34
 93.07    767.00     27.69
 93.17    751.69     27.42
 93.27    866.00     29.43
 93.37    807.00     28.41
 93.47    796.03     28.21
 93.57    858.93     29.31
 93.67    820.00     28.64
 93.77    860.00     29.33
 93.87    852.42     29.20
 93.97    807.00     28.41
 94.07    862.00     29.36
 94.17    934.00     30.56
 94.27    870.00     29.50
 94.37    864.74     29.41
 94.47    903.00     30.05
 94.57    838.00     28.95
 94.67    848.13     29.12
 94.77    906.00     30.10
 94.87    849.58     29.15
 94.97    902.57     30.04
 95.07    836.47     28.92
 95.17    867.00     29.44
 95.27    845.00     29.07
 95.37    766.90     27.69
 95.47    710.77     26.66
 95.57    743.00     27.26
 95.67    751.41     27.41
 95.77    678.42     26.05
 95.87    712.34     26.69
 95.97    701.98     26.49
 96.07    663.00     25.75
 96.17    690.04     26.27
 96.27    740.92     27.22
 96.37    762.00     27.60
 96.47    783.47     27.99
 96.57    790.00     28.11
 96.67    957.00     30.94
 96.77    945.00     30.74
 96.87    982.00     31.34
 96.97   1199.24     34.63
 97.07   1151.76     33.94
 97.17   1278.00     35.75
 97.27   1406.33     37.50
 97.37   1408.00     37.52
 97.47   1442.00     37.97
 97.57   1394.00     37.34
 97.67   1363.31     36.92
 97.77   1427.00     37.78
 97.87   1366.31     36.96
 97.97   1219.00     34.91
 98.07   1140.71     33.77
 98.17   1122.00     33.50
 98.27   1053.66     32.46
 98.37    967.00     31.10
 98.47    946.00     30.76
 98.57    922.00     30.36
 98.67    907.68     30.13
 98.77    805.00     28.37
 98.87    856.67     29.27
 98.97    801.00     28.30
 99.07    828.00     28.77
 99.17    810.33     28.47
 99.27    868.00     29.46
 99.37    955.00     30.90
 99.47   1067.00     32.66
 99.57   1104.05     33.23
 99.67   1144.00     33.82
 99.77   1275.00     35.71
 99.87   1375.36     37.09
 99.97   1435.55     37.89
100.07   1674.90     40.93
100.17   1713.00     41.39
100.27   1829.00     42.77
100.37   1936.71     44.01
100.47   2024.00     44.99
100.57   2073.00     45.53
100.67   2153.00     46.40
100.77   1970.60     44.39
100.87   2034.00     45.10
100.97   2013.20     44.87
101.07   1918.00     43.79
101.17   1845.00     42.95
101.27   1834.00     42.83
101.37   1667.74     40.84
101.47   1584.00     39.80
101.57   1459.66     38.21
101.67   1422.00     37.71
101.77   1357.00     36.84
101.87   1311.00     36.21
101.97   1225.84     35.01
102.07   1222.00     34.96
102.17   1232.05     35.10
102.27   1110.14     33.32
102.37   1104.26     33.23
102.47   1083.00     32.91
102.57   1088.00     32.98
102.67   1108.00     33.29
102.77   1007.50     31.74
102.87    999.13     31.61
102.97   1024.07     32.00
103.07    923.00     30.38
103.17    897.94     29.97
103.27    829.00     28.79
103.37    796.00     28.21
103.47    820.64     28.65
103.57    710.00     26.65
103.67    702.00     26.50
103.77    685.70     26.19
103.87    677.00     26.02
103.97    635.21     25.20
104.07    607.00     24.64
104.17    617.00     24.84
104.27    543.21     23.31
104.37    544.00     23.32
104.47    566.30     23.80
104.57    583.00     24.15
104.67    521.00     22.83
104.77    523.00     22.87
104.87    528.00     22.98
104.97    536.00     23.15
105.07    525.00     22.91
105.17    579.00     24.06
105.27    578.76     24.06
105.37    565.00     23.77
105.47    529.00     23.00
105.57    523.00     22.87
105.67    528.00     22.98
105.77    543.00     23.30
105.87    589.00     24.27
105.97    563.86     23.75
106.07    555.00     23.56
106.17    545.44     23.35
106.27    624.32     24.99
106.37    559.00     23.64
106.47    652.67     25.55
106.57    654.58     25.58
106.67    653.63     25.57
106.77    606.00     24.62
106.87    650.00     25.50
106.97    667.00     25.83
107.07    663.00     25.75
107.17    660.45     25.70
107.27    680.00     26.08
107.37    689.41     26.26
107.47    716.00     26.76
107.57    744.46     27.28
107.67    712.61     26.69
107.77    665.00     25.79
107.87    665.00     25.79
107.97    711.00     26.66
108.07    737.15     27.15
108.17    657.00     25.63
108.27    628.00     25.06
108.37    711.52     26.67
108.47    714.00     26.72
108.57    692.44     26.31
108.67    668.00     25.85
108.77    688.91     26.25
108.87    707.87     26.61
108.97    671.00     25.90
109.07    696.00     26.38
109.17    706.22     26.57
109.27    675.00     25.98
109.37    601.76     24.53
109.47    677.74     26.03
109.57    663.00     25.75
109.67    591.76     24.33
109.77    595.41     24.40
109.87    610.94     24.72
109.97    589.97     24.29
110.07    594.00     24.37
110.17    579.26     24.07
110.27    592.56     24.34
110.37    584.00     24.17
110.47    581.00     24.10
110.57    555.00     23.56
110.67    503.00     22.43
110.77    540.00     23.24
110.87    491.18     22.16
110.97    516.00     22.72
111.07    537.00     23.17
111.17    532.77     23.08
111.27    490.84     22.15
111.37    560.00     23.66
111.47    554.33     23.54
111.57    513.00     22.65
111.67    512.00     22.63
111.77    526.00     22.93
111.87    587.00     24.23
111.97    562.51     23.72
112.07    546.00     23.37
112.17    608.19     24.66
112.27    622.48     24.95
112.37    609.00     24.68
112.47    559.67     23.66
112.57    551.00     23.47
112.67    646.33     25.42
112.77    632.65     25.15
112.87    681.39     26.10
112.97    698.00     26.42
113.07    677.67     26.03
113.17    732.00     27.06
113.27    697.00     26.40
113.37    764.00     27.64
113.47    815.14     28.55
113.57    789.62     28.10
113.67    827.00     28.76
113.77    863.00     29.38
113.87    947.00     30.77
113.97    997.00     31.58
114.07   1054.47     32.47
114.17   1059.46     32.55
114.27   1188.00     34.47
114.37   1179.67     34.35
114.47   1300.93     36.07
114.57   1430.00     37.82
114.67   1531.00     39.13
114.77   1629.61     40.37
114.87   1823.05     42.70
114.97   2092.59     45.74
115.07   2401.00     49.00
115.17   2536.00     50.36
115.27   2857.82     53.46
115.37   3074.00     55.44
115.47   3406.38     58.36
115.57   3904.70     62.49
115.67   3935.00     62.73
115.77   4679.10     68.40
115.87   4973.91     70.53
115.97   5074.00     71.23
116.07   5747.28     75.81
116.17   6004.00     77.49
116.27   6295.00     79.34
116.37   6555.00     80.96
116.47   6815.00     82.55
116.57   6967.00     83.47
116.67   6950.00     83.37
116.77   6876.00     82.92
116.87   6845.37     82.74
116.97   6687.00     81.77
117.07   6571.62     81.07
117.17   6304.00     79.40
117.27   5767.00     75.94
117.37   5454.15     73.85
117.47   4974.00     70.53
117.57   4509.00     67.15
117.67   4411.00     66.42
117.77   3742.31     61.17
117.87   3611.00     60.09
117.97   3148.24     56.11
118.07   2760.83     52.54
118.17   2439.24     49.39
118.27   2299.00     47.95
118.37   1971.00     44.40
118.47   1818.74     42.65
118.57   1525.00     39.05
118.67   1445.14     38.01
118.77   1243.00     35.26
118.87   1073.42     32.76
118.97    983.98     31.37
119.07    912.00     30.20
119.17    858.00     29.29
119.27    843.00     29.03
119.37    819.00     28.62
119.47    768.00     27.71
119.57    689.00     26.25
119.67    663.56     25.76
119.77    642.00     25.34
119.87    610.00     24.70
119.97    581.00     24.10
120.07    587.91     24.25
120.17    614.00     24.78
120.27    585.26     24.19
120.37    570.00     23.87
120.47    552.00     23.49
120.57    608.00     24.66
120.67    610.96     24.72
120.77    600.00     24.49
120.87    532.46     23.08
120.97    579.00     24.06
121.07    569.43     23.86
121.17    532.13     23.07
121.27    591.30     24.32
121.37    552.00     23.49
121.47    593.00     24.35
121.57    584.00     24.17
121.67    587.00     24.23
121.77    594.00     24.37
121.87    556.62     23.59
121.97    629.73     25.09
122.07    625.46     25.01
122.17    632.63     25.15
122.27    613.00     24.76
122.37    625.00     25.00
122.47    682.00     26.12
122.57    626.00     25.02
122.67    616.00     24.82
122.77    663.00     25.75
122.87    620.00     24.90
122.97    677.00     26.02
123.07    663.00     25.75
123.17    647.48     25.45
123.27    665.88     25.80
123.37    598.00     24.45
123.47    669.11     25.87
123.57    621.00     24.92
123.67    636.00     25.22
123.77    661.00     25.71
123.87    587.17     24.23
123.97    655.00     25.59
124.07    626.68     25.03
124.17    581.63     24.12
124.27    595.00     24.39
124.37    553.05     23.52
124.47    613.00     24.76
124.57    573.00     23.94
124.67    616.00     24.82
124.77    625.00     25.00
124.87    602.00     24.54
124.97    569.00     23.85
