XYDATA



INTER 1.0 1.0 0 0
TEMP 1074.1
  9.97    557.00     23.60
 10.07    579.00     24.06
 10.17    608.00     24.66
 10.27    563.00     23.73
 10.37    545.98     23.37
 10.47    599.00     24.47
 10.57    561.18     23.69
 10.67    591.00     24.31
 10.77    565.00     23.77
 10.87    557.00     23.60
 10.97    596.08     24.41
 11.07    569.35     23.86
 11.17    579.00     24.06
 11.27    572.44     23.93
 11.37    556.00     23.58
 11.47    590.98     24.31
 11.57    547.11     23.39
 11.67    586.58     24.22
 11.77    591.68     24.32
 11.87    611.50     24.73
 11.97    678.01     26.04
 12.07    684.89     26.17
 12.17    662.00     25.73
 12.27    670.15     25.89
 12.37    719.11     26.82
 12.47    668.00     25.85
 12.57    572.00     23.92
 12.67    563.00     23.73
 12.77    574.23     23.96
 12.87    606.24     24.62
 12.97    561.00     23.69
 13.07    530.00     23.02
 13.17    540.87     23.26
 13.27    594.92     24.39
 13.37    562.00     23.71
 13.47    550.00     23.45
 13.57    539.00     23.22
 13.67    572.00     23.92
 13.77    562.00     23.71
 13.87    558.00     23.62
 13.97    603.44     24.56
 14.07    566.52     23.80
 14.17    554.00     23.54
 14.27    531.00     23.04
 14.37    518.00     22.76
 14.47    576.00     24.00
 14.57    545.17     23.35
 14.67    563.00     23.73
 14.77    571.00     23.90
 14.87    543.00     23.30
 14.97    537.00     23.17
 15.07    601.00     24.52
 15.17    610.99     24.72
 15.27    596.62     24.43
 15.37    577.68     24.03
 15.47    545.00     23.35
 15.57    526.00     22.93
 15.67    608.48     24.67
 15.77    609.00     24.68
 15.87    549.00     23.43
 15.97    567.00     23.81
 16.07    546.00     23.37
 16.17    563.00     23.73
 16.27    586.92     24.23
 16.37    551.00     23.47
 16.47    550.00     23.45
 16.57    572.00     23.92
 16.67    574.75     23.97
 16.77    563.00     23.73
 16.87    562.00     23.71
 16.97    588.08     24.25
 17.07    554.00     23.54
 17.17    549.00     23.43
 17.27    554.00     23.54
 17.37    517.16     22.74
 17.47    531.98     23.06
 17.57    611.00     24.72
 17.67    599.43     24.48
 17.77    564.00     23.75
 17.87    604.35     24.58
 17.97    564.00     23.75
 18.07    587.00     24.23
 18.17    591.77     24.33
 18.27    569.00     23.85
 18.37    537.74     23.19
 18.47    602.57     24.55
 18.57    589.00     24.27
 18.67    568.33     23.84
 18.77    528.59     22.99
 18.87    553.00     23.52
 18.97    551.00     23.47
 19.07    585.00     24.19
 19.17    511.81     22.62
 19.27    526.00     22.93
 19.37    528.53     22.99
 19.47    560.00     23.66
 19.57    601.00     24.52
 19.67    595.54     24.40
 19.77    554.00     23.54
 19.87    595.54     24.40
 19.97    550.58     23.46
 20.07    531.80     23.06
 20.17    550.00     23.45
 20.27    589.00     24.27
 20.37    528.00     22.98
 20.47    606.38     24.62
 20.57    540.00     23.24
 20.67    567.00     23.81
 20.77    574.00     23.96
 20.87    569.53     23.86
 20.97    546.00     23.37
 21.07    560.00     23.66
 21.17    540.00     23.24
 21.27    587.93     24.25
 21.37    525.00     22.91
 21.47    545.00     23.35
 21.57    513.00     22.65
 21.67    539.00     23.22
 21.77    495.00     22.25
 21.87    563.54     23.74
 21.97    556.00     23.58
 22.07    553.31     23.52
 22.17    535.00     23.13
 22.27    536.93     23.17
 22.37    525.33     22.92
 22.47    559.00     23.64
 22.57    580.00     24.08
 22.67    516.52     22.73
 22.77    524.31     22.90
 22.87    513.97     22.67
 22.97    532.63     23.08
 23.07    550.00     23.45
 23.17    524.00     22.89
 23.27    535.00     23.13
 23.37    556.72     23.59
 23.47    541.00     23.26
 23.57    560.11     23.67
 23.67    540.50     23.25
 23.77    582.00     24.12
 23.87    589.91     24.29
 23.97    561.87     23.70
 24.07    580.38     24.09
 24.17    603.00     24.56
 24.27    550.00     23.45
 24.37    584.00     24.17
 24.47    598.00     24.45
 24.57    658.00     25.65
 24.67    653.00     25.55
 24.77    632.00     25.14
 24.87    589.00     24.27
 24.97    678.00     26.04
 25.07    624.00     24.98
 25.17    604.00     24.58
 25.27    587.16     24.23
 25.37    555.00     23.56
 25.47    561.00     23.69
 25.57    593.54     24.36
 25.67    557.50     23.61
 25.77    562.00     23.71
 25.87    547.00     23.39
 25.97    580.00     24.08
 26.07    559.00     23.64
 26.17    567.00     23.81
 26.27    553.00     23.52
 26.37    580.00     24.08
 26.47    536.00     23.15
 26.57    542.00     23.28
 26.67    541.00     23.26
 26.77    562.08     23.71
 26.87    549.59     23.44
 26.97    544.00     23.32
 27.07    573.00     23.94
 27.17    559.00     23.64
 27.27    545.00     23.35
 27.37    570.00     23.87
 27.47    538.00     23.19
 27.57    518.07     22.76
 27.67    611.00     24.72
 27.77    591.00     24.31
 27.87    636.26     25.22
 27.97    696.00     26.38
 28.07    796.00     28.21
 28.17    951.00     30.84
 28.27    950.67     30.83
 28.37    974.63     31.22
 28.47    819.02     28.62
 28.57    716.00     26.76
 28.67    698.00     26.42
 28.77    766.00     27.68
 28.87    755.00     27.48
 28.97    767.00     27.69
 29.07    777.21     27.88
 29.17    676.35     26.01
 29.27    702.88     26.51
 29.37    588.24     24.25
 29.47    592.86     24.35
 29.57    609.32     24.68
 29.67    624.00     24.98
 29.77    575.00     23.98
 29.87    617.19     24.84
 29.97    558.24     23.63
 30.07    563.00     23.73
 30.17    524.00     22.89
 30.27    577.39     24.03
 30.37    543.00     23.30
 30.47    576.00     24.00
 30.57    565.00     23.77
 30.67    581.67     24.12
 30.77    594.00     24.37
 30.87    653.00     25.55
 30.97    667.08     25.83
 31.07    602.00     24.54
 31.17    550.00     23.45
 31.27    608.72     24.67
 31.37    525.66     22.93
 31.47    573.77     23.95
 31.57    531.00     23.04
 31.67    561.00     23.69
 31.77    605.00     24.60
 31.87    549.00     23.43
 31.97    566.00     23.79
 32.07    544.84     23.34
 32.17    547.00     23.39
 32.27    581.00     24.10
 32.37    572.00     23.92
 32.47    525.00     22.91
 32.57    539.00     23.22
 32.67    543.00     23.30
 32.77    576.71     24.01
 32.87    548.00     23.41
 32.97    532.00     23.07
 33.07    543.00     23.30
 33.17    541.00     23.26
 33.27    552.00     23.49
 33.37    571.96     23.92
 33.47    512.53     22.64
 33.57    569.00     23.85
 33.67    619.00     24.88
 33.77    779.00     27.91
 33.87    879.00     29.65
 33.97   1063.00     32.60
 34.07   1069.00     32.70
 34.17   1060.00     32.56
 34.27    888.00     29.80
 34.37    758.00     27.53
 34.47    656.00     25.61
 34.57    581.00     24.10
 34.67    529.00     23.00
 34.77    542.00     23.28
 34.87    540.00     23.24
 34.97    552.00     23.49
 35.07    573.83     23.95
 35.17    522.54     22.86
 35.27    547.48     23.40
 35.37    502.00     22.41
 35.47    509.00     22.56
 35.57    539.00     23.22
 35.67    525.00     22.91
 35.77    493.00     22.20
 35.87    534.00     23.11
 35.97    521.77     22.84
 36.07    512.00     22.63
 36.17    509.57     22.57
 36.27    496.00     22.27
 36.37    484.00     22.00
 36.47    514.00     22.67
 36.57    486.00     22.05
 36.67    474.00     21.77
 36.77    519.00     22.78
 36.87    543.00     23.30
 36.97    563.00     23.73
 37.07    555.20     23.56
 37.17    510.00     22.58
 37.27    518.20     22.76
 37.37    561.00     23.69
 37.47    540.00     23.24
 37.57    559.09     23.64
 37.67    516.00     22.72
 37.77    525.00     22.91
 37.87    526.00     22.93
 37.97    539.00     23.22
 38.07    482.00     21.95
 38.17    520.67     22.82
 38.27    542.00     23.28
 38.37    484.29     22.01
 38.47    510.00     22.58
 38.57    543.54     23.31
 38.67    533.54     23.10
 38.77    509.00     22.56
 38.87    497.00     22.29
 38.97    484.00     22.00
 39.07    479.96     21.91
 39.17    500.39     22.37
 39.27    486.00     22.05
 39.37    522.00     22.85
 39.47    501.00     22.38
 39.57    516.00     22.72
 39.67    494.00     22.23
 39.77    493.33     22.21
 39.87    539.00     23.22
 39.97    483.86     22.00
 40.07    552.23     23.50
 40.17    487.40     22.08
 40.27    518.00     22.76
 40.37    545.80     23.36
 40.47    499.72     22.35
 40.57    525.00     22.91
 40.67    501.00     22.38
 40.77    515.65     22.71
 40.87    515.00     22.69
 40.97    515.00     22.69
 41.07    506.00     22.49
 41.17    525.23     22.92
 41.27    541.78     23.28
 41.37    503.00     22.43
 41.47    510.00     22.58
 41.57    488.00     22.09
 41.67    510.00     22.58
 41.77    523.00     22.87
 41.87    497.00     22.29
 41.97    507.00     22.52
 42.07    473.75     21.77
 42.17    519.00     22.78
 42.27    541.00     23.26
 42.37    579.00     24.06
 42.47    573.00     23.94
 42.57    619.00     24.88
 42.67    566.00     23.79
 42.77    565.00     23.77
 42.87    599.00     24.47
 42.97    527.00     22.96
 43.07    526.87     22.95
 43.17    527.00     22.96
 43.27    545.00     23.35
 43.37    475.00     21.79
 43.47    492.41     22.19
 43.57    536.49     23.16
 43.67    507.00     22.52
 43.77    477.00     21.84
 43.87    500.00     22.36
 43.97    535.45     23.14
 44.07    521.00     22.83
 44.17    495.00     22.25
 44.27    482.00     21.95
 44.37    496.00     22.27
 44.47    519.00     22.78
 44.57    502.00     22.41
 44.67    498.00     22.32
 44.77    500.00     22.36
 44.87    484.12     22.00
 44.97    496.00     22.27
 45.07    497.75     22.31
 45.17    512.00     22.63
 45.27    525.80     22.93
 45.37    519.00     22.78
 45.47    529.00     23.00
 45.57    493.00     22.20
 45.67    546.97     23.39
 45.77    550.00     23.45
 45.87    508.11     22.54
 45.97    490.00     22.14
 46.07    520.07     22.80
 46.17    470.67     21.70
 46.27    521.00     22.83
 46.37    518.00     22.76
 46.47    531.00     23.04
 46.57    494.00     22.23
 46.67    483.00     21.98
 46.77    516.07     22.72
 46.87    511.00     22.61
 46.97    515.80     22.71
 47.07    495.25     22.25
 47.17    542.00     23.28
 47.27    554.00     23.54
 47.37    485.34     22.03
 47.47    523.00     22.87
 47.57    592.37     24.34
 47.67    596.95     24.43
 47.77    627.01     25.04
 47.87    620.00     24.90
 47.97    605.11     24.60
 48.07    593.00     24.35
 48.17    574.00     23.96
 48.27    524.00     22.89
 48.37    520.85     22.82
 48.47    503.00     22.43
 48.57    573.00     23.94
 48.67    489.00     22.11
 48.77    543.00     23.30
 48.87    543.00     23.30
 48.97    569.00     23.85
 49.07    579.00     24.06
 49.17    594.00     24.37
 49.27    634.00     25.18
 49.37    695.00     26.36
 49.47    721.00     26.85
 49.57    750.00     27.39
 49.67    955.00     30.90
 49.77   1131.98     33.64
 49.87   1485.82     38.55
 49.97   1854.56     43.06
 50.07   2306.00     48.02
 50.17   2536.52     50.36
 50.27   2484.00     49.84
 50.37   2325.00     48.22
 50.47   1833.00     42.81
 50.57   1383.00     37.19
 50.67   1093.00     33.06
 50.77    827.00     28.76
 50.87    685.00     26.17
 50.97    639.00     25.28
 51.07    663.43     25.76
 51.17    593.00     24.35
 51.27    581.00     24.10
 51.37    576.00     24.00
 51.47    602.00     24.54
 51.57    565.27     23.78
 51.67    519.12     22.78
 51.77    511.88     22.62
 51.87    512.00     22.63
 51.97    556.55     23.59
 52.07    532.00     23.07
 52.17    574.00     23.96
 52.27    585.00     24.19
 52.37    571.00     23.90
 52.47    553.00     23.52
 52.57    568.40     23.84
 52.67    566.00     23.79
 52.77    585.98     24.21
 52.87    662.10     25.73
 52.97    639.00     25.28
 53.07    832.00     28.84
 53.17    848.06     29.12
 53.27   1092.00     33.05
 53.37   1124.00     33.53
 53.47   1238.00     35.19
 53.57   1250.66     35.36
 53.67   1086.00     32.95
 53.77   1038.61     32.23
 53.87    863.00     29.38
 53.97    734.00     27.09
 54.07    644.00     25.38
 54.17    640.00     25.30
 54.27    623.60     24.97
 54.37    577.00     24.02
 54.47    518.41     22.77
 54.57    554.00     23.54
 54.67    540.11     23.24
 54.77    523.62     22.88
 54.87    586.04     24.21
 54.97    510.74     22.60
 55.07    588.85     24.27
 55.17    624.00     24.98
 55.27    567.00     23.81
 55.37    539.60     23.23
 55.47    552.45     23.50
 55.57    524.64     22.90
 55.67    519.84     22.80
 55.77    596.00     24.41
 55.87    582.00     24.12
 55.97    603.45     24.57
 56.07    647.00     25.44
 56.17    787.55     28.06
 56.27    876.00     29.60
 56.37   1122.00     33.50
 56.47   1424.00     37.74
 56.57   1818.00     42.64
 56.67   2242.24     47.35
 56.77   2461.77     49.62
 56.87   2689.95     51.86
 56.97   2605.77     51.05
 57.07   2391.00     48.90
 57.17   1957.52     44.24
 57.27   1642.00     40.52
 57.37   1302.00     36.08
 57.47   1024.00     32.00
 57.57    895.00     29.92
 57.67    777.51     27.88
 57.77    708.08     26.61
 57.87    702.00     26.50
 57.97    621.00     24.92
 58.07    694.77     26.36
 58.17    667.98     25.85
 58.27    713.00     26.70
 58.37    831.43     28.83
 58.47    909.00     30.15
 58.57   1164.60     34.13
 58.67   1275.00     35.71
 58.77   1379.00     37.13
 58.87   1453.59     38.13
 58.97   1497.02     38.69
 59.07   1607.00     40.09
 59.17   1576.00     39.70
 59.27   1466.22     38.29
 59.37   1365.00     36.95
 59.47   1200.69     34.65
 59.57   1207.00     34.74
 59.67   1096.18     33.11
 59.77   1175.00     34.28
 59.87   1207.00     34.74
 59.97   1356.00     36.82
 60.07   1404.97     37.48
 60.17   1513.00     38.90
 60.27   1482.62     38.50
 60.37   1466.00     38.29
 60.47   1315.73     36.27
 60.57   1306.00     36.14
 60.67   1054.00     32.47
 60.77    957.00     30.94
 60.87    804.40     28.36
 60.97    710.00     26.65
 61.07    615.03     24.80
 61.17    590.53     24.30
 61.27    589.24     24.27
 61.37    624.68     24.99
 61.47    692.11     26.31
 61.57    772.00     27.78
 61.67    864.00     29.39
 61.77    918.00     30.30
 61.87   1073.00     32.76
 61.97   1273.93     35.69
 62.07   1405.00     37.48
 62.17   1385.63     37.22
 62.27   1291.00     35.93
 62.37   1318.00     36.30
 62.47   1241.00     35.23
 62.57   1012.00     31.81
 62.67    913.76     30.23
 62.77    731.00     27.04
 62.87    676.85     26.02
 62.97    647.06     25.44
 63.07    558.00     23.62
 63.17    556.71     23.59
 63.27    592.00     24.33
 63.37    555.00     23.56
 63.47    605.86     24.61
 63.57    567.00     23.81
 63.67    577.03     24.02
 63.77    588.00     24.25
 63.87    630.00     25.10
 63.97    652.00     25.53
 64.07    639.11     25.28
 64.17    776.00     27.86
 64.27    817.00     28.58
 64.37    903.00     30.05
 64.47    935.00     30.58
 64.57   1053.00     32.45
 64.67   1011.00     31.80
 64.77    968.05     31.11
 64.87    924.74     30.41
 64.97    930.04     30.50
 65.07    843.53     29.04
 65.17    785.00     28.02
 65.27    697.00     26.40
 65.37    694.00     26.34
 65.47    661.38     25.72
 65.57    624.58     24.99
 65.67    589.00     24.27
 65.77    587.00     24.23
 65.87    574.00     23.96
 65.97    550.00     23.45
 66.07    600.00     24.49
 66.17    605.11     24.60
 66.27    576.00     24.00
 66.37    548.95     23.43
 66.47    563.75     23.74
 66.57    556.00     23.58
 66.67    535.00     23.13
 66.77    623.85     24.98
 66.87    576.80     24.02
 66.97    619.00     24.88
 67.07    599.00     24.47
 67.17    675.00     25.98
 67.27    737.80     27.16
 67.37    925.60     30.42
 67.47   1086.00     32.95
 67.57   1309.27     36.18
 67.67   1501.00     38.74
 67.77   1736.00     41.67
 67.87   2022.00     44.97
 67.97   2197.00     46.87
 68.07   2519.00     50.19
 68.17   2399.00     48.98
 68.27   2230.16     47.22
 68.37   2051.00     45.29
 68.47   1945.00     44.10
 68.57   1430.61     37.82
 68.67   1294.77     35.98
 68.77   1058.90     32.54
 68.87    823.31     28.69
 68.97    770.00     27.75
 69.07    749.00     27.37
 69.17    647.00     25.44
 69.27    611.00     24.72
 69.37    549.46     23.44
 69.47    571.26     23.90
 69.57    600.00     24.49
 69.67    543.00     23.30
 69.77    550.00     23.45
 69.87    564.00     23.75
 69.97    593.00     24.35
 70.07    596.00     24.41
 70.17    587.00     24.23
 70.27    552.00     23.49
 70.37    597.00     24.43
 70.47    607.79     24.65
 70.57    614.91     24.80
 70.67    617.00     24.84
 70.77    621.01     24.92
 70.87    602.51     24.55
 70.97    674.71     25.98
 71.07    685.02     26.17
 71.17    749.00     27.37
 71.27    796.00     28.21
 71.37    952.00     30.85
 71.47   1075.00     32.79
 71.57   1228.00     35.04
 71.67   1473.81     38.39
 71.77   1647.50     40.59
 71.87   1829.00     42.77
 71.97   1944.00     44.09
 72.07   1909.00     43.69
 72.17   1930.00     43.93
 72.27   1913.00     43.74
 72.37   1570.24     39.63
 72.47   1482.00     38.50
 72.57   1391.56     37.30
 72.67   1102.00     33.20
 72.77   1157.54     34.02
 72.87   1002.45     31.66
 72.97    864.00     29.39
 73.07    827.19     28.76
 73.17    830.73     28.82
 73.27    720.43     26.84
 73.37    724.74     26.92
 73.47    638.24     25.26
 73.57    616.00     24.82
 73.67    662.26     25.73
 73.77    575.41     23.99
 73.87    618.53     24.87
 73.97    565.41     23.78
 74.07    569.49     23.86
 74.17    537.19     23.18
 74.27    596.00     24.41
 74.37    527.72     22.97
 74.47    585.68     24.20
 74.57    557.00     23.60
 74.67    587.00     24.23
 74.77    607.00     24.64
 74.87    663.00     25.75
 74.97    596.00     24.41
 75.07    605.00     24.60
 75.17    568.00     23.83
 75.27    583.00     24.15
 75.37    566.00     23.79
 75.47    548.00     23.41
 75.57    589.03     24.27
 75.67    569.00     23.85
 75.77    592.00     24.33
 75.87    636.78     25.23
 75.97    609.00     24.68
 76.07    615.36     24.81
 76.17    667.40     25.83
 76.27    654.00     25.57
 76.37    700.00     26.46
 76.47    718.45     26.80
 76.57    730.26     27.02
 76.67    685.00     26.17
 76.77    683.00     26.13
 76.87    627.00     25.04
 76.97    638.00     25.26
 77.07    607.05     24.64
 77.17    584.38     24.17
 77.27    593.00     24.35
 77.37    584.00     24.17
 77.47    570.00     23.87
 77.57    529.82     23.02
 77.67    556.00     23.58
 77.77    506.00     22.49
 77.87    488.59     22.10
 77.97    504.00     22.45
 78.07    492.70     22.20
 78.17    508.00     22.54
 78.27    536.51     23.16
 78.37    574.42     23.97
 78.47    537.60     23.19
 78.57    538.00     23.19
 78.67    486.35     22.05
 78.77    510.00     22.58
 78.87    533.00     23.09
 78.97    488.00     22.09
 79.07    506.00     22.49
 79.17    512.46     22.64
 79.27    530.00     23.02
 79.37    559.76     23.66
 79.47    513.00     22.65
 79.57    536.00     23.15
 79.67    514.00     22.67
 79.77    530.00     23.02
 79.87    533.00     23.09
 79.97    530.53     23.03
 80.07    584.20     24.17
 80.17    551.00     23.47
 80.27    537.00     23.17
 80.37    572.97     23.94
 80.47    566.00     23.79
 80.57    586.00     24.21
 80.67    625.00     25.00
 80.77    630.00     25.10
 80.87    676.08     26.00
 80.97    738.00     27.17
 81.07    763.30     27.63
 81.17    775.69     27.85
 81.27    762.00     27.60
 81.37    778.00     27.89
 81.47    815.00     28.55
 81.57    767.00     27.69
 81.67    784.16     28.00
 81.77    721.00     26.85
 81.87    735.00     27.11
 81.97    726.00     26.94
 82.07    690.52     26.28
 82.17    677.01     26.02
 82.27    600.00     24.49
 82.37    595.00     24.39
 82.47    607.91     24.66
 82.57    606.81     24.63
 82.67    557.00     23.60
 82.77    552.00     23.49
 82.87    593.00     24.35
 82.97    567.00     23.81
 83.07    598.00     24.45
 83.17    518.00     22.76
 83.27    566.00     23.79
 83.37    561.12     23.69
 83.47    522.00     22.85
 83.57    554.48     23.55
 83.67    539.00     23.22
 83.77    622.63     24.95
 83.87    550.77     23.47
 83.97    566.00     23.79
 84.07    548.00     23.41
 84.17    592.00     24.33
 84.27    554.00     23.54
 84.37    587.00     24.23
 84.47    562.00     23.71
 84.57    561.00     23.69
 84.67    545.64     23.36
 84.77    539.00     23.22
 84.87    511.00     22.61
 84.97    491.00     22.16
 85.07    494.00     22.23
 85.17    516.00     22.72
 85.27    547.00     23.39
 85.37    503.00     22.43
 85.47    513.00     22.65
 85.57    544.19     23.33
 85.67    487.00     22.07
 85.77    514.00     22.67
 85.87    521.00     22.83
 85.97    517.00     22.74
 86.07    487.80     22.09
 86.17    508.00     22.54
 86.27    503.00     22.43
 86.37    583.00     24.15
 86.47    539.00     23.22
 86.57    538.57     23.21
 86.67    520.16     22.81
 86.77    551.36     23.48
 86.87    586.00     24.21
 86.97    549.86     23.45
 87.07    625.36     25.01
 87.17    621.00     24.92
 87.27    634.00     25.18
 87.37    603.00     24.56
 87.47    699.00     26.44
 87.57    670.00     25.88
 87.67    623.00     24.96
 87.77    633.42     25.17
 87.87    595.54     24.40
 87.97    608.00     24.66
 88.07    653.00     25.55
 88.17    617.00     24.84
 88.27    572.09     23.92
 88.37    616.00     24.82
 88.47    596.00     24.41
 88.57    528.26     22.98
 88.67    533.12     23.09
 88.77    622.35     24.95
 88.87    624.70     24.99
 88.97    612.00     24.74
 89.07    584.58     24.18
 89.17    596.88     24.43
 89.27    646.93     25.43
 89.37    620.00     24.90
 89.47    635.00     25.20
 89.57    612.19     24.74
 89.67    563.00     23.73
 89.77    575.00     23.98
 89.87    588.60     24.26
 89.97    565.00     23.77
 90.07    549.00     23.43
 90.17    548.00     23.41
 90.27    525.00     22.91
 90.37    496.00     22.27
 90.47    565.00     23.77
 90.57    563.47     23.74
 90.67    531.00     23.04
 90.77    541.00     23.26
 90.87    533.00     23.09
 90.97    552.00     23.49
 91.07    525.00     22.91
 91.17    503.00     22.43
 91.27    553.00     23.52
 91.37    568.56     23.84
 91.47    490.07     22.14
 91.57    516.91     22.74
 91.67    538.42     23.20
 91.77    547.00     23.39
 91.87    535.00     23.13
 91.97    578.00     24.04
 92.07    591.34     24.32
 92.17    547.00     23.39
 92.27    567.41     23.82
 92.37    612.00     24.74
 92.47    593.00     24.35
 92.57    612.89     24.76
 92.67    651.00     25.51
 92.77    655.08     25.59
 92.87    762.33     27.61
 92.97    747.00     27.33
 93.07    765.99     27.68
 93.17    799.21     28.27
 93.27    820.85     28.65
 93.37    807.00     28.41
 93.47    791.00     28.12
 93.57    817.00     28.58
 93.67    759.79     27.56
 93.77    820.00     28.64
 93.87    787.31     28.06
 93.97    810.21     28.46
 94.07    880.49     29.67
 94.17    886.00     29.77
 94.27    861.34     29.35
 94.37    822.77     28.68
 94.47    852.11     29.19
 94.57    834.20     28.88
 94.67    872.00     29.53
 94.77    947.00     30.77
 94.87    867.00     29.44
 94.97    925.00     30.41
 95.07    955.00     30.90
 95.17    802.27     28.32
 95.27    806.00     28.39
 95.37    808.00     28.43
 95.47    742.00     27.24
 95.57    815.00     28.55
 95.67    719.41     26.82
 95.77    665.23     25.79
 95.87    689.00     26.25
 95.97    685.00     26.17
 96.07    717.42     26.78
 96.17    697.00     26.40
 96.27    710.00     26.65
 96.37    755.00     27.48
 96.47    779.53     27.92
 96.57    843.00     29.03
 96.67    955.73     30.91
 96.77    970.00     31.14
 96.87   1024.00     32.00
 96.97   1203.00     34.68
 97.07   1234.27     35.13
 97.17   1328.72     36.45
 97.27   1362.00     36.91
 97.37   1414.32     37.61
 97.47   1467.72     38.31
 97.57   1445.00     38.01
 97.67   1405.00     37.48
 97.77   1358.00     36.85
 97.87   1359.00     36.86
 97.97   1302.89     36.10
 98.07   1201.00     34.66
 98.17   1191.82     34.52
 98.27   1045.00     32.33
 98.37   1019.21     31.93
 98.47    955.00     30.90
 98.57    949.17     30.81
 98.67    850.00     29.15
 98.77    811.00     28.48
 98.87    819.00     28.62
 98.97    756.00     27.50
 99.07    760.09     27.57
 99.17    811.00     28.48
 99.27    854.11     29.23
 99.37    972.00     31.18
 99.47   1044.00     32.31
 99.57   1140.00     33.76
 99.67   1215.00     34.86
 99.77   1245.00     35.28
 99.87   1390.00     37.28
 99.97   1493.00     38.64
100.07   1673.00     40.90
100.17   1755.00     41.89
100.27   1821.34     42.68
100.37   1964.00     44.32
100.47   1977.00     44.46
100.57   2201.00     46.91
100.67   2168.22     46.56
100.77   2035.00     45.11
100.87   2064.00     45.43
100.97   2055.00     45.33
101.07   2101.00     45.84
101.17   1978.00     44.47
101.27   1828.00     42.76
101.37   1744.00     41.76
101.47   1586.28     39.83
101.57   1449.00     38.07
101.67   1458.57     38.19
101.77   1296.73     36.01
101.87   1350.26     36.75
101.97   1281.94     35.80
102.07   1203.13     34.69
102.17   1191.62     34.52
102.27   1073.00     32.76
102.37   1057.00     32.51
102.47   1151.98     33.94
102.57   1021.51     31.96
102.67   1063.62     32.61
102.77   1031.52     32.12
102.87   1050.79     32.42
102.97    969.00     31.13
103.07    933.00     30.55
103.17    885.23     29.75
103.27    804.00     28.35
103.37    880.00     29.66
103.47    785.43     28.03
103.57    701.16     26.48
103.67    720.00     26.83
103.77    700.75     26.47
103.87    661.00     25.71
103.97    623.00     24.96
104.07    617.00     24.84
104.17    569.82     23.87
104.27    550.00     23.45
104.37    546.00     23.37
104.47    576.94     24.02
104.57    597.00     24.43
104.67    549.00     23.43
104.77    553.00     23.52
104.87    526.95     22.96
104.97    574.00     23.96
105.07    549.00     23.43
105.17    537.00     23.17
105.27    544.00     23.32
105.37    516.00     22.72
105.47    532.00     23.07
105.57    529.00     23.00
105.67    581.00     24.10
105.77    531.74     23.06
105.87    545.00     23.35
105.97    562.00     23.71
106.07    576.00     24.00
106.17    608.78     24.67
106.27    573.73     23.95
106.37    593.00     24.35
106.47    582.10     24.13
106.57    607.00     24.64
106.67    652.88     25.55
106.77    659.51     25.68
106.87    612.00     24.74
106.97    645.63     25.41
107.07    653.00     25.55
107.17    660.00     25.69
107.27    701.44     26.48
107.37    668.36     25.85
107.47    696.00     26.38
107.57    648.00     25.46
107.67    692.00     26.31
107.77    726.62     26.96
107.87    703.00     26.51
107.97    691.00     26.29
108.07    705.00     26.55
108.17    644.00     25.38
108.27    680.00     26.08
108.37    693.40     26.33
108.47    735.43     27.12
108.57    687.00     26.21
108.67    653.68     25.57
108.77    693.00     26.32
108.87    739.54     27.19
108.97    641.00     25.32
109.07    687.00     26.21
109.17    621.00     24.92
109.27    703.86     26.53
109.37    670.00     25.88
109.47    666.95     25.83
109.57    623.00     24.96
109.67    598.02     24.45
109.77    584.70     24.18
109.87    608.36     24.67
109.97    591.00     24.31
110.07    596.97     24.43
110.17    602.00     24.54
110.27    611.00     24.72
110.37    597.31     24.44
110.47    561.00     23.69
110.57    595.00     24.39
110.67    572.00     23.92
110.77    568.32     23.84
110.87    549.00     23.43
110.97    508.00     22.54
111.07    553.00     23.52
111.17    510.00     22.58
111.27    500.73     22.38
111.37    555.00     23.56
111.47    525.01     22.91
111.57    563.73     23.74
111.67    577.00     24.02
111.77    544.91     23.34
111.87    564.00     23.75
111.97    567.00     23.81
112.07    586.00     24.21
112.17    506.00     22.49
112.27    550.00     23.45
112.37    549.00     23.43
112.47    604.00     24.58
112.57    650.00     25.50
112.67    605.00     24.60
112.77    600.14     24.50
112.87    651.00     25.51
112.97    677.00     26.02
113.07    680.66     26.09
113.17    692.00     26.31
113.27    715.00     26.74
113.37    754.22     27.46
113.47    729.73     27.01
113.57    825.00     28.72
113.67    807.84     28.42
113.77    961.00     31.00
113.87    913.52     30.22
113.97   1046.64     32.35
114.07   1028.00     32.06
114.17   1077.00     32.82
114.27   1205.26     34.72
114.37   1257.00     35.45
114.47   1319.00     36.32
114.57   1485.00     38.54
114.67   1589.01     39.86
114.77   1703.70     41.28
114.87   1848.00     42.99
114.97   2171.00     46.59
115.07   2261.00     47.55
115.17   2624.00     51.22
115.27   2923.00     54.06
115.37   3232.16     56.85
115.47   3367.57     58.03
115.57   3698.00     60.81
115.67   4103.00     64.05
115.77   4669.48     68.33
115.87   4802.00     69.30
115.97   5292.00     72.75
116.07   5461.00     73.90
116.17   6126.00     78.27
116.27   6375.00     79.84
116.37   6579.00     81.11
116.47   6751.73     82.17
116.57   6950.00     83.37
116.67   6976.00     83.52
116.77   6814.20     82.55
116.87   6788.36     82.39
116.97   6564.80     81.02
117.07   6564.93     81.02
117.17   6094.00     78.06
117.27   5692.71     75.45
117.37   5155.00     71.80
117.47   5052.27     71.08
117.57   4672.00     68.35
117.67   4290.00     65.50
117.77   3935.00     62.73
117.87   3660.00     60.50
117.97   3241.39     56.93
118.07   2975.00     54.54
118.17   2611.00     51.10
118.27   2214.82     47.06
118.37   1984.60     44.55
118.47   1751.00     41.84
118.57   1530.00     39.12
118.67   1378.00     37.12
118.77   1199.00     34.63
118.87   1127.00     33.57
118.97   1041.00     32.26
119.07    930.02     30.50
119.17    910.20     30.17
119.27    859.31     29.31
119.37    784.00     28.00
119.47    743.00     27.26
119.57    627.00     25.04
119.67    645.00     25.40
119.77    665.00     25.79
119.87    642.00     25.34
119.97    658.12     25.65
120.07    642.34     25.34
120.17    635.00     25.20
120.27    558.71     23.64
120.37    565.00     23.77
120.47    556.00     23.58
120.57    586.81     24.22
120.67    550.00     23.45
120.77    553.00     23.52
120.87    548.74     23.43
120.97    560.00     23.66
121.07    584.65     24.18
121.17    568.00     23.83
121.27    577.00     24.02
121.37    537.04     23.17
121.47    590.50     24.30
121.57    623.61     24.97
121.67    562.00     23.71
121.77    578.07     24.04
121.87    586.00     24.21
121.97    602.00     24.54
122.07    642.00     25.34
122.17    631.00     25.12
122.27    612.28     24.74
122.37    649.00     25.48
122.47    585.00     24.19
122.57    612.71     24.75
122.67    652.00     25.53
122.77    632.00     25.14
122.87    646.00     25.42
122.97    669.93     25.88
123.07    640.00     25.30
123.17    623.36     24.97
123.27    649.00     25.48
123.37    665.00     25.79
123.47    647.00     25.44
123.57    671.00     25.90
123.67    611.00     24.72
123.77    638.00     25.26
123.87    627.68     25.05
123.97    668.20     25.85
124.07    614.00     24.78
124.17    576.10     24.00
124.27    630.78     25.12
124.37    637.29     25.24
124.47    625.00     25.00
124.57    571.00     23.90
124.67    569.00     23.85
124.77    602.37     24.54
124.87    577.00     24.02
124.97    571.00     23.90
