XYDATA



INTER 1.0 1.0 0 0
TEMP 1074.0
  9.97    602.00     24.54
 10.07    584.00     24.17
 10.17    592.00     24.33
 10.27    608.00     24.66
 10.37    538.47     23.20
 10.47    617.00     24.84
 10.57    626.00     25.02
 10.67    609.61     24.69
 10.77    603.00     24.56
 10.87    652.00     25.53
 10.97    613.00     24.76
 11.07    598.73     24.47
 11.17    610.00     24.70
 11.27    573.47     23.95
 11.37    582.00     24.12
 11.47    596.00     24.41
 11.57    571.00     23.90
 11.67    594.00     24.37
 11.77    642.00     25.34
 11.87    632.00     25.14
 11.97    640.59     25.31
 12.07    679.43     26.07
 12.17    634.00     25.18
 12.27    680.00     26.08
 12.37    730.48     27.03
 12.47    605.00     24.60
 12.57    640.31     25.30
 12.67    583.00     24.15
 12.77    557.00     23.60
 12.87    553.84     23.53
 12.97    587.00     24.23
 13.07    529.74     23.02
 13.17    557.20     23.60
 13.27    544.43     23.33
 13.37    551.00     23.47
 13.47    566.00     23.79
 13.57    582.00     24.12
 13.67    557.00     23.60
 13.77    612.16     24.74
 13.87    614.00     24.78
 13.97    580.61     24.10
 14.07    585.00     24.19
 14.17    586.00     24.21
 14.27    548.00     23.41
 14.37    597.44     24.44
 14.47    548.00     23.41
 14.57    591.28     24.32
 14.67    544.00     23.32
 14.77    592.63     24.34
 14.87    592.00     24.33
 14.97    571.95     23.92
 15.07    595.97     24.41
 15.17    547.00     23.39
 15.27    594.27     24.38
 15.37    556.00     23.58
 15.47    549.59     23.44
 15.57    613.96     24.78
 15.67    602.00     24.54
 15.77    588.91     24.27
 15.87    580.00     24.08
 15.97    569.18     23.86
 16.07    557.00     23.60
 16.17    582.35     24.13
 16.27    548.14     23.41
 16.37    544.00     23.32
 16.47    549.00     23.43
 16.57    524.00     22.89
 16.67    541.00     23.26
 16.77    579.00     24.06
 16.87    596.00     24.41
 16.97    569.00     23.85
 17.07    596.00     24.41
 17.17    590.00     24.29
 17.27    574.26     23.96
 17.37    553.00     23.52
 17.47    560.28     23.67
 17.57    549.03     23.43
 17.67    588.00     24.25
 17.77    575.00     23.98
 17.87    518.24     22.76
 17.97    522.98     22.87
 18.07    540.00     23.24
 18.17    594.05     24.37
 18.27    550.00     23.45
 18.37    578.00     24.04
 18.47    596.01     24.41
 18.57    517.24     22.74
 18.67    594.62     24.38
 18.77    580.14     24.09
 18.87    572.00     23.92
 18.97    581.00     24.10
 19.07    599.12     24.48
 19.17    603.91     24.57
 19.27    583.00     24.15
 19.37    526.00     22.93
 19.47    596.81     24.43
 19.57    550.00     23.45
 19.67    525.00     22.91
 19.77    573.00     23.94
 19.87    532.00     23.07
 19.97    566.00     23.79
 20.07    602.29     24.54
 20.17    573.00     23.94
 20.27    556.00     23.58
 20.37    590.34     24.30
 20.47    513.00     22.65
 20.57    558.00     23.62
 20.67    552.00     23.49
 20.77    536.85     23.17
 20.87    516.00     22.72
 20.97    570.21     23.88
 21.07    582.25     24.13
 21.17    592.26     24.34
 21.27    585.57     24.20
 21.37    540.21     23.24
 21.47    561.00     23.69
 21.57    549.00     23.43
 21.67    588.00     24.25
 21.77    536.00     23.15
 21.87    548.00     23.41
 21.97    546.00     23.37
 22.07    570.00     23.87
 22.17    563.00     23.73
 22.27    573.00     23.94
 22.37    582.00     24.12
 22.47    577.00     24.02
 22.57    568.07     23.83
 22.67    575.00     23.98
 22.77    551.00     23.47
 22.87    496.00     22.27
 22.97    586.00     24.21
 23.07    547.89     23.41
 23.17    523.00     22.87
 23.27    594.41     24.38
 23.37    512.00     22.63
 23.47    515.00     22.69
 23.57    580.00     24.08
 23.67    571.00     23.90
 23.77    555.00     23.56
 23.87    537.50     23.18
 23.97    591.00     24.31
 24.07    508.43     22.55
 24.17    605.00     24.60
 24.27    562.36     23.71
 24.37    596.00     24.41
 24.47    564.00     23.75
 24.57    606.54     24.63
 24.67    597.00     24.43
 24.77    617.00     24.84
 24.87    610.00     24.70
 24.97    605.92     24.62
 25.07    589.00     24.27
 25.17    546.18     23.37
 25.27    551.00     23.47
 25.37    510.43     22.59
 25.47    520.10     22.81
 25.57    558.00     23.62
 25.67    524.00     22.89
 25.77    584.00     24.17
 25.87    579.00     24.06
 25.97    556.00     23.58
 26.07    546.67     23.38
 26.17    587.75     24.24
 26.27    525.94     22.93
 26.37    535.68     23.14
 26.47    550.08     23.45
 26.57    512.50     22.64
 26.67    560.00     23.66
 26.77    521.82     22.84
 26.87    520.00     22.80
 26.97    549.00     23.43
 27.07    532.67     23.08
 27.17    560.00     23.66
 27.27    528.88     23.00
 27.37    549.00     23.43
 27.47    519.67     22.80
 27.57    557.00     23.60
 27.67    565.00     23.77
 27.77    570.83     23.89
 27.87    632.90     25.16
 27.97    656.00     25.61
 28.07    794.00     28.18
 28.17    916.54     30.27
 28.27    938.00     30.63
 28.37    892.21     29.87
 28.47    766.16     27.68
 28.57    703.00     26.51
 28.67    681.00     26.10
 28.77    787.30     28.06
 28.87    786.00     28.04
 28.97    810.00     28.46
 29.07    832.00     28.84
 29.17    724.00     26.91
 29.27    666.00     25.81
 29.37    571.00     23.90
 29.47    551.00     23.47
 29.57    601.00     24.52
 29.67    552.00     23.49
 29.77    542.00     23.28
 29.87    566.00     23.79
 29.97    560.48     23.67
 30.07    557.00     23.60
 30.17    550.37     23.46
 30.27    570.00     23.87
 30.37    518.53     22.77
 30.47    497.48     22.30
 30.57    543.00     23.30
 30.67    566.00     23.79
 30.77    585.83     24.20
 30.87    591.36     24.32
 30.97    617.00     24.84
 31.07    604.00     24.58
 31.17    605.00     24.60
 31.27    529.00     23.00
 31.37    530.00     23.02
 31.47    505.58     22.49
 31.57    554.00     23.54
 31.67    540.00     23.24
 31.77    552.00     23.49
 31.87    534.00     23.11
 31.97    553.00     23.52
 32.07    574.00     23.96
 32.17    537.00     23.17
 32.27    515.00     22.69
 32.37    571.49     23.91
 32.47    532.00     23.07
 32.57    552.00     23.49
 32.67    533.62     23.10
 32.77    549.00     23.43
 32.87    574.32     23.96
 32.97    540.00     23.24
 33.07    537.14     23.18
 33.17    516.00     22.72
 33.27    507.94     22.54
 33.37    558.00     23.62
 33.47    546.00     23.37
 33.57    560.79     23.68
 33.67    670.38     25.89
 33.77    732.00     27.06
 33.87    920.00     30.33
 33.97   1015.00     31.86
 34.07   1008.72     31.76
 34.17   1017.00     31.89
 34.27    917.32     30.29
 34.37    790.73     28.12
 34.47    598.00     24.45
 34.57    582.00     24.12
 34.67    568.00     23.83
 34.77    547.15     23.39
 34.87    543.00     23.30
 34.97    537.00     23.17
 35.07    526.73     22.95
 35.17    487.08     22.07
 35.27    535.00     23.13
 35.37    525.00     22.91
 35.47    528.00     22.98
 35.57    477.39     21.85
 35.67    495.00     22.25
 35.77    472.00     21.73
 35.87    489.83     22.13
 35.97    547.00     23.39
 36.07    499.61     22.35
 36.17    545.00     23.35
 36.27    524.00     22.89
 36.37    498.00     22.32
 36.47    476.23     21.82
 36.57    501.00     22.38
 36.67    522.84     22.87
 36.77    535.67     23.14
 36.87    518.00     22.76
 36.97    518.00     22.76
 37.07    513.61     22.66
 37.17    529.00     23.00
 37.27    520.00     22.80
 37.37    485.51     22.03
 37.47    521.68     22.84
 37.57    499.00     22.34
 37.67    485.70     22.04
 37.77    526.00     22.93
 37.87    492.00     22.18
 37.97    490.00     22.14
 38.07    528.00     22.98
 38.17    538.53     23.21
 38.27    523.00     22.87
 38.37    467.00     21.61
 38.47    517.00     22.74
 38.57    471.00     21.70
 38.67    492.00     22.18
 38.77    497.00     22.29
 38.87    485.00     22.02
 38.97    517.00     22.74
 39.07    533.06     23.09
 39.17    463.31     21.52
 39.27    517.29     22.74
 39.37    548.91     23.43
 39.47    464.91     21.56
 39.57    495.71     22.26
 39.67    478.31     21.87
 39.77    467.00     21.61
 39.87    474.00     21.77
 39.97    475.58     21.81
 40.07    528.00     22.98
 40.17    526.00     22.93
 40.27    492.00     22.18
 40.37    524.16     22.89
 40.47    476.62     21.83
 40.57    538.68     23.21
 40.67    507.93     22.54
 40.77    514.37     22.68
 40.87    503.48     22.44
 40.97    497.00     22.29
 41.07    447.00     21.14
 41.17    551.07     23.47
 41.27    492.44     22.19
 41.37    478.00     21.86
 41.47    467.00     21.61
 41.57    474.32     21.78
 41.67    515.66     22.71
 41.77    473.00     21.75
 41.87    498.51     22.33
 41.97    539.56     23.23
 42.07    478.06     21.86
 42.17    500.00     22.36
 42.27    533.00     23.09
 42.37    525.00     22.91
 42.47    552.00     23.49
 42.57    615.78     24.81
 42.67    599.00     24.47
 42.77    602.00     24.54
 42.87    604.00     24.58
 42.97    573.56     23.95
 43.07    520.00     22.80
 43.17    511.00     22.61
 43.27    502.00     22.41
 43.37    579.00     24.06
 43.47    536.00     23.15
 43.57    467.79     21.63
 43.67    553.53     23.53
 43.77    501.00     22.38
 43.87    519.00     22.78
 43.97    505.80     22.49
 44.07    490.00     22.14
 44.17    502.78     22.42
 44.27    544.00     23.32
 44.37    545.00     23.35
 44.47    500.03     22.36
 44.57    553.00     23.52
 44.67    521.00     22.83
 44.77    532.00     23.07
 44.87    492.00     22.18
 44.97    470.00     21.68
 45.07    514.00     22.67
 45.17    531.17     23.05
 45.27    523.00     22.87
 45.37    503.00     22.43
 45.47    515.00     22.69
 45.57    524.00     22.89
 45.67    515.00     22.69
 45.77    481.86     21.95
 45.87    512.00     22.63
 45.97    533.00     23.09
 46.07    545.00     23.35
 46.17    507.00     22.52
 46.27    518.00     22.76
 46.37    502.55     22.42
 46.47    488.53     22.10
 46.57    460.83     21.47
 46.67    518.00     22.76
 46.77    477.00     21.84
 46.87    471.00     21.70
 46.97    505.00     22.47
 47.07    501.00     22.38
 47.17    486.00     22.05
 47.27    530.00     23.02
 47.37    512.00     22.63
 47.47    521.00     22.83
 47.57    554.00     23.54
 47.67    618.20     24.86
 47.77    610.00     24.70
 47.87    558.47     23.63
 47.97    549.88     23.45
 48.07    553.82     23.53
 48.17    543.00     23.30
 48.27    543.00     23.30
 48.37    534.55     23.12
 48.47    555.06     23.56
 48.57    510.00     22.58
 48.67    523.80     22.89
 48.77    519.00     22.78
 48.87    546.00     23.37
 48.97    588.45     24.26
 49.07    563.00     23.73
 49.17    591.00     24.31
 49.27    637.00     25.24
 49.37    649.00     25.48
 49.47    743.00     27.26
 49.57    827.00     28.76
 49.67    886.00     29.77
 49.77   1117.49     33.43
 49.87   1461.00     38.22
 49.97   1830.00     42.78
 50.07   2174.72     46.63
 50.17   2465.00     49.65
 50.27   2406.00     49.05
 50.37   2333.00     48.30
 50.47   1869.59     43.24
 50.57   1512.68     38.89
 50.67   1082.00     32.89
 50.77    866.00     29.43
 50.87    692.00     26.31
 50.97    631.00     25.12
 51.07    667.98     25.85
 51.17    579.00     24.06
 51.27    615.22     24.80
 51.37    608.00     24.66
 51.47    582.31     24.13
 51.57    598.00     24.45
 51.67    594.05     24.37
 51.77    578.00     24.04
 51.87    576.00     24.00
 51.97    563.00     23.73
 52.07    526.00     22.93
 52.17    533.00     23.09
 52.27    520.92     22.82
 52.37    506.80     22.51
 52.47    590.20     24.29
 52.57    597.00     24.43
 52.67    559.64     23.66
 52.77    587.49     24.24
 52.87    648.87     25.47
 52.97    733.45     27.08
 53.07    731.06     27.04
 53.17    977.00     31.26
 53.27   1047.00     32.36
 53.37   1212.48     34.82
 53.47   1156.11     34.00
 53.57   1213.66     34.84
 53.67   1095.00     33.09
 53.77   1027.89     32.06
 53.87    825.00     28.72
 53.97    784.55     28.01
 54.07    685.47     26.18
 54.17    594.00     24.37
 54.27    546.00     23.37
 54.37    639.00     25.28
 54.47    584.00     24.17
 54.57    588.02     24.25
 54.67    584.34     24.17
 54.77    536.00     23.15
 54.87    580.00     24.08
 54.97    566.00     23.79
 55.07    602.00     24.54
 55.17    548.39     23.42
 55.27    571.00     23.90
 55.37    551.00     23.47
 55.47    519.00     22.78
 55.57    587.88     24.25
 55.67    582.00     24.12
 55.77    603.13     24.56
 55.87    559.00     23.64
 55.97    626.00     25.02
 56.07    703.24     26.52
 56.17    712.00     26.68
 56.27    880.00     29.66
 56.37   1192.00     34.53
 56.47   1331.00     36.48
 56.57   1777.00     42.15
 56.67   2137.00     46.23
 56.77   2423.84     49.23
 56.87   2680.09     51.77
 56.97   2632.00     51.30
 57.07   2280.81     47.76
 57.17   1950.23     44.16
 57.27   1700.00     41.23
 57.37   1273.23     35.68
 57.47   1071.00     32.73
 57.57    904.00     30.07
 57.67    748.08     27.35
 57.77    741.00     27.22
 57.87    688.49     26.24
 57.97    646.00     25.42
 58.07    727.23     26.97
 58.17    736.15     27.13
 58.27    785.00     28.02
 58.37    843.00     29.03
 58.47    987.88     31.43
 58.57   1169.31     34.20
 58.67   1316.42     36.28
 58.77   1402.41     37.45
 58.87   1550.00     39.37
 58.97   1576.00     39.70
 59.07   1597.00     39.96
 59.17   1564.00     39.55
 59.27   1517.00     38.95
 59.37   1435.00     37.88
 59.47   1252.00     35.38
 59.57   1211.00     34.80
 59.67   1119.21     33.45
 59.77   1078.13     32.83
 59.87   1195.00     34.57
 59.97   1331.00     36.48
 60.07   1386.00     37.23
 60.17   1600.00     40.00
 60.27   1603.00     40.04
 60.37   1579.00     39.74
 60.47   1442.61     37.98
 60.57   1180.31     34.36
 60.67   1131.00     33.63
 60.77    929.00     30.48
 60.87    766.56     27.69
 60.97    726.85     26.96
 61.07    703.00     26.51
 61.17    626.32     25.03
 61.27    655.00     25.59
 61.37    660.00     25.69
 61.47    650.00     25.50
 61.57    779.00     27.91
 61.67    821.31     28.66
 61.77    968.00     31.11
 61.87   1054.47     32.47
 61.97   1172.00     34.23
 62.07   1427.31     37.78
 62.17   1390.00     37.28
 62.27   1386.55     37.24
 62.37   1273.49     35.69
 62.47   1194.00     34.55
 62.57   1021.00     31.95
 62.67    955.42     30.91
 62.77    734.02     27.09
 62.87    667.46     25.84
 62.97    652.15     25.54
 63.07    601.00     24.52
 63.17    590.00     24.29
 63.27    575.00     23.98
 63.37    614.00     24.78
 63.47    587.00     24.23
 63.57    559.00     23.64
 63.67    581.00     24.10
 63.77    636.67     25.23
 63.87    577.00     24.02
 63.97    620.00     24.90
 64.07    686.00     26.19
 64.17    757.00     27.51
 64.27    795.00     28.20
 64.37    947.00     30.77
 64.47    952.13     30.86
 64.57   1028.00     32.06
 64.67   1013.00     31.83
 64.77    955.00     30.90
 64.87   1003.00     31.67
 64.97    947.00     30.77
 65.07    900.63     30.01
 65.17    770.00     27.75
 65.27    767.00     27.69
 65.37    649.00     25.48
 65.47    608.00     24.66
 65.57    605.00     24.60
 65.67    575.00     23.98
 65.77    576.00     24.00
 65.87    583.00     24.15
 65.97    598.00     24.45
 66.07    541.00     23.26
 66.17    570.00     23.87
 66.27    550.59     23.46
 66.37    551.00     23.47
 66.47    593.00     24.35
 66.57    570.00     23.87
 66.67    529.11     23.00
 66.77    577.92     24.04
 66.87    557.00     23.60
 66.97    622.00     24.94
 67.07    633.00     25.16
 67.17    671.00     25.90
 67.27    730.00     27.02
 67.37    845.00     29.07
 67.47   1046.00     32.34
 67.57   1213.43     34.83
 67.67   1481.00     38.48
 67.77   1776.00     42.14
 67.87   2073.00     45.53
 67.97   2371.00     48.69
 68.07   2410.39     49.10
 68.17   2395.00     48.94
 68.27   2399.00     48.98
 68.37   2118.00     46.02
 68.47   1897.00     43.55
 68.57   1604.00     40.05
 68.67   1271.00     35.65
 68.77   1035.00     32.17
 68.87    914.91     30.25
 68.97    735.40     27.12
 69.07    694.00     26.34
 69.17    664.61     25.78
 69.27    648.42     25.46
 69.37    554.29     23.54
 69.47    617.00     24.84
 69.57    587.00     24.23
 69.67    550.00     23.45
 69.77    568.00     23.83
 69.87    552.00     23.49
 69.97    550.15     23.46
 70.07    586.78     24.22
 70.17    559.97     23.66
 70.27    538.05     23.20
 70.37    573.00     23.94
 70.47    544.00     23.32
 70.57    573.91     23.96
 70.67    546.59     23.38
 70.77    560.76     23.68
 70.87    608.00     24.66
 70.97    598.98     24.47
 71.07    635.00     25.20
 71.17    759.38     27.56
 71.27    802.00     28.32
 71.37    888.00     29.80
 71.47   1067.32     32.67
 71.57   1230.14     35.07
 71.67   1416.00     37.63
 71.77   1672.40     40.90
 71.87   1788.00     42.28
 71.97   1891.00     43.49
 72.07   1839.34     42.89
 72.17   1865.00     43.19
 72.27   1732.00     41.62
 72.37   1619.51     40.24
 72.47   1530.00     39.12
 72.57   1303.26     36.10
 72.67   1163.60     34.11
 72.77   1084.00     32.92
 72.87   1051.39     32.43
 72.97    912.13     30.20
 73.07    803.00     28.34
 73.17    754.00     27.46
 73.27    814.70     28.54
 73.37    747.65     27.34
 73.47    672.15     25.93
 73.57    613.00     24.76
 73.67    574.00     23.96
 73.77    608.00     24.66
 73.87    593.00     24.35
 73.97    625.03     25.00
 74.07    636.00     25.22
 74.17    584.00     24.17
 74.27    589.00     24.27
 74.37    572.00     23.92
 74.47    630.00     25.10
 74.57    643.00     25.36
 74.67    604.24     24.58
 74.77    567.57     23.82
 74.87    535.49     23.14
 74.97    611.00     24.72
 75.07    615.00     24.80
 75.17    587.00     24.23
 75.27    579.00     24.06
 75.37    515.00     22.69
 75.47    564.00     23.75
 75.57    517.00     22.74
 75.67    522.25     22.85
 75.77    556.00     23.58
 75.87    613.63     24.77
 75.97    654.76     25.59
 76.07    619.00     24.88
 76.17    674.00     25.96
 76.27    709.31     26.63
 76.37    721.00     26.85
 76.47    735.00     27.11
 76.57    736.59     27.14
 76.67    714.00     26.72
 76.77    654.00     25.57
 76.87    601.00     24.52
 76.97    692.27     26.31
 77.07    578.88     24.06
 77.17    582.00     24.12
 77.27    533.00     23.09
 77.37    552.00     23.49
 77.47    591.66     24.32
 77.57    581.00     24.10
 77.67    494.90     22.25
 77.77    523.00     22.87
 77.87    495.00     22.25
 77.97    549.86     23.45
 78.07    566.00     23.79
 78.17    572.71     23.93
 78.27    531.00     23.04
 78.37    482.00     21.95
 78.47    487.00     22.07
 78.57    506.17     22.50
 78.67    544.00     23.32
 78.77    540.00     23.24
 78.87    528.00     22.98
 78.97    508.00     22.54
 79.07    557.00     23.60
 79.17    534.00     23.11
 79.27    553.00     23.52
 79.37    520.00     22.80
 79.47    544.00     23.32
 79.57    551.62     23.49
 79.67    507.00     22.52
 79.77    521.32     22.83
 79.87    538.00     23.19
 79.97    536.00     23.15
 80.07    571.00     23.90
 80.17    567.77     23.83
 80.27    563.54     23.74
 80.37    558.00     23.62
 80.47    587.00     24.23
 80.57    571.04     23.90
 80.67    628.00     25.06
 80.77    675.58     25.99
 80.87    654.94     25.59
 80.97    725.00     26.93
 81.07    704.00     26.53
 81.17    767.00     27.69
 81.27    703.40     26.52
 81.37    748.00     27.35
 81.47    776.00     27.86
 81.57    717.00     26.78
 81.67    803.00     28.34
 81.77    685.15     26.18
 81.87    685.00     26.17
 81.97    711.00     26.66
 82.07    694.00     26.34
 82.17    670.05     25.89
 82.27    622.00     24.94
 82.37    602.00     24.54
 82.47    621.00     24.92
 82.57    636.93     25.24
 82.67    570.00     23.87
 82.77    529.00     23.00
 82.87    552.00     23.49
 82.97    591.00     24.31
 83.07    504.00     22.45
 83.17    567.80     23.83
 83.27    534.00     23.11
 83.37    507.24     22.52
 83.47    579.00     24.06
 83.57    529.27     23.01
 83.67    591.42     24.32
 83.77    596.01     24.41
 83.87    592.00     24.33
 83.97    557.00     23.60
 84.07    615.38     24.81
 84.17    611.00     24.72
 84.27    590.00     24.29
 84.37    592.00     24.33
 84.47    543.78     23.32
 84.57    599.00     24.47
 84.67    514.65     22.69
 84.77    522.00     22.85
 84.87    560.00     23.66
 84.97    544.86     23.34
 85.07    540.00     23.24
 85.17    507.00     22.52
 85.27    553.21     23.52
 85.37    529.00     23.00
 85.47    491.85     22.18
 85.57    546.62     23.38
 85.67    568.00     23.83
 85.77    512.07     22.63
 85.87    502.00     22.41
 85.97    533.48     23.10
 86.07    537.00     23.17
 86.17    537.57     23.19
 86.27    529.00     23.00
 86.37    555.00     23.56
 86.47    550.00     23.45
 86.57    570.00     23.87
 86.67    550.00     23.45
 86.77    570.40     23.88
 86.87    574.00     23.96
 86.97    574.00     23.96
 87.07    653.00     25.55
 87.17    646.00     25.42
 87.27    679.00     26.06
 87.37    685.00     26.17
 87.47    652.00     25.53
 87.57    656.00     25.61
 87.67    646.72     25.43
 87.77    653.00     25.55
 87.87    649.71     25.49
 87.97    639.09     25.28
 88.07    539.94     23.24
 88.17    595.00     24.39
 88.27    602.00     24.54
 88.37    579.00     24.06
 88.47    582.00     24.12
 88.57    569.00     23.85
 88.67    526.00     22.93
 88.77    630.00     25.10
 88.87    565.98     23.79
 88.97    616.00     24.82
 89.07    635.00     25.20
 89.17    629.83     25.10
 89.27    601.00     24.52
 89.37    552.92     23.51
 89.47    595.00     24.39
 89.57    626.00     25.02
 89.67    584.00     24.17
 89.77    528.00     22.98
 89.87    574.82     23.98
 89.97    555.00     23.56
 90.07    554.56     23.55
 90.17    551.00     23.47
 90.27    536.00     23.15
 90.37    513.00     22.65
 90.47    532.00     23.07
 90.57    524.00     22.89
 90.67    532.00     23.07
 90.77    516.69     22.73
 90.87    495.11     22.25
 90.97    558.00     23.62
 91.07    538.73     23.21
 91.17    552.68     23.51
 91.27    547.54     23.40
 91.37    572.00     23.92
 91.47    551.00     23.47
 91.57    494.54     22.24
 91.67    533.00     23.09
 91.77    527.00     22.96
 91.87    533.00     23.09
 91.97    540.22     23.24
 92.07    569.00     23.85
 92.17    588.64     24.26
 92.27    596.00     24.41
 92.37    559.30     23.65
 92.47    563.00     23.73
 92.57    617.82     24.86
 92.67    588.00     24.25
 92.77    670.00     25.88
 92.87    724.00     26.91
 92.97    749.00     27.37
 93.07    731.00     27.04
 93.17    791.00     28.12
 93.27    791.00     28.12
 93.37    773.00     27.80
 93.47    864.00     29.39
 93.57    847.98     29.12
 93.67    832.00     28.84
 93.77    820.73     28.65
 93.87    901.00     30.02
 93.97    910.00     30.17
 94.07    809.71     28.46
 94.17    899.00     29.98
 94.27    852.33     29.19
 94.37    865.00     29.41
 94.47    845.08     29.07
 94.57    899.00     29.98
 94.67    896.24     29.94
 94.77    898.75     29.98
 94.87    848.43     29.13
 94.97    857.00     29.27
 95.07    886.00     29.77
 95.17    841.00     29.00
 95.27    837.00     28.93
 95.37    797.41     28.24
 95.47    803.00     28.34
 95.57    780.52     27.94
 95.67    683.75     26.15
 95.77    727.00     26.96
 95.87    719.00     26.81
 95.97    691.71     26.30
 96.07    668.00     25.85
 96.17    643.42     25.37
 96.27    690.00     26.27
 96.37    763.00     27.62
 96.47    771.61     27.78
 96.57    812.39     28.50
 96.67    901.00     30.02
 96.77    977.00     31.26
 96.87   1034.00     32.16
 96.97   1081.00     32.88
 97.07   1247.00     35.31
 97.17   1203.00     34.68
 97.27   1339.86     36.60
 97.37   1446.33     38.03
 97.47   1420.00     37.68
 97.57   1461.00     38.22
 97.67   1410.00     37.55
 97.77   1412.00     37.58
 97.87   1412.00     37.58
 97.97   1223.96     34.99
 98.07   1225.00     35.00
 98.17   1104.46     33.23
 98.27   1070.00     32.71
 98.37   1021.22     31.96
 98.47   1001.03     31.64
 98.57    946.13     30.76
 98.67    838.00     28.95
 98.77    840.00     28.98
 98.87    845.31     29.07
 98.97    784.00     28.00
 99.07    813.78     28.53
 99.17    876.40     29.60
 99.27    832.68     28.86
 99.37    949.00     30.81
 99.47   1049.20     32.39
 99.57   1070.00     32.71
 99.67   1155.00     33.99
 99.77   1216.53     34.88
 99.87   1460.83     38.22
 99.97   1508.00     38.83
100.07   1682.00     41.01
100.17   1713.00     41.39
100.27   1804.00     42.47
100.37   1965.00     44.33
100.47   2037.00     45.13
100.57   2087.29     45.69
100.67   2036.35     45.13
100.77   2065.00     45.44
100.87   2054.63     45.33
100.97   2092.00     45.74
101.07   1992.00     44.63
101.17   2027.00     45.02
101.27   1788.00     42.28
101.37   1740.00     41.71
101.47   1692.23     41.14
101.57   1462.98     38.25
101.67   1455.00     38.14
101.77   1414.87     37.61
101.87   1332.33     36.50
101.97   1233.00     35.11
102.07   1184.82     34.42
102.17   1198.00     34.61
102.27   1128.49     33.59
102.37   1078.99     32.85
102.47   1156.00     34.00
102.57   1141.34     33.78
102.67   1083.00     32.91
102.77    996.00     31.56
102.87   1005.00     31.70
102.97    975.00     31.22
103.07    874.16     29.57
103.17    865.54     29.42
103.27    827.32     28.76
103.37    830.51     28.82
103.47    790.92     28.12
103.57    764.00     27.64
103.67    708.88     26.62
103.77    632.19     25.14
103.87    612.00     24.74
103.97    618.00     24.86
104.07    613.00     24.76
104.17    598.00     24.45
104.27    568.16     23.84
104.37    530.00     23.02
104.47    564.00     23.75
104.57    517.00     22.74
104.67    516.00     22.72
104.77    556.00     23.58
104.87    594.00     24.37
104.97    534.84     23.13
105.07    541.00     23.26
105.17    546.00     23.37
105.27    563.00     23.73
105.37    501.56     22.40
105.47    546.00     23.37
105.57    541.00     23.26
105.67    539.00     23.22
105.77    559.00     23.64
105.87    592.00     24.33
105.97    587.00     24.23
106.07    555.00     23.56
106.17    599.00     24.47
106.27    549.00     23.43
106.37    631.99     25.14
106.47    607.00     24.64
106.57    593.00     24.35
106.67    625.00     25.00
106.77    654.00     25.57
106.87    629.00     25.08
106.97    646.00     25.42
107.07    661.79     25.73
107.17    686.00     26.19
107.27    665.28     25.79
107.37    752.22     27.43
107.47    666.72     25.82
107.57    690.00     26.27
107.67    715.00     26.74
107.77    701.03     26.48
107.87    648.00     25.46
107.97    729.32     27.01
108.07    686.91     26.21
108.17    691.12     26.29
108.27    657.00     25.63
108.37    654.00     25.57
108.47    662.00     25.73
108.57    701.00     26.48
108.67    639.00     25.28
108.77    726.40     26.95
108.87    708.14     26.61
108.97    655.53     25.60
109.07    620.00     24.90
109.17    669.00     25.87
109.27    644.95     25.40
109.37    665.62     25.80
109.47    592.16     24.33
109.57    634.00     25.18
109.67    604.00     24.58
109.77    595.00     24.39
109.87    565.46     23.78
109.97    546.56     23.38
110.07    574.13     23.96
110.17    574.00     23.96
110.27    559.00     23.64
110.37    550.62     23.47
110.47    587.00     24.23
110.57    553.00     23.52
110.67    498.86     22.34
110.77    518.00     22.76
110.87    558.85     23.64
110.97    484.88     22.02
111.07    546.00     23.37
111.17    561.32     23.69
111.27    500.74     22.38
111.37    544.00     23.32
111.47    556.09     23.58
111.57    542.59     23.29
111.67    537.00     23.17
111.77    537.23     23.18
111.87    556.00     23.58
111.97    538.76     23.21
112.07    547.90     23.41
112.17    581.78     24.12
112.27    542.00     23.28
112.37    586.98     24.23
112.47    607.00     24.64
112.57    573.00     23.94
112.67    586.00     24.21
112.77    633.00     25.16
112.87    726.00     26.94
112.97    669.00     25.87
113.07    687.30     26.22
113.17    752.11     27.42
113.27    729.00     27.00
113.37    752.43     27.43
113.47    797.00     28.23
113.57    808.00     28.43
113.67    942.00     30.69
113.77    923.00     30.38
113.87    962.00     31.02
113.97   1041.00     32.26
114.07   1081.12     32.88
114.17   1158.00     34.03
114.27   1127.53     33.58
114.37   1220.24     34.93
114.47   1340.00     36.61
114.57   1453.86     38.13
114.67   1552.00     39.40
114.77   1664.63     40.80
114.87   1916.00     43.77
114.97   2182.00     46.71
115.07   2277.00     47.72
115.17   2460.90     49.61
115.27   2840.00     53.29
115.37   2977.00     54.56
115.47   3346.23     57.85
115.57   3828.00     61.87
115.67   4196.78     64.78
115.77   4361.00     66.04
115.87   4814.95     69.39
115.97   5138.00     71.68
116.07   5567.00     74.61
116.17   6099.18     78.10
116.27   6177.63     78.60
116.37   6590.00     81.18
116.47   6655.00     81.58
116.57   6795.55     82.44
116.67   7100.00     84.26
116.77   6976.00     83.52
116.87   6952.00     83.38
116.97   6639.00     81.48
117.07   6504.00     80.65
117.17   6149.00     78.42
117.27   5519.00     74.29
117.37   5302.31     72.82
117.47   5167.06     71.88
117.57   4717.00     68.68
117.67   4320.00     65.73
117.77   3983.00     63.11
117.87   3451.02     58.75
117.97   3178.94     56.38
118.07   2696.96     51.93
118.17   2457.92     49.58
118.27   2288.25     47.84
118.37   1980.00     44.50
118.47   1752.60     41.86
118.57   1640.00     40.50
118.67   1373.00     37.05
118.77   1196.25     34.59
118.87   1178.00     34.32
118.97   1047.00     32.36
119.07    929.00     30.48
119.17    928.81     30.48
119.27    778.00     27.89
119.37    786.41     28.04
119.47    693.00     26.32
119.57    686.03     26.19
119.67    634.30     25.19
119.77    699.27     26.44
119.87    651.00     25.51
119.97    586.00     24.21
120.07    585.00     24.19
120.17    566.00     23.79
120.27    564.00     23.75
120.37    553.19     23.52
120.47    545.78     23.36
120.57    545.00     23.35
120.67    592.00     24.33
120.77    589.91     24.29
120.87    568.00     23.83
120.97    547.00     23.39
121.07    575.00     23.98
121.17    605.73     24.61
121.27    533.00     23.09
121.37    577.00     24.02
121.47    579.72     24.08
121.57    599.00     24.47
121.67    585.00     24.19
121.77    593.00     24.35
121.87    594.00     24.37
121.97    553.71     23.53
122.07    610.00     24.70
122.17    619.00     24.88
122.27    606.00     24.62
122.37    617.00     24.84
122.47    624.00     24.98
122.57    660.00     25.69
122.67    593.00     24.35
122.77    658.00     25.65
122.87    654.00     25.57
122.97    660.00     25.69
123.07    633.00     25.16
123.17    668.00     25.85
123.27    607.12     24.64
123.37    687.32     26.22
123.47    655.00     25.59
123.57    608.00     24.66
123.67    633.20     25.16
123.77    632.00     25.14
123.87    602.00     24.54
123.97    614.00     24.78
124.07    569.41     23.86
124.17    615.00     24.80
124.27    608.31     24.66
124.37    640.00     25.30
124.47    669.00     25.87
124.57    599.80     24.49
124.67    553.39     23.52
124.77    569.31     23.86
124.87    582.48     24.13
124.97    597.00     24.43
