XYDATA



INTER 1.0 1.0 0 0
TEMP 1074.0
  9.97    581.00     24.10
 10.07    619.00     24.88
 10.17    547.00     23.39
 10.27    608.00     24.66
 10.37    594.28     24.38
 10.47    577.00     24.02
 10.57    557.29     23.61
 10.67    570.00     23.87
 10.77    550.82     23.47
 10.87    592.91     24.35
 10.97    595.00     24.39
 11.07    608.00     24.66
 11.17    576.00     24.00
 11.27    578.00     24.04
 11.37    599.00     24.47
 11.47    610.00     24.70
 11.57    619.00     24.88
 11.67    633.00     25.16
 11.77    592.00     24.33
 11.87    647.89     25.45
 11.97    641.87     25.34
 12.07    653.71     25.57
 12.17    680.00     26.08
 12.27    669.98     25.88
 12.37    639.00     25.28
 12.47    634.00     25.18
 12.57    602.00     24.54
 12.67    557.00     23.60
 12.77    593.00     24.35
 12.87    559.00     23.64
 12.97    544.64     23.34
 13.07    543.50     23.31
 13.17    550.00     23.45
 13.27    517.00     22.74
 13.37    566.00     23.79
 13.47    561.00     23.69
 13.57    559.00     23.64
 13.67    569.00     23.85
 13.77    603.37     24.56
 13.87    546.00     23.37
 13.97    613.00     24.76
 14.07    551.00     23.47
 14.17    588.00     24.25
 14.27    593.24     24.36
 14.37    547.00     23.39
 14.47    590.06     24.29
 14.57    609.54     24.69
 14.67    609.00     24.68
 14.77    589.03     24.27
 14.87    524.63     22.90
 14.97    595.15     24.40
 15.07    580.95     24.10
 15.17    505.00     22.47
 15.27    606.79     24.63
 15.37    595.00     24.39
 15.47    576.00     24.00
 15.57    572.00     23.92
 15.67    544.00     23.32
 15.77    550.00     23.45
 15.87    603.00     24.56
 15.97    583.00     24.15
 16.07    543.37     23.31
 16.17    553.00     23.52
 16.27    613.42     24.77
 16.37    555.00     23.56
 16.47    572.00     23.92
 16.57    529.74     23.02
 16.67    558.00     23.62
 16.77    561.52     23.70
 16.87    584.73     24.18
 16.97    554.00     23.54
 17.07    538.85     23.21
 17.17    588.00     24.25
 17.27    582.00     24.12
 17.37    556.00     23.58
 17.47    573.00     23.94
 17.57    582.00     24.12
 17.67    607.31     24.64
 17.77    554.00     23.54
 17.87    610.19     24.70
 17.97    535.84     23.15
 18.07    537.36     23.18
 18.17    541.00     23.26
 18.27    556.05     23.58
 18.37    600.24     24.50
 18.47    548.00     23.41
 18.57    604.25     24.58
 18.67    585.00     24.19
 18.77    538.00     23.19
 18.87    579.00     24.06
 18.97    554.00     23.54
 19.07    497.00     22.29
 19.17    561.00     23.69
 19.27    550.00     23.45
 19.37    525.00     22.91
 19.47    584.31     24.17
 19.57    558.00     23.62
 19.67    577.00     24.02
 19.77    526.71     22.95
 19.87    555.21     23.56
 19.97    570.00     23.87
 20.07    547.00     23.39
 20.17    535.00     23.13
 20.27    563.00     23.73
 20.37    591.00     24.31
 20.47    598.00     24.45
 20.57    542.00     23.28
 20.67    554.24     23.54
 20.77    528.65     22.99
 20.87    595.00     24.39
 20.97    541.61     23.27
 21.07    551.00     23.47
 21.17    549.00     23.43
 21.27    555.00     23.56
 21.37    617.00     24.84
 21.47    577.00     24.02
 21.57    570.00     23.87
 21.67    555.00     23.56
 21.77    599.00     24.47
 21.87    518.24     22.76
 21.97    581.50     24.11
 22.07    520.00     22.80
 22.17    569.00     23.85
 22.27    540.62     23.25
 22.37    550.00     23.45
 22.47    533.00     23.09
 22.57    555.00     23.56
 22.67    544.00     23.32
 22.77    572.00     23.92
 22.87    550.00     23.45
 22.97    545.00     23.35
 23.07    573.65     23.95
 23.17    610.00     24.70
 23.27    533.00     23.09
 23.37    563.55     23.74
 23.47    575.03     23.98
 23.57    552.00     23.49
 23.67    530.00     23.02
 23.77    546.00     23.37
 23.87    511.98     22.63
 23.97    487.00     22.07
 24.07    525.79     22.93
 24.17    588.00     24.25
 24.27    566.00     23.79
 24.37    593.00     24.35
 24.47    587.00     24.23
 24.57    562.00     23.71
 24.67    627.84     25.06
 24.77    638.00     25.26
 24.87    604.00     24.58
 24.97    650.74     25.51
 25.07    594.00     24.37
 25.17    511.00     22.61
 25.27    549.00     23.43
 25.37    535.12     23.13
 25.47    560.00     23.66
 25.57    509.00     22.56
 25.67    579.79     24.08
 25.77    594.00     24.37
 25.87    547.00     23.39
 25.97    571.00     23.90
 26.07    566.00     23.79
 26.17    588.89     24.27
 26.27    564.00     23.75
 26.37    504.94     22.47
 26.47    582.00     24.12
 26.57    554.93     23.56
 26.67    577.58     24.03
 26.77    536.00     23.15
 26.87    535.98     23.15
 26.97    562.00     23.71
 27.07    580.00     24.08
 27.17    560.00     23.66
 27.27    537.00     23.17
 27.37    567.00     23.81
 27.47    565.00     23.77
 27.57    525.00     22.91
 27.67    536.00     23.15
 27.77    543.77     23.32
 27.87    601.00     24.52
 27.97    679.00     26.06
 28.07    772.00     27.78
 28.17    838.28     28.95
 28.27    912.85     30.21
 28.37    826.00     28.74
 28.47    779.00     27.91
 28.57    742.90     27.26
 28.67    709.00     26.63
 28.77    715.67     26.75
 28.87    757.00     27.51
 28.97    877.13     29.62
 29.07    776.00     27.86
 29.17    744.27     27.28
 29.27    650.00     25.50
 29.37    596.00     24.41
 29.47    551.00     23.47
 29.57    573.00     23.94
 29.67    605.54     24.61
 29.77    530.84     23.04
 29.87    520.00     22.80
 29.97    583.00     24.15
 30.07    587.00     24.23
 30.17    576.00     24.00
 30.27    515.24     22.70
 30.37    585.00     24.19
 30.47    532.94     23.09
 30.57    535.69     23.15
 30.67    567.00     23.81
 30.77    588.01     24.25
 30.87    612.00     24.74
 30.97    649.00     25.48
 31.07    589.00     24.27
 31.17    624.49     24.99
 31.27    566.00     23.79
 31.37    551.00     23.47
 31.47    527.00     22.96
 31.57    517.00     22.74
 31.67    529.00     23.00
 31.77    574.00     23.96
 31.87    543.00     23.30
 31.97    544.00     23.32
 32.07    512.00     22.63
 32.17    527.00     22.96
 32.27    587.00     24.23
 32.37    555.00     23.56
 32.47    565.01     23.77
 32.57    504.91     22.47
 32.67    535.00     23.13
 32.77    574.00     23.96
 32.87    536.00     23.15
 32.97    524.00     22.89
 33.07    564.20     23.75
 33.17    576.00     24.00
 33.27    518.00     22.76
 33.37    551.72     23.49
 33.47    531.26     23.05
 33.57    570.00     23.87
 33.67    633.00     25.16
 33.77    688.57     26.24
 33.87    875.00     29.58
 33.97    992.84     31.51
 34.07   1021.06     31.95
 34.17    974.00     31.21
 34.27    842.00     29.02
 34.37    708.00     26.61
 34.47    626.88     25.04
 34.57    595.00     24.39
 34.67    532.68     23.08
 34.77    547.00     23.39
 34.87    565.00     23.77
 34.97    513.00     22.65
 35.07    524.00     22.89
 35.17    509.04     22.56
 35.27    515.00     22.69
 35.37    523.00     22.87
 35.47    512.00     22.63
 35.57    542.01     23.28
 35.67    539.00     23.22
 35.77    516.00     22.72
 35.87    477.52     21.85
 35.97    514.00     22.67
 36.07    536.72     23.17
 36.17    526.00     22.93
 36.27    508.29     22.55
 36.37    514.00     22.67
 36.47    535.86     23.15
 36.57    497.89     22.31
 36.67    503.00     22.43
 36.77    490.00     22.14
 36.87    505.00     22.47
 36.97    526.89     22.95
 37.07    566.00     23.79
 37.17    539.00     23.22
 37.27    563.74     23.74
 37.37    520.00     22.80
 37.47    476.76     21.83
 37.57    487.00     22.07
 37.67    514.95     22.69
 37.77    527.00     22.96
 37.87    536.00     23.15
 37.97    537.37     23.18
 38.07    578.00     24.04
 38.17    514.00     22.67
 38.27    549.00     23.43
 38.37    549.69     23.45
 38.47    518.00     22.76
 38.57    525.00     22.91
 38.67    515.00     22.69
 38.77    473.00     21.75
 38.87    476.10     21.82
 38.97    535.00     23.13
 39.07    492.00     22.18
 39.17    549.00     23.43
 39.27    499.00     22.34
 39.37    467.71     21.63
 39.47    504.00     22.45
 39.57    532.93     23.09
 39.67    532.87     23.08
 39.77    537.03     23.17
 39.87    488.00     22.09
 39.97    517.00     22.74
 40.07    506.00     22.49
 40.17    531.00     23.04
 40.27    522.57     22.86
 40.37    497.00     22.29
 40.47    531.00     23.04
 40.57    547.96     23.41
 40.67    523.13     22.87
 40.77    533.00     23.09
 40.87    492.00     22.18
 40.97    473.00     21.75
 41.07    539.70     23.23
 41.17    471.95     21.72
 41.27    475.00     21.79
 41.37    509.00     22.56
 41.47    472.72     21.74
 41.57    469.00     21.66
 41.67    469.00     21.66
 41.77    500.00     22.36
 41.87    541.12     23.26
 41.97    543.91     23.32
 42.07    470.15     21.68
 42.17    533.00     23.09
 42.27    534.00     23.11
 42.37    591.14     24.31
 42.47    547.00     23.39
 42.57    569.43     23.86
 42.67    557.00     23.60
 42.77    630.26     25.11
 42.87    579.00     24.06
 42.97    586.07     24.21
 43.07    555.00     23.56
 43.17    548.00     23.41
 43.27    561.00     23.69
 43.37    534.12     23.11
 43.47    533.14     23.09
 43.57    487.00     22.07
 43.67    519.00     22.78
 43.77    481.00     21.93
 43.87    473.00     21.75
 43.97    478.00     21.86
 44.07    523.81     22.89
 44.17    530.04     23.02
 44.27    511.00     22.61
 44.37    466.00     21.59
 44.47    511.00     22.61
 44.57    522.00     22.85
 44.67    470.00     21.68
 44.77    525.60     22.93
 44.87    473.00     21.75
 44.97    521.00     22.83
 45.07    490.00     22.14
 45.17    503.00     22.43
 45.27    465.80     21.58
 45.37    469.05     21.66
 45.47    500.00     22.36
 45.57    529.77     23.02
 45.67    537.00     23.17
 45.77    499.00     22.34
 45.87    474.50     21.78
 45.97    547.63     23.40
 46.07    491.00     22.16
 46.17    559.00     23.64
 46.27    480.53     21.92
 46.37    519.00     22.78
 46.47    485.00     22.02
 46.57    510.00     22.58
 46.67    545.00     23.35
 46.77    500.00     22.36
 46.87    491.00     22.16
 46.97    481.00     21.93
 47.07    498.18     22.32
 47.17    525.00     22.91
 47.27    584.00     24.17
 47.37    524.00     22.89
 47.47    523.00     22.87
 47.57    537.00     23.17
 47.67    626.00     25.02
 47.77    584.28     24.17
 47.87    553.97     23.54
 47.97    609.14     24.68
 48.07    608.77     24.67
 48.17    548.32     23.42
 48.27    544.00     23.32
 48.37    499.10     22.34
 48.47    563.00     23.73
 48.57    489.95     22.13
 48.67    491.20     22.16
 48.77    501.00     22.38
 48.87    535.00     23.13
 48.97    580.52     24.09
 49.07    527.22     22.96
 49.17    633.57     25.17
 49.27    572.00     23.92
 49.37    617.00     24.84
 49.47    641.09     25.32
 49.57    810.00     28.46
 49.67    978.00     31.27
 49.77   1145.09     33.84
 49.87   1417.00     37.64
 49.97   1880.90     43.37
 50.07   2238.74     47.32
 50.17   2436.32     49.36
 50.27   2552.94     50.53
 50.37   2221.40     47.13
 50.47   1831.00     42.79
 50.57   1403.00     37.46
 50.67   1162.76     34.10
 50.77    956.97     30.93
 50.87    786.42     28.04
 50.97    708.00     26.61
 51.07    638.33     25.27
 51.17    641.54     25.33
 51.27    618.00     24.86
 51.37    575.00     23.98
 51.47    579.00     24.06
 51.57    560.00     23.66
 51.67    577.03     24.02
 51.77    555.00     23.56
 51.87    573.00     23.94
 51.97    525.00     22.91
 52.07    547.02     23.39
 52.17    493.00     22.20
 52.27    581.25     24.11
 52.37    578.00     24.04
 52.47    497.93     22.31
 52.57    543.00     23.30
 52.67    535.00     23.13
 52.77    597.39     24.44
 52.87    691.00     26.29
 52.97    704.00     26.53
 53.07    793.00     28.16
 53.17    887.05     29.78
 53.27   1055.63     32.49
 53.37   1084.29     32.93
 53.47   1171.00     34.22
 53.57   1178.23     34.33
 53.67   1124.62     33.54
 53.77   1042.00     32.28
 53.87    844.00     29.05
 53.97    810.51     28.47
 54.07    720.82     26.85
 54.17    583.00     24.15
 54.27    611.50     24.73
 54.37    607.00     24.64
 54.47    558.00     23.62
 54.57    572.00     23.92
 54.67    557.00     23.60
 54.77    555.00     23.56
 54.87    585.00     24.19
 54.97    588.38     24.26
 55.07    507.90     22.54
 55.17    584.00     24.17
 55.27    541.65     23.27
 55.37    571.66     23.91
 55.47    567.00     23.81
 55.57    573.00     23.94
 55.67    594.00     24.37
 55.77    582.10     24.13
 55.87    583.32     24.15
 55.97    649.27     25.48
 56.07    711.00     26.66
 56.17    745.00     27.29
 56.27    886.00     29.77
 56.37   1092.00     33.05
 56.47   1410.46     37.56
 56.57   1767.96     42.05
 56.67   2122.00     46.07
 56.77   2521.40     50.21
 56.87   2730.25     52.25
 56.97   2550.66     50.50
 57.07   2361.00     48.59
 57.17   2155.00     46.42
 57.27   1624.00     40.30
 57.37   1260.00     35.50
 57.47   1051.00     32.42
 57.57    843.00     29.03
 57.67    808.49     28.43
 57.77    676.00     26.00
 57.87    668.86     25.86
 57.97    655.83     25.61
 58.07    705.62     26.56
 58.17    694.00     26.34
 58.27    767.90     27.71
 58.37    858.39     29.30
 58.47    915.17     30.25
 58.57   1073.92     32.77
 58.67   1215.00     34.86
 58.77   1247.00     35.31
 58.87   1441.00     37.96
 58.97   1469.20     38.33
 59.07   1539.78     39.24
 59.17   1482.00     38.50
 59.27   1416.96     37.64
 59.37   1368.00     36.99
 59.47   1233.00     35.11
 59.57   1199.00     34.63
 59.67   1140.00     33.76
 59.77   1209.00     34.77
 59.87   1254.00     35.41
 59.97   1251.00     35.37
 60.07   1436.33     37.90
 60.17   1475.52     38.41
 60.27   1608.00     40.10
 60.37   1516.00     38.94
 60.47   1502.00     38.76
 60.57   1263.57     35.55
 60.67   1095.00     33.09
 60.77    931.00     30.51
 60.87    739.66     27.20
 60.97    714.56     26.73
 61.07    715.00     26.74
 61.17    670.00     25.88
 61.27    623.00     24.96
 61.37    607.00     24.64
 61.47    739.74     27.20
 61.57    771.00     27.77
 61.67    875.00     29.58
 61.77    967.00     31.10
 61.87   1161.20     34.08
 61.97   1243.23     35.26
 62.07   1347.00     36.70
 62.17   1357.00     36.84
 62.27   1482.66     38.51
 62.37   1376.39     37.10
 62.47   1155.00     33.99
 62.57   1084.40     32.93
 62.67    945.00     30.74
 62.77    861.62     29.35
 62.87    701.00     26.48
 62.97    674.00     25.96
 63.07    606.00     24.62
 63.17    601.00     24.52
 63.27    550.43     23.46
 63.37    613.40     24.77
 63.47    576.20     24.00
 63.57    564.00     23.75
 63.67    578.00     24.04
 63.77    607.00     24.64
 63.87    562.00     23.71
 63.97    679.06     26.06
 64.07    697.45     26.41
 64.17    798.00     28.25
 64.27    827.00     28.76
 64.37    903.00     30.05
 64.47   1001.00     31.64
 64.57    981.00     31.32
 64.67   1026.00     32.03
 64.77   1032.00     32.12
 64.87    964.00     31.05
 64.97    915.00     30.25
 65.07    809.00     28.44
 65.17    793.14     28.16
 65.27    716.00     26.76
 65.37    692.55     26.32
 65.47    710.00     26.65
 65.57    610.24     24.70
 65.67    648.00     25.46
 65.77    567.00     23.81
 65.87    548.90     23.43
 65.97    560.32     23.67
 66.07    604.44     24.59
 66.17    568.18     23.84
 66.27    634.00     25.18
 66.37    523.31     22.88
 66.47    595.00     24.39
 66.57    601.93     24.53
 66.67    578.00     24.04
 66.77    571.00     23.90
 66.87    616.63     24.83
 66.97    628.84     25.08
 67.07    686.51     26.20
 67.17    666.00     25.81
 67.27    828.15     28.78
 67.37    889.40     29.82
 67.47   1089.40     33.01
 67.57   1288.00     35.89
 67.67   1566.00     39.57
 67.77   1760.00     41.95
 67.87   2024.00     44.99
 67.97   2195.12     46.85
 68.07   2426.00     49.25
 68.17   2384.00     48.83
 68.27   2298.00     47.94
 68.37   2106.22     45.89
 68.47   1865.00     43.19
 68.57   1528.00     39.09
 68.67   1332.82     36.51
 68.77   1052.00     32.43
 68.87    889.00     29.82
 68.97    804.00     28.35
 69.07    702.00     26.50
 69.17    666.00     25.81
 69.27    658.85     25.67
 69.37    559.00     23.64
 69.47    605.28     24.60
 69.57    596.00     24.41
 69.67    598.00     24.45
 69.77    528.00     22.98
 69.87    595.00     24.39
 69.97    601.00     24.52
 70.07    597.00     24.43
 70.17    594.00     24.37
 70.27    580.00     24.08
 70.37    520.51     22.81
 70.47    581.00     24.10
 70.57    574.00     23.96
 70.67    602.00     24.54
 70.77    622.62     24.95
 70.87    585.77     24.20
 70.97    624.07     24.98
 71.07    627.00     25.04
 71.17    760.00     27.57
 71.27    855.00     29.24
 71.37    955.00     30.90
 71.47   1131.58     33.64
 71.57   1297.01     36.01
 71.67   1487.71     38.57
 71.77   1657.00     40.71
 71.87   1788.00     42.28
 71.97   1939.00     44.03
 72.07   1972.78     44.42
 72.17   1899.00     43.58
 72.27   1784.19     42.24
 72.37   1685.00     41.05
 72.47   1465.00     38.28
 72.57   1307.00     36.15
 72.67   1172.92     34.25
 72.77   1025.00     32.02
 72.87    837.00     28.93
 72.97    877.80     29.63
 73.07    729.00     27.00
 73.17    728.00     26.98
 73.27    686.00     26.19
 73.37    738.14     27.17
 73.47    633.64     25.17
 73.57    616.88     24.84
 73.67    572.00     23.92
 73.77    566.00     23.79
 73.87    586.04     24.21
 73.97    552.00     23.49
 74.07    555.02     23.56
 74.17    605.00     24.60
 74.27    591.00     24.31
 74.37    595.00     24.39
 74.47    640.00     25.30
 74.57    618.00     24.86
 74.67    632.00     25.14
 74.77    645.00     25.40
 74.87    592.00     24.33
 74.97    625.00     25.00
 75.07    520.66     22.82
 75.17    562.68     23.72
 75.27    540.00     23.24
 75.37    503.68     22.44
 75.47    560.00     23.66
 75.57    593.00     24.35
 75.67    588.00     24.25
 75.77    595.70     24.41
 75.87    572.00     23.92
 75.97    613.00     24.76
 76.07    588.13     24.25
 76.17    655.80     25.61
 76.27    654.83     25.59
 76.37    669.00     25.87
 76.47    663.00     25.75
 76.57    698.00     26.42
 76.67    675.47     25.99
 76.77    702.00     26.50
 76.87    627.00     25.04
 76.97    646.00     25.42
 77.07    618.00     24.86
 77.17    599.98     24.49
 77.27    616.09     24.82
 77.37    565.07     23.77
 77.47    565.00     23.77
 77.57    543.00     23.30
 77.67    588.23     24.25
 77.77    494.00     22.23
 77.87    503.00     22.43
 77.97    549.73     23.45
 78.07    531.68     23.06
 78.17    513.00     22.65
 78.27    551.00     23.47
 78.37    494.00     22.23
 78.47    536.00     23.15
 78.57    508.00     22.54
 78.67    534.63     23.12
 78.77    485.51     22.03
 78.87    492.00     22.18
 78.97    543.96     23.32
 79.07    535.00     23.13
 79.17    528.00     22.98
 79.27    494.00     22.23
 79.37    513.00     22.65
 79.47    488.00     22.09
 79.57    485.00     22.02
 79.67    526.00     22.93
 79.77    546.00     23.37
 79.87    518.53     22.77
 79.97    569.00     23.85
 80.07    548.00     23.41
 80.17    567.00     23.81
 80.27    597.00     24.43
 80.37    559.00     23.64
 80.47    569.00     23.85
 80.57    606.00     24.62
 80.67    643.92     25.38
 80.77    635.00     25.20
 80.87    662.00     25.73
 80.97    686.05     26.19
 81.07    672.05     25.92
 81.17    707.64     26.60
 81.27    736.00     27.13
 81.37    774.00     27.82
 81.47    776.00     27.86
 81.57    740.57     27.21
 81.67    739.00     27.18
 81.77    684.88     26.17
 81.87    745.00     27.29
 81.97    686.52     26.20
 82.07    684.17     26.16
 82.17    657.00     25.63
 82.27    646.00     25.42
 82.37    631.95     25.14
 82.47    602.00     24.54
 82.57    639.00     25.28
 82.67    547.00     23.39
 82.77    589.00     24.27
 82.87    575.00     23.98
 82.97    526.78     22.95
 83.07    593.00     24.35
 83.17    539.00     23.22
 83.27    548.00     23.41
 83.37    553.00     23.52
 83.47    549.00     23.43
 83.57    521.00     22.83
 83.67    581.00     24.10
 83.77    553.49     23.53
 83.87    597.55     24.44
 83.97    598.79     24.47
 84.07    576.91     24.02
 84.17    541.36     23.27
 84.27    619.01     24.88
 84.37    531.00     23.04
 84.47    581.00     24.10
 84.57    542.99     23.30
 84.67    566.00     23.79
 84.77    555.00     23.56
 84.87    556.24     23.58
 84.97    529.00     23.00
 85.07    549.00     23.43
 85.17    567.20     23.82
 85.27    516.00     22.72
 85.37    509.00     22.56
 85.47    529.78     23.02
 85.57    515.00     22.69
 85.67    560.00     23.66
 85.77    543.00     23.30
 85.87    559.00     23.64
 85.97    558.92     23.64
 86.07    508.19     22.54
 86.17    534.00     23.11
 86.27    535.53     23.14
 86.37    559.00     23.64
 86.47    514.24     22.68
 86.57    518.30     22.77
 86.67    581.61     24.12
 86.77    582.00     24.12
 86.87    632.92     25.16
 86.97    570.00     23.87
 87.07    561.00     23.69
 87.17    665.00     25.79
 87.27    652.00     25.53
 87.37    669.63     25.88
 87.47    635.00     25.20
 87.57    615.00     24.80
 87.67    653.00     25.55
 87.77    671.00     25.90
 87.87    631.00     25.12
 87.97    618.11     24.86
 88.07    672.00     25.92
 88.17    597.00     24.43
 88.27    542.18     23.28
 88.37    591.61     24.32
 88.47    562.00     23.71
 88.57    551.53     23.48
 88.67    587.00     24.23
 88.77    591.00     24.31
 88.87    565.76     23.79
 88.97    611.96     24.74
 89.07    608.00     24.66
 89.17    569.00     23.85
 89.27    581.00     24.10
 89.37    556.00     23.58
 89.47    603.00     24.56
 89.57    634.79     25.20
 89.67    555.00     23.56
 89.77    568.00     23.83
 89.87    594.09     24.37
 89.97    574.00     23.96
 90.07    509.00     22.56
 90.17    544.00     23.32
 90.27    601.60     24.53
 90.37    537.00     23.17
 90.47    545.00     23.35
 90.57    525.00     22.91
 90.67    528.00     22.98
 90.77    511.94     22.63
 90.87    485.15     22.03
 90.97    529.09     23.00
 91.07    514.00     22.67
 91.17    512.00     22.63
 91.27    569.53     23.86
 91.37    493.00     22.20
 91.47    540.82     23.26
 91.57    561.61     23.70
 91.67    537.26     23.18
 91.77    549.00     23.43
 91.87    527.00     22.96
 91.97    504.00     22.45
 92.07    547.00     23.39
 92.17    548.00     23.41
 92.27    587.00     24.23
 92.37    615.00     24.80
 92.47    655.00     25.59
 92.57    639.00     25.28
 92.67    647.00     25.44
 92.77    695.00     26.36
 92.87    738.00     27.17
 92.97    697.00     26.40
 93.07    772.00     27.78
 93.17    765.00     27.66
 93.27    754.00     27.46
 93.37    732.51     27.06
 93.47    813.00     28.51
 93.57    824.99     28.72
 93.67    767.53     27.70
 93.77    792.93     28.16
 93.87    864.00     29.39
 93.97    866.00     29.43
 94.07    883.00     29.72
 94.17    874.00     29.56
 94.27    796.82     28.23
 94.37    876.00     29.60
 94.47    839.27     28.97
 94.57    925.00     30.41
 94.67    920.00     30.33
 94.77    926.00     30.43
 94.87    906.40     30.11
 94.97    950.00     30.82
 95.07    912.00     30.20
 95.17    858.00     29.29
 95.27    781.23     27.95
 95.37    781.00     27.95
 95.47    805.55     28.38
 95.57    786.00     28.04
 95.67    733.31     27.08
 95.77    698.00     26.42
 95.87    672.00     25.92
 95.97    662.00     25.73
 96.07    740.38     27.21
 96.17    693.38     26.33
 96.27    738.64     27.18
 96.37    754.44     27.47
 96.47    819.77     28.63
 96.57    828.00     28.77
 96.67    892.00     29.87
 96.77    904.00     30.07
 96.87   1082.00     32.89
 96.97   1203.19     34.69
 97.07   1200.00     34.64
 97.17   1339.00     36.59
 97.27   1433.94     37.87
 97.37   1430.47     37.82
 97.47   1447.34     38.04
 97.57   1427.00     37.78
 97.67   1524.00     39.04
 97.77   1390.00     37.28
 97.87   1376.00     37.09
 97.97   1319.00     36.32
 98.07   1218.00     34.90
 98.17   1153.00     33.96
 98.27   1085.00     32.94
 98.37    997.04     31.58
 98.47    955.00     30.90
 98.57    802.00     28.32
 98.67    809.04     28.44
 98.77    787.00     28.05
 98.87    836.29     28.92
 98.97    817.92     28.60
 99.07    880.00     29.66
 99.17    859.00     29.31
 99.27    945.00     30.74
 99.37   1018.00     31.91
 99.47   1022.00     31.97
 99.57   1135.00     33.69
 99.67   1190.45     34.50
 99.77   1289.00     35.90
 99.87   1366.00     36.96
 99.97   1522.00     39.01
100.07   1589.33     39.87
100.17   1751.00     41.84
100.27   1871.50     43.26
100.37   1996.00     44.68
100.47   2013.00     44.87
100.57   2054.00     45.32
100.67   2116.65     46.01
100.77   2070.40     45.50
100.87   2021.00     44.96
100.97   2042.00     45.19
101.07   1917.00     43.78
101.17   1917.00     43.78
101.27   1761.00     41.96
101.37   1723.38     41.51
101.47   1532.00     39.14
101.57   1538.76     39.23
101.67   1478.00     38.44
101.77   1345.00     36.67
101.87   1258.00     35.47
101.97   1302.72     36.09
102.07   1177.00     34.31
102.17   1185.92     34.44
102.27   1129.00     33.60
102.37   1110.00     33.32
102.47   1085.64     32.95
102.57   1126.00     33.56
102.67   1069.00     32.70
102.77    980.16     31.31
102.87    954.00     30.89
102.97    993.00     31.51
103.07    877.83     29.63
103.17    929.00     30.48
103.27    866.47     29.44
103.37    805.00     28.37
103.47    820.10     28.64
103.57    716.29     26.76
103.67    683.00     26.13
103.77    663.61     25.76
103.87    644.00     25.38
103.97    627.00     25.04
104.07    566.14     23.79
104.17    620.00     24.90
104.27    613.00     24.76
104.37    575.94     24.00
104.47    533.66     23.10
104.57    576.15     24.00
104.67    549.00     23.43
104.77    507.00     22.52
104.87    590.00     24.29
104.97    534.24     23.11
105.07    530.00     23.02
105.17    577.00     24.02
105.27    599.00     24.47
105.37    548.67     23.42
105.47    512.00     22.63
105.57    544.00     23.32
105.67    536.00     23.15
105.77    524.16     22.89
105.87    574.00     23.96
105.97    555.00     23.56
106.07    578.00     24.04
106.17    568.91     23.85
106.27    607.00     24.64
106.37    583.00     24.15
106.47    617.24     24.84
106.57    590.87     24.31
106.67    636.00     25.22
106.77    633.00     25.16
106.87    643.00     25.36
106.97    626.01     25.02
107.07    657.00     25.63
107.17    667.00     25.83
107.27    713.23     26.71
107.37    678.00     26.04
107.47    697.00     26.40
107.57    723.99     26.91
107.67    741.00     27.22
107.77    680.62     26.09
107.87    701.14     26.48
107.97    688.00     26.23
108.07    692.25     26.31
108.17    732.00     27.06
108.27    648.00     25.46
108.37    660.87     25.71
108.47    728.00     26.98
108.57    697.54     26.41
108.67    708.00     26.61
108.77    666.00     25.81
108.87    717.88     26.79
108.97    656.49     25.62
109.07    694.00     26.34
109.17    708.00     26.61
109.27    666.82     25.82
109.37    620.57     24.91
109.47    674.86     25.98
109.57    610.00     24.70
109.67    568.32     23.84
109.77    594.49     24.38
109.87    589.00     24.27
109.97    545.20     23.35
110.07    576.00     24.00
110.17    543.00     23.30
110.27    564.35     23.76
110.37    589.00     24.27
110.47    535.00     23.13
110.57    588.00     24.25
110.67    519.33     22.79
110.77    541.00     23.26
110.87    586.32     24.21
110.97    544.00     23.32
111.07    507.00     22.52
111.17    552.59     23.51
111.27    569.00     23.85
111.37    544.00     23.32
111.47    529.00     23.00
111.57    503.12     22.43
111.67    563.00     23.73
111.77    612.00     24.74
111.87    598.00     24.45
111.97    554.00     23.54
112.07    539.00     23.22
112.17    591.74     24.33
112.27    569.00     23.85
112.37    575.50     23.99
112.47    566.00     23.79
112.57    566.34     23.80
112.67    642.02     25.34
112.77    611.00     24.72
112.87    646.65     25.43
112.97    635.00     25.20
113.07    687.09     26.21
113.17    618.00     24.86
113.27    724.00     26.91
113.37    693.39     26.33
113.47    769.00     27.73
113.57    823.79     28.70
113.67    780.00     27.93
113.77    852.00     29.19
113.87    884.00     29.73
113.97    903.00     30.05
114.07    965.00     31.06
114.17   1035.36     32.18
114.27   1098.85     33.15
114.37   1221.78     34.95
114.47   1258.86     35.48
114.57   1321.00     36.35
114.67   1478.91     38.46
114.77   1716.72     41.43
114.87   1890.00     43.47
114.97   2181.00     46.70
115.07   2277.94     47.73
115.17   2557.00     50.57
115.27   2814.52     53.05
115.37   3076.00     55.46
115.47   3371.69     58.07
115.57   3760.00     61.32
115.67   4221.00     64.97
115.77   4598.34     67.81
115.87   4970.32     70.50
115.97   5299.56     72.80
116.07   5722.54     75.65
116.17   5986.00     77.37
116.27   6262.00     79.13
116.37   6625.00     81.39
116.47   6852.06     82.78
116.57   6766.53     82.26
116.67   6958.00     83.41
116.77   6922.29     83.20
116.87   6669.88     81.67
116.97   6639.84     81.49
117.07   6348.00     79.67
117.17   6157.80     78.47
117.27   5896.43     76.79
117.37   5436.64     73.73
117.47   4942.00     70.30
117.57   4597.26     67.80
117.67   4350.00     65.95
117.77   3805.28     61.69
117.87   3538.08     59.48
117.97   3196.30     56.54
118.07   2831.00     53.21
118.17   2598.00     50.97
118.27   2200.47     46.91
118.37   2020.94     44.95
118.47   1801.24     42.44
118.57   1571.00     39.64
118.67   1444.00     38.00
118.77   1201.00     34.66
118.87   1122.00     33.50
118.97   1081.00     32.88
119.07    969.00     31.13
119.17    844.67     29.06
119.27    845.00     29.07
119.37    793.00     28.16
119.47    797.17     28.23
119.57    719.00     26.81
119.67    675.69     25.99
119.77    692.00     26.31
119.87    621.00     24.92
119.97    617.00     24.84
120.07    601.00     24.52
120.17    560.00     23.66
120.27    581.89     24.12
120.37    569.00     23.85
120.47    569.00     23.85
120.57    562.00     23.71
120.67    600.00     24.49
120.77    581.00     24.10
120.87    585.00     24.19
120.97    582.30     24.13
121.07    553.51     23.53
121.17    597.00     24.43
121.27    592.90     24.35
121.37    621.86     24.94
121.47    597.00     24.43
121.57    595.00     24.39
121.67    564.00     23.75
121.77    569.00     23.85
121.87    613.00     24.76
121.97    609.06     24.68
122.07    576.00     24.00
122.17    601.40     24.52
122.27    642.00     25.34
122.37    604.00     24.58
122.47    599.03     24.48
122.57    593.00     24.35
122.67    659.00     25.67
122.77    595.00     24.39
122.87    638.00     25.26
122.97    660.15     25.69
123.07    612.00     24.74
123.17    606.85     24.63
123.27    659.00     25.67
123.37    688.00     26.23
123.47    640.38     25.31
123.57    611.00     24.72
123.67    675.00     25.98
123.77    616.00     24.82
123.87    662.00     25.73
123.97    656.14     25.62
124.07    582.51     24.14
124.17    574.76     23.97
124.27    585.88     24.20
124.37    581.00     24.10
124.47    643.81     25.37
124.57    570.00     23.87
124.67    610.00     24.70
124.77    515.00     22.69
124.87    612.00     24.74
124.97    593.00     24.35
