XYDATA



INTER 1.0 1.0 0 0
TEMP 1001.772
  9.97    561.00     23.69
 10.07    595.00     24.39
 10.17    572.00     23.92
 10.27    584.41     24.17
 10.37    596.82     24.43
 10.47    570.00     23.87
 10.57    594.83     24.39
 10.67    545.00     23.35
 10.77    580.00     24.08
 10.87    582.00     24.12
 10.97    540.36     23.25
 11.07    592.00     24.33
 11.17    590.00     24.29
 11.27    554.35     23.54
 11.37    568.53     23.84
 11.47    610.00     24.70
 11.57    618.00     24.86
 11.67    593.00     24.35
 11.77    620.00     24.90
 11.87    634.95     25.20
 11.97    610.00     24.70
 12.07    645.00     25.40
 12.17    694.00     26.34
 12.27    734.00     27.09
 12.37    636.00     25.22
 12.47    637.00     25.24
 12.57    593.00     24.35
 12.67    586.00     24.21
 12.77    562.00     23.71
 12.87    562.00     23.71
 12.97    550.00     23.45
 13.07    602.46     24.55
 13.17    600.00     24.49
 13.27    572.00     23.92
 13.37    603.48     24.57
 13.47    597.00     24.43
 13.57    561.00     23.69
 13.67    595.21     24.40
 13.77    568.81     23.85
 13.87    556.00     23.58
 13.97    565.39     23.78
 14.07    538.00     23.19
 14.17    542.00     23.28
 14.27    597.16     24.44
 14.37    518.00     22.76
 14.47    566.00     23.79
 14.57    554.00     23.54
 14.67    571.00     23.90
 14.77    593.00     24.35
 14.87    559.00     23.64
 14.97    508.00     22.54
 15.07    565.17     23.77
 15.17    575.00     23.98
 15.27    577.96     24.04
 15.37    588.80     24.27
 15.47    566.00     23.79
 15.57    535.00     23.13
 15.67    570.00     23.87
 15.77    553.00     23.52
 15.87    598.86     24.47
 15.97    563.16     23.73
 16.07    590.71     24.30
 16.17    561.00     23.69
 16.27    530.17     23.03
 16.37    523.76     22.89
 16.47    550.00     23.45
 16.57    572.95     23.94
 16.67    579.00     24.06
 16.77    524.90     22.91
 16.87    587.00     24.23
 16.97    503.00     22.43
 17.07    517.61     22.75
 17.17    552.00     23.49
 17.27    579.90     24.08
 17.37    584.00     24.17
 17.47    554.35     23.54
 17.57    546.00     23.37
 17.67    579.96     24.08
 17.77    595.00     24.39
 17.87    566.16     23.79
 17.97    557.00     23.60
 18.07    564.00     23.75
 18.17    587.97     24.25
 18.27    546.63     23.38
 18.37    599.86     24.49
 18.47    511.00     22.61
 18.57    550.00     23.45
 18.67    538.77     23.21
 18.77    540.87     23.26
 18.87    578.72     24.06
 18.97    529.24     23.01
 19.07    580.00     24.08
 19.17    514.48     22.68
 19.27    551.00     23.47
 19.37    557.00     23.60
 19.47    541.21     23.26
 19.57    527.90     22.98
 19.67    550.00     23.45
 19.77    553.85     23.53
 19.87    589.16     24.27
 19.97    526.00     22.93
 20.07    537.00     23.17
 20.17    537.93     23.19
 20.27    544.00     23.32
 20.37    527.74     22.97
 20.47    557.00     23.60
 20.57    522.00     22.85
 20.67    528.00     22.98
 20.77    519.71     22.80
 20.87    527.98     22.98
 20.97    542.55     23.29
 21.07    508.00     22.54
 21.17    507.55     22.53
 21.27    583.00     24.15
 21.37    539.00     23.22
 21.47    548.00     23.41
 21.57    531.00     23.04
 21.67    542.00     23.28
 21.77    555.06     23.56
 21.87    532.00     23.07
 21.97    567.16     23.82
 22.07    507.00     22.52
 22.17    530.96     23.04
 22.27    545.00     23.35
 22.37    548.00     23.41
 22.47    571.00     23.90
 22.57    574.96     23.98
 22.67    560.00     23.66
 22.77    567.00     23.81
 22.87    506.00     22.49
 22.97    517.46     22.75
 23.07    553.00     23.52
 23.17    553.18     23.52
 23.27    543.00     23.30
 23.37    527.50     22.97
 23.47    505.35     22.48
 23.57    574.07     23.96
 23.67    505.99     22.49
 23.77    535.00     23.13
 23.87    530.00     23.02
 23.97    550.00     23.45
 24.07    546.00     23.37
 24.17    547.00     23.39
 24.27    573.00     23.94
 24.37    559.96     23.66
 24.47    550.00     23.45
 24.57    610.03     24.70
 24.67    605.00     24.60
 24.77    655.00     25.59
 24.87    646.00     25.42
 24.97    601.24     24.52
 25.07    602.50     24.55
 25.17    563.00     23.73
 25.27    579.00     24.06
 25.37    531.31     23.05
 25.47    564.22     23.75
 25.57    555.00     23.56
 25.67    573.00     23.94
 25.77    538.00     23.19
 25.87    574.00     23.96
 25.97    575.00     23.98
 26.07    576.00     24.00
 26.17    585.00     24.19
 26.27    533.00     23.09
 26.37    557.00     23.60
 26.47    542.07     23.28
 26.57    568.00     23.83
 26.67    542.00     23.28
 26.77    529.00     23.00
 26.87    521.00     22.83
 26.97    546.02     23.37
 27.07    567.00     23.81
 27.17    508.26     22.54
 27.27    501.77     22.40
 27.37    591.00     24.31
 27.47    510.00     22.58
 27.57    545.00     23.35
 27.67    525.84     22.93
 27.77    587.00     24.23
 27.87    629.52     25.09
 27.97    640.00     25.30
 28.07    753.00     27.44
 28.17    837.10     28.93
 28.27    875.00     29.58
 28.37    834.00     28.88
 28.47    805.00     28.37
 28.57    759.85     27.57
 28.67    729.00     27.00
 28.77    741.99     27.24
 28.87    760.00     27.57
 28.97    866.84     29.44
 29.07    791.89     28.14
 29.17    749.93     27.38
 29.27    612.00     24.74
 29.37    598.07     24.46
 29.47    588.11     24.25
 29.57    592.37     24.34
 29.67    544.00     23.32
 29.77    630.00     25.10
 29.87    618.00     24.86
 29.97    582.00     24.12
 30.07    534.40     23.12
 30.17    567.56     23.82
 30.27    601.00     24.52
 30.37    560.00     23.66
 30.47    537.00     23.17
 30.57    556.07     23.58
 30.67    567.00     23.81
 30.77    584.00     24.17
 30.87    558.46     23.63
 30.97    595.07     24.39
 31.07    555.60     23.57
 31.17    621.87     24.94
 31.27    612.00     24.74
 31.37    560.00     23.66
 31.47    526.00     22.93
 31.57    541.00     23.26
 31.67    539.41     23.23
 31.77    491.59     22.17
 31.87    525.00     22.91
 31.97    544.00     23.32
 32.07    531.60     23.06
 32.17    565.00     23.77
 32.27    557.25     23.61
 32.37    548.00     23.41
 32.47    538.00     23.19
 32.57    541.00     23.26
 32.67    565.50     23.78
 32.77    561.42     23.69
 32.87    549.00     23.43
 32.97    537.00     23.17
 33.07    561.00     23.69
 33.17    550.39     23.46
 33.27    482.00     21.95
 33.37    597.00     24.43
 33.47    570.00     23.87
 33.57    589.00     24.27
 33.67    617.00     24.84
 33.77    711.00     26.66
 33.87    819.78     28.63
 33.97    998.00     31.59
 34.07   1051.49     32.43
 34.17   1056.00     32.50
 34.27    907.61     30.13
 34.37    786.00     28.04
 34.47    651.00     25.51
 34.57    606.00     24.62
 34.67    552.00     23.49
 34.77    553.00     23.52
 34.87    564.20     23.75
 34.97    522.51     22.86
 35.07    544.32     23.33
 35.17    517.00     22.74
 35.27    517.28     22.74
 35.37    545.82     23.36
 35.47    502.57     22.42
 35.57    551.00     23.47
 35.67    534.94     23.13
 35.77    480.87     21.93
 35.87    534.78     23.13
 35.97    535.95     23.15
 36.07    526.00     22.93
 36.17    516.00     22.72
 36.27    555.00     23.56
 36.37    528.41     22.99
 36.47    502.68     22.42
 36.57    479.00     21.89
 36.67    529.70     23.02
 36.77    525.00     22.91
 36.87    511.00     22.61
 36.97    515.00     22.69
 37.07    497.00     22.29
 37.17    510.00     22.58
 37.27    520.75     22.82
 37.37    519.00     22.78
 37.47    512.00     22.63
 37.57    499.00     22.34
 37.67    512.00     22.63
 37.77    503.19     22.43
 37.87    507.00     22.52
 37.97    544.30     23.33
 38.07    544.12     23.33
 38.17    510.00     22.58
 38.27    493.00     22.20
 38.37    529.38     23.01
 38.47    497.00     22.29
 38.57    475.00     21.79
 38.67    502.00     22.41
 38.77    473.50     21.76
 38.87    529.84     23.02
 38.97    464.00     21.54
 39.07    474.40     21.78
 39.17    495.00     22.25
 39.27    500.00     22.36
 39.37    495.00     22.25
 39.47    579.00     24.06
 39.57    516.00     22.72
 39.67    490.00     22.14
 39.77    458.47     21.41
 39.87    478.12     21.87
 39.97    500.00     22.36
 40.07    498.35     22.32
 40.17    526.00     22.93
 40.27    487.00     22.07
 40.37    500.45     22.37
 40.47    484.00     22.00
 40.57    479.71     21.90
 40.67    503.00     22.43
 40.77    437.00     20.90
 40.87    490.00     22.14
 40.97    515.47     22.70
 41.07    491.00     22.16
 41.17    482.00     21.95
 41.27    509.79     22.58
 41.37    520.00     22.80
 41.47    516.00     22.72
 41.57    505.53     22.48
 41.67    528.96     23.00
 41.77    499.00     22.34
 41.87    494.19     22.23
 41.97    481.00     21.93
 42.07    540.68     23.25
 42.17    513.00     22.65
 42.27    521.00     22.83
 42.37    543.00     23.30
 42.47    575.97     24.00
 42.57    606.25     24.62
 42.67    611.80     24.73
 42.77    563.00     23.73
 42.87    603.00     24.56
 42.97    547.00     23.39
 43.07    566.00     23.79
 43.17    507.00     22.52
 43.27    509.00     22.56
 43.37    494.00     22.23
 43.47    523.00     22.87
 43.57    484.13     22.00
 43.67    516.00     22.72
 43.77    478.00     21.86
 43.87    513.69     22.66
 43.97    517.00     22.74
 44.07    531.00     23.04
 44.17    482.00     21.95
 44.27    470.11     21.68
 44.37    511.00     22.61
 44.47    454.00     21.31
 44.57    537.00     23.17
 44.67    524.00     22.89
 44.77    511.00     22.61
 44.87    523.08     22.87
 44.97    528.00     22.98
 45.07    507.60     22.53
 45.17    531.00     23.04
 45.27    542.00     23.28
 45.37    496.25     22.28
 45.47    504.00     22.45
 45.57    498.00     22.32
 45.67    509.00     22.56
 45.77    504.00     22.45
 45.87    492.00     22.18
 45.97    510.00     22.58
 46.07    525.88     22.93
 46.17    506.00     22.49
 46.27    515.00     22.69
 46.37    529.88     23.02
 46.47    468.64     21.65
 46.57    468.00     21.63
 46.67    538.00     23.19
 46.77    498.00     22.32
 46.87    478.00     21.86
 46.97    531.69     23.06
 47.07    507.43     22.53
 47.17    495.30     22.26
 47.27    482.00     21.95
 47.37    499.00     22.34
 47.47    515.00     22.69
 47.57    517.08     22.74
 47.67    593.00     24.35
 47.77    552.00     23.49
 47.87    568.00     23.83
 47.97    601.71     24.53
 48.07    559.00     23.64
 48.17    528.00     22.98
 48.27    522.00     22.85
 48.37    585.16     24.19
 48.47    541.00     23.26
 48.57    489.00     22.11
 48.67    522.00     22.85
 48.77    556.00     23.58
 48.87    525.00     22.91
 48.97    554.00     23.54
 49.07    538.00     23.19
 49.17    561.46     23.70
 49.27    612.60     24.75
 49.37    605.00     24.60
 49.47    609.00     24.68
 49.57    709.00     26.63
 49.67    762.79     27.62
 49.77   1045.70     32.34
 49.87   1241.32     35.23
 49.97   1712.00     41.38
 50.07   2124.00     46.09
 50.17   2261.00     47.55
 50.27   2431.00     49.31
 50.37   2195.00     46.85
 50.47   1967.00     44.35
 50.57   1600.00     40.00
 50.67   1184.66     34.42
 50.77    934.94     30.58
 50.87    787.00     28.05
 50.97    680.59     26.09
 51.07    629.00     25.08
 51.17    618.00     24.86
 51.27    585.43     24.20
 51.37    559.00     23.64
 51.47    617.16     24.84
 51.57    550.00     23.45
 51.67    593.67     24.37
 51.77    559.43     23.65
 51.87    574.95     23.98
 51.97    489.12     22.12
 52.07    544.00     23.32
 52.17    551.00     23.47
 52.27    524.00     22.89
 52.37    585.00     24.19
 52.47    550.00     23.45
 52.57    575.29     23.99
 52.67    515.27     22.70
 52.77    602.00     24.54
 52.87    628.00     25.06
 52.97    685.00     26.17
 53.07    721.71     26.86
 53.17    829.47     28.80
 53.27    991.00     31.48
 53.37   1124.00     33.53
 53.47   1217.11     34.89
 53.57   1223.30     34.98
 53.67   1129.67     33.61
 53.77   1049.00     32.39
 53.87    901.64     30.03
 53.97    841.60     29.01
 54.07    718.00     26.80
 54.17    638.74     25.27
 54.27    622.00     24.94
 54.37    593.00     24.35
 54.47    561.00     23.69
 54.57    540.00     23.24
 54.67    569.42     23.86
 54.77    616.00     24.82
 54.87    514.03     22.67
 54.97    576.00     24.00
 55.07    547.00     23.39
 55.17    562.00     23.71
 55.27    556.00     23.58
 55.37    569.00     23.85
 55.47    543.55     23.31
 55.57    565.00     23.77
 55.67    550.00     23.45
 55.77    554.25     23.54
 55.87    595.00     24.39
 55.97    623.10     24.96
 56.07    702.00     26.50
 56.17    751.00     27.40
 56.27    886.00     29.77
 56.37   1044.00     32.31
 56.47   1311.00     36.21
 56.57   1620.87     40.26
 56.67   1964.00     44.32
 56.77   2289.00     47.84
 56.87   2480.16     49.80
 56.97   2633.10     51.31
 57.07   2348.51     48.46
 57.17   2124.00     46.09
 57.27   1845.00     42.95
 57.37   1524.00     39.04
 57.47   1148.74     33.89
 57.57    976.67     31.25
 57.67    887.57     29.79
 57.77    729.46     27.01
 57.87    739.04     27.19
 57.97    643.87     25.37
 58.07    635.28     25.20
 58.17    721.94     26.87
 58.27    754.16     27.46
 58.37    767.00     27.69
 58.47    884.00     29.73
 58.57    950.66     30.83
 58.67   1005.00     31.70
 58.77   1196.90     34.60
 58.87   1220.00     34.93
 58.97   1302.00     36.08
 59.07   1352.00     36.77
 59.17   1377.26     37.11
 59.27   1294.82     35.98
 59.37   1346.00     36.69
 59.47   1250.00     35.36
 59.57   1159.00     34.04
 59.67   1173.00     34.25
 59.77   1219.00     34.91
 59.87   1207.89     34.75
 59.97   1418.00     37.66
 60.07   1399.00     37.40
 60.17   1515.00     38.92
 60.27   1548.00     39.34
 60.37   1435.84     37.89
 60.47   1392.85     37.32
 60.57   1282.00     35.81
 60.67   1183.00     34.39
 60.77   1025.78     32.03
 60.87    892.00     29.87
 60.97    769.00     27.73
 61.07    698.00     26.42
 61.17    631.00     25.12
 61.27    660.00     25.69
 61.37    675.00     25.98
 61.47    685.00     26.17
 61.57    735.98     27.13
 61.67    859.17     29.31
 61.77    894.00     29.90
 61.87   1026.00     32.03
 61.97   1233.34     35.12
 62.07   1241.00     35.23
 62.17   1347.00     36.70
 62.27   1428.26     37.79
 62.37   1309.00     36.18
 62.47   1181.00     34.37
 62.57   1085.00     32.94
 62.67    971.00     31.16
 62.77    804.00     28.35
 62.87    702.00     26.50
 62.97    708.00     26.61
 63.07    639.00     25.28
 63.17    621.70     24.93
 63.27    622.00     24.94
 63.37    608.05     24.66
 63.47    577.00     24.02
 63.57    584.00     24.17
 63.67    581.00     24.10
 63.77    568.00     23.83
 63.87    593.00     24.35
 63.97    670.26     25.89
 64.07    667.16     25.83
 64.17    735.00     27.11
 64.27    783.19     27.99
 64.37    845.00     29.07
 64.47    947.00     30.77
 64.57    946.48     30.76
 64.67   1023.00     31.98
 64.77    966.84     31.09
 64.87    982.00     31.34
 64.97    980.00     31.30
 65.07    853.29     29.21
 65.17    853.00     29.21
 65.27    769.00     27.73
 65.37    699.00     26.44
 65.47    717.70     26.79
 65.57    697.65     26.41
 65.67    623.00     24.96
 65.77    591.00     24.31
 65.87    555.00     23.56
 65.97    580.72     24.10
 66.07    545.00     23.35
 66.17    554.00     23.54
 66.27    541.00     23.26
 66.37    531.00     23.04
 66.47    535.00     23.13
 66.57    564.78     23.77
 66.67    604.00     24.58
 66.77    599.00     24.47
 66.87    603.00     24.56
 66.97    568.00     23.83
 67.07    655.00     25.59
 67.17    725.00     26.93
 67.27    723.00     26.89
 67.37    866.38     29.43
 67.47   1017.00     31.89
 67.57   1154.00     33.97
 67.67   1428.00     37.79
 67.77   1619.00     40.24
 67.87   1937.00     44.01
 67.97   2182.50     46.72
 68.07   2363.00     48.61
 68.17   2444.00     49.44
 68.27   2301.00     47.97
 68.37   2222.00     47.14
 68.47   1867.59     43.22
 68.57   1750.00     41.83
 68.67   1480.00     38.47
 68.77   1198.00     34.61
 68.87    991.00     31.48
 68.97    864.62     29.40
 69.07    719.57     26.82
 69.17    671.63     25.92
 69.27    660.00     25.69
 69.37    614.00     24.78
 69.47    607.71     24.65
 69.57    553.95     23.54
 69.67    585.00     24.19
 69.77    522.00     22.85
 69.87    577.00     24.02
 69.97    561.00     23.69
 70.07    580.79     24.10
 70.17    595.00     24.39
 70.27    614.00     24.78
 70.37    614.18     24.78
 70.47    575.00     23.98
 70.57    593.67     24.37
 70.67    629.09     25.08
 70.77    585.00     24.19
 70.87    601.00     24.52
 70.97    625.57     25.01
 71.07    719.08     26.82
 71.17    697.00     26.40
 71.27    761.93     27.60
 71.37    907.00     30.12
 71.47   1037.00     32.20
 71.57   1140.87     33.78
 71.67   1327.01     36.43
 71.77   1603.58     40.04
 71.87   1761.00     41.96
 71.97   1813.00     42.58
 72.07   1821.00     42.67
 72.17   1823.00     42.70
 72.27   1713.79     41.40
 72.37   1692.00     41.13
 72.47   1502.89     38.77
 72.57   1333.48     36.52
 72.67   1223.69     34.98
 72.77   1040.00     32.25
 72.87    951.85     30.85
 72.97    830.00     28.81
 73.07    736.85     27.14
 73.17    683.00     26.13
 73.27    696.21     26.39
 73.37    710.00     26.65
 73.47    630.00     25.10
 73.57    619.00     24.88
 73.67    617.00     24.84
 73.77    646.34     25.42
 73.87    586.00     24.21
 73.97    591.00     24.31
 74.07    584.00     24.17
 74.17    602.00     24.54
 74.27    610.00     24.70
 74.37    625.00     25.00
 74.47    620.00     24.90
 74.57    642.00     25.34
 74.67    613.82     24.78
 74.77    561.06     23.69
 74.87    570.00     23.87
 74.97    569.73     23.87
 75.07    635.00     25.20
 75.17    587.00     24.23
 75.27    572.00     23.92
 75.37    586.00     24.21
 75.47    559.00     23.64
 75.57    590.00     24.29
 75.67    515.85     22.71
 75.77    551.00     23.47
 75.87    574.00     23.96
 75.97    606.00     24.62
 76.07    597.00     24.43
 76.17    655.00     25.59
 76.27    683.30     26.14
 76.37    680.00     26.08
 76.47    681.50     26.11
 76.57    722.00     26.87
 76.67    712.26     26.69
 76.77    671.00     25.90
 76.87    677.00     26.02
 76.97    699.51     26.45
 77.07    605.00     24.60
 77.17    591.23     24.32
 77.27    580.00     24.08
 77.37    576.00     24.00
 77.47    543.00     23.30
 77.57    554.62     23.55
 77.67    524.58     22.90
 77.77    504.00     22.45
 77.87    547.42     23.40
 77.97    504.00     22.45
 78.07    531.00     23.04
 78.17    489.46     22.12
 78.27    515.00     22.69
 78.37    545.00     23.35
 78.47    518.00     22.76
 78.57    497.00     22.29
 78.67    526.00     22.93
 78.77    500.00     22.36
 78.87    498.00     22.32
 78.97    565.00     23.77
 79.07    557.80     23.62
 79.17    501.00     22.38
 79.27    535.09     23.13
 79.37    532.26     23.07
 79.47    555.95     23.58
 79.57    528.00     22.98
 79.67    495.00     22.25
 79.77    538.57     23.21
 79.87    500.00     22.36
 79.97    528.93     23.00
 80.07    517.00     22.74
 80.17    540.00     23.24
 80.27    530.47     23.03
 80.37    559.00     23.64
 80.47    538.00     23.19
 80.57    607.24     24.64
 80.67    636.67     25.23
 80.77    598.93     24.47
 80.87    705.33     26.56
 80.97    691.24     26.29
 81.07    693.00     26.32
 81.17    709.00     26.63
 81.27    764.00     27.64
 81.37    714.21     26.72
 81.47    742.00     27.24
 81.57    736.00     27.13
 81.67    702.84     26.51
 81.77    697.13     26.40
 81.87    696.03     26.38
 81.97    714.00     26.72
 82.07    703.00     26.51
 82.17    675.00     25.98
 82.27    672.00     25.92
 82.37    629.00     25.08
 82.47    601.14     24.52
 82.57    637.00     25.24
 82.67    592.14     24.33
 82.77    581.00     24.10
 82.87    539.00     23.22
 82.97    560.00     23.66
 83.07    520.00     22.80
 83.17    523.42     22.88
 83.27    527.00     22.96
 83.37    587.94     24.25
 83.47    545.36     23.35
 83.57    521.00     22.83
 83.67    556.87     23.60
 83.77    556.00     23.58
 83.87    567.00     23.81
 83.97    533.73     23.10
 84.07    540.00     23.24
 84.17    544.00     23.32
 84.27    600.80     24.51
 84.37    568.00     23.83
 84.47    589.99     24.29
 84.57    542.00     23.28
 84.67    562.72     23.72
 84.77    540.00     23.24
 84.87    514.62     22.69
 84.97    511.00     22.61
 85.07    566.29     23.80
 85.17    547.89     23.41
 85.27    489.08     22.12
 85.37    501.00     22.38
 85.47    497.50     22.30
 85.57    489.00     22.11
 85.67    530.00     23.02
 85.77    496.00     22.27
 85.87    491.03     22.16
 85.97    547.69     23.40
 86.07    521.00     22.83
 86.17    554.00     23.54
 86.27    485.42     22.03
 86.37    515.00     22.69
 86.47    573.00     23.94
 86.57    543.00     23.30
 86.67    521.00     22.83
 86.77    586.00     24.21
 86.87    579.00     24.06
 86.97    578.00     24.04
 87.07    633.00     25.16
 87.17    613.00     24.76
 87.27    623.68     24.97
 87.37    655.00     25.59
 87.47    608.00     24.66
 87.57    681.00     26.10
 87.67    650.00     25.50
 87.77    660.00     25.69
 87.87    567.09     23.81
 87.97    600.00     24.49
 88.07    644.00     25.38
 88.17    586.00     24.21
 88.27    572.44     23.93
 88.37    623.00     24.96
 88.47    541.24     23.26
 88.57    557.72     23.62
 88.67    598.00     24.45
 88.77    590.00     24.29
 88.87    557.39     23.61
 88.97    558.00     23.62
 89.07    541.00     23.26
 89.17    591.37     24.32
 89.27    545.28     23.35
 89.37    643.00     25.36
 89.47    608.00     24.66
 89.57    552.95     23.51
 89.67    604.16     24.58
 89.77    600.00     24.49
 89.87    515.00     22.69
 89.97    614.39     24.79
 90.07    577.43     24.03
 90.17    599.06     24.48
 90.27    545.99     23.37
 90.37    507.87     22.54
 90.47    572.39     23.92
 90.57    569.00     23.85
 90.67    548.00     23.41
 90.77    511.00     22.61
 90.87    558.29     23.63
 90.97    506.17     22.50
 91.07    523.27     22.88
 91.17    510.59     22.60
 91.27    491.03     22.16
 91.37    519.00     22.78
 91.47    546.79     23.38
 91.57    546.00     23.37
 91.67    517.00     22.74
 91.77    573.00     23.94
 91.87    532.90     23.08
 91.97    531.00     23.04
 92.07    533.00     23.09
 92.17    544.00     23.32
 92.27    575.00     23.98
 92.37    539.00     23.22
 92.47    609.57     24.69
 92.57    610.00     24.70
 92.67    546.00     23.37
 92.77    592.00     24.33
 92.87    662.00     25.73
 92.97    661.00     25.71
 93.07    686.00     26.19
 93.17    746.15     27.32
 93.27    763.53     27.63
 93.37    770.48     27.76
 93.47    783.00     27.98
 93.57    763.00     27.62
 93.67    840.65     28.99
 93.77    816.80     28.58
 93.87    748.43     27.36
 93.97    776.08     27.86
 94.07    807.00     28.41
 94.17    882.00     29.70
 94.27    880.00     29.66
 94.37    835.00     28.90
 94.47    908.29     30.14
 94.57    928.00     30.46
 94.67    826.00     28.74
 94.77    895.00     29.92
 94.87    917.85     30.30
 94.97    905.00     30.08
 95.07    857.00     29.27
 95.17    835.60     28.91
 95.27    898.00     29.97
 95.37    795.00     28.20
 95.47    809.00     28.44
 95.57    801.00     28.30
 95.67    720.00     26.83
 95.77    735.00     27.11
 95.87    702.48     26.50
 95.97    636.00     25.22
 96.07    633.00     25.16
 96.17    660.27     25.70
 96.27    683.00     26.13
 96.37    786.69     28.05
 96.47    770.10     27.75
 96.57    825.89     28.74
 96.67    920.69     30.34
 96.77    945.00     30.74
 96.87    947.00     30.77
 96.97   1089.74     33.01
 97.07   1225.50     35.01
 97.17   1176.91     34.31
 97.27   1338.00     36.58
 97.37   1399.22     37.41
 97.47   1428.00     37.79
 97.57   1409.73     37.55
 97.67   1423.44     37.73
 97.77   1456.00     38.16
 97.87   1325.00     36.40
 97.97   1336.00     36.55
 98.07   1295.00     35.99
 98.17   1249.91     35.35
 98.27   1136.00     33.70
 98.37   1039.00     32.23
 98.47    962.69     31.03
 98.57    997.00     31.58
 98.67    899.00     29.98
 98.77    932.11     30.53
 98.87    838.74     28.96
 98.97    848.47     29.13
 99.07    849.00     29.14
 99.17    909.74     30.16
 99.27    906.60     30.11
 99.37    928.00     30.46
 99.47    988.32     31.44
 99.57   1084.85     32.94
 99.67   1165.00     34.13
 99.77   1260.00     35.50
 99.87   1337.00     36.57
 99.97   1370.37     37.02
100.07   1428.00     37.79
100.17   1664.00     40.79
100.27   1653.00     40.66
100.37   1766.91     42.03
100.47   1846.00     42.97
100.57   2012.48     44.86
100.67   2048.00     45.25
100.77   1958.09     44.25
100.87   2002.00     44.74
100.97   2055.00     45.33
101.07   1964.00     44.32
101.17   1935.00     43.99
101.27   1854.00     43.06
101.37   1747.00     41.80
101.47   1711.00     41.36
101.57   1548.45     39.35
101.67   1523.00     39.03
101.77   1406.00     37.50
101.87   1398.00     37.39
101.97   1296.00     36.00
102.07   1208.00     34.76
102.17   1190.57     34.50
102.27   1142.00     33.79
102.37   1223.40     34.98
102.47   1084.00     32.92
102.57   1129.42     33.61
102.67   1066.00     32.65
102.77   1018.00     31.91
102.87   1101.06     33.18
102.97   1032.00     32.12
103.07    916.09     30.27
103.17    938.00     30.63
103.27    932.00     30.53
103.37    813.21     28.52
103.47    814.00     28.53
103.57    818.00     28.60
103.67    726.00     26.94
103.77    669.92     25.88
103.87    687.00     26.21
103.97    697.00     26.40
104.07    658.02     25.65
104.17    649.05     25.48
104.27    603.00     24.56
104.37    573.00     23.94
104.47    547.00     23.39
104.57    559.00     23.64
104.67    493.94     22.22
104.77    528.69     22.99
104.87    554.00     23.54
104.97    565.00     23.77
105.07    503.00     22.43
105.17    597.00     24.43
105.27    564.34     23.76
105.37    568.00     23.83
105.47    554.00     23.54
105.57    521.00     22.83
105.67    580.00     24.08
105.77    573.22     23.94
105.87    522.90     22.87
105.97    561.00     23.69
106.07    568.77     23.85
106.17    658.00     25.65
106.27    565.00     23.77
106.37    595.00     24.39
106.47    598.00     24.45
106.57    616.78     24.84
106.67    581.90     24.12
106.77    620.43     24.91
106.87    643.00     25.36
106.97    640.00     25.30
107.07    645.00     25.40
107.17    623.00     24.96
107.27    701.48     26.49
107.37    686.00     26.19
107.47    694.00     26.34
107.57    670.52     25.89
107.67    718.63     26.81
107.77    666.71     25.82
107.87    701.97     26.49
107.97    689.00     26.25
108.07    681.00     26.10
108.17    645.36     25.40
108.27    667.00     25.83
108.37    686.00     26.19
108.47    700.00     26.46
108.57    663.00     25.75
108.67    738.00     27.17
108.77    734.00     27.09
108.87    692.00     26.31
108.97    720.00     26.83
109.07    693.00     26.32
109.17    693.89     26.34
109.27    658.00     25.65
109.37    640.00     25.30
109.47    665.76     25.80
109.57    598.17     24.46
109.67    615.00     24.80
109.77    644.00     25.38
109.87    618.00     24.86
109.97    599.00     24.47
110.07    640.00     25.30
110.17    591.58     24.32
110.27    533.79     23.10
110.37    575.00     23.98
110.47    581.00     24.10
110.57    565.48     23.78
110.67    598.00     24.45
110.77    559.00     23.64
110.87    532.35     23.07
110.97    522.89     22.87
111.07    528.66     22.99
111.17    574.33     23.97
111.27    501.00     22.38
111.37    498.28     22.32
111.47    545.00     23.35
111.57    502.00     22.41
111.67    534.00     23.11
111.77    564.00     23.75
111.87    560.00     23.66
111.97    553.00     23.52
112.07    549.00     23.43
112.17    550.00     23.45
112.27    578.60     24.05
112.37    560.00     23.66
112.47    540.00     23.24
112.57    608.64     24.67
112.67    556.99     23.60
112.77    628.45     25.07
112.87    585.00     24.19
112.97    610.74     24.71
113.07    551.00     23.47
113.17    622.00     24.94
113.27    608.00     24.66
113.37    620.00     24.90
113.47    664.00     25.77
113.57    637.34     25.25
113.67    702.00     26.50
113.77    722.00     26.87
113.87    738.00     27.17
113.97    751.00     27.40
114.07    776.00     27.86
114.17    810.00     28.46
114.27    868.00     29.46
114.37    956.00     30.92
114.47   1040.30     32.25
114.57   1201.00     34.66
114.67   1411.00     37.56
114.77   1438.00     37.92
114.87   1638.00     40.47
114.97   1899.00     43.58
115.07   2070.00     45.50
115.17   2192.69     46.83
115.27   2528.08     50.28
115.37   2766.00     52.59
115.47   3075.87     55.46
115.57   3537.00     59.47
115.67   3887.00     62.35
115.77   4031.00     63.49
115.87   4337.00     65.86
115.97   4823.00     69.45
116.07   5128.90     71.62
116.17   5598.86     74.83
116.27   6021.56     77.60
116.37   6286.03     79.28
116.47   6335.30     79.59
116.57   6674.00     81.69
116.67   6737.50     82.08
116.77   6824.00     82.61
116.87   6738.00     82.09
116.97   6704.00     81.88
117.07   6470.00     80.44
117.17   6249.00     79.05
117.27   6022.00     77.60
117.37   5725.00     75.66
117.47   5531.60     74.37
117.57   4891.00     69.94
117.67   4763.00     69.01
117.77   4385.91     66.23
117.87   4013.00     63.35
117.97   3583.00     59.86
118.07   3236.88     56.89
118.17   3091.00     55.60
118.27   2749.00     52.43
118.37   2349.20     48.47
118.47   2201.00     46.91
118.57   1833.00     42.81
118.67   1752.00     41.86
118.77   1512.00     38.88
118.87   1368.83     37.00
118.97   1287.00     35.87
119.07   1114.00     33.38
119.17   1095.95     33.11
119.27    929.58     30.49
119.37    887.00     29.78
119.47    793.22     28.16
119.57    770.00     27.75
119.67    755.00     27.48
119.77    692.54     26.32
119.87    650.00     25.50
119.97    714.00     26.72
120.07    604.00     24.58
120.17    611.00     24.72
120.27    608.00     24.66
120.37    609.00     24.68
120.47    604.00     24.58
120.57    541.00     23.26
120.67    586.00     24.21
120.77    573.28     23.94
120.87    551.00     23.47
120.97    584.00     24.17
121.07    578.00     24.04
121.17    531.17     23.05
121.27    589.00     24.27
121.37    597.00     24.43
121.47    602.19     24.54
121.57    539.59     23.23
121.67    600.00     24.49
121.77    570.00     23.87
121.87    581.92     24.12
121.97    559.24     23.65
122.07    623.00     24.96
122.17    626.58     25.03
122.27    600.00     24.49
122.37    619.00     24.88
122.47    625.00     25.00
122.57    593.53     24.36
122.67    640.00     25.30
122.77    606.00     24.62
122.87    636.00     25.22
122.97    639.00     25.28
123.07    611.83     24.74
123.17    657.00     25.63
123.27    638.00     25.26
123.37    655.00     25.59
123.47    648.00     25.46
123.57    636.74     25.23
123.67    642.35     25.34
123.77    589.81     24.29
123.87    612.00     24.74
123.97    592.00     24.33
124.07    592.77     24.35
124.17    630.78     25.12
124.27    643.00     25.36
124.37    569.13     23.86
124.47    612.00     24.74
124.57    626.72     25.03
124.67    615.12     24.80
124.77    547.65     23.40
124.87    553.00     23.52
124.97    598.00     24.45
