XYDATA



INTER 1.0 1.0 0 0
TEMP 913.583
  9.97    602.00     24.54
 10.07    619.00     24.88
 10.17    562.48     23.72
 10.27    646.00     25.42
 10.37    594.00     24.37
 10.47    572.48     23.93
 10.57    601.00     24.52
 10.67    542.00     23.28
 10.77    611.00     24.72
 10.87    606.00     24.62
 10.97    557.00     23.60
 11.07    607.00     24.64
 11.17    519.72     22.80
 11.27    583.09     24.15
 11.37    557.00     23.60
 11.47    569.26     23.86
 11.57    574.00     23.96
 11.67    612.00     24.74
 11.77    593.00     24.35
 11.87    546.54     23.38
 11.97    655.79     25.61
 12.07    673.00     25.94
 12.17    722.00     26.87
 12.27    669.00     25.87
 12.37    683.52     26.14
 12.47    628.11     25.06
 12.57    627.00     25.04
 12.67    581.00     24.10
 12.77    576.63     24.01
 12.87    535.50     23.14
 12.97    604.00     24.58
 13.07    541.00     23.26
 13.17    523.61     22.88
 13.27    529.26     23.01
 13.37    533.00     23.09
 13.47    533.00     23.09
 13.57    542.00     23.28
 13.67    597.01     24.43
 13.77    559.00     23.64
 13.87    524.14     22.89
 13.97    531.50     23.05
 14.07    569.00     23.85
 14.17    552.00     23.49
 14.27    550.95     23.47
 14.37    537.96     23.19
 14.47    593.60     24.36
 14.57    528.00     22.98
 14.67    535.00     23.13
 14.77    552.00     23.49
 14.87    561.52     23.70
 14.97    515.00     22.69
 15.07    521.06     22.83
 15.17    521.00     22.83
 15.27    586.02     24.21
 15.37    524.67     22.91
 15.47    527.00     22.96
 15.57    528.17     22.98
 15.67    595.26     24.40
 15.77    487.00     22.07
 15.87    569.00     23.85
 15.97    543.05     23.30
 16.07    530.00     23.02
 16.17    592.00     24.33
 16.27    534.00     23.11
 16.37    541.00     23.26
 16.47    563.51     23.74
 16.57    579.32     24.07
 16.67    538.00     23.19
 16.77    553.00     23.52
 16.87    589.02     24.27
 16.97    546.00     23.37
 17.07    585.32     24.19
 17.17    556.00     23.58
 17.27    548.00     23.41
 17.37    600.26     24.50
 17.47    545.00     23.35
 17.57    541.00     23.26
 17.67    551.00     23.47
 17.77    585.59     24.20
 17.87    511.00     22.61
 17.97    538.00     23.19
 18.07    593.00     24.35
 18.17    600.00     24.49
 18.27    575.00     23.98
 18.37    559.93     23.66
 18.47    520.00     22.80
 18.57    558.00     23.62
 18.67    590.75     24.31
 18.77    576.00     24.00
 18.87    528.00     22.98
 18.97    557.00     23.60
 19.07    545.00     23.35
 19.17    564.00     23.75
 19.27    538.00     23.19
 19.37    576.00     24.00
 19.47    549.00     23.43
 19.57    551.00     23.47
 19.67    526.00     22.93
 19.77    560.00     23.66
 19.87    568.00     23.83
 19.97    558.00     23.62
 20.07    551.00     23.47
 20.17    501.00     22.38
 20.27    530.00     23.02
 20.37    564.89     23.77
 20.47    537.00     23.17
 20.57    520.00     22.80
 20.67    571.00     23.90
 20.77    548.33     23.42
 20.87    531.00     23.04
 20.97    543.00     23.30
 21.07    544.00     23.32
 21.17    561.00     23.69
 21.27    536.00     23.15
 21.37    577.00     24.02
 21.47    513.00     22.65
 21.57    495.00     22.25
 21.67    548.00     23.41
 21.77    549.84     23.45
 21.87    555.33     23.57
 21.97    548.00     23.41
 22.07    525.00     22.91
 22.17    547.69     23.40
 22.27    531.21     23.05
 22.37    533.00     23.09
 22.47    550.00     23.45
 22.57    539.00     23.22
 22.67    514.06     22.67
 22.77    548.00     23.41
 22.87    528.24     22.98
 22.97    551.00     23.47
 23.07    572.00     23.92
 23.17    590.00     24.29
 23.27    578.22     24.05
 23.37    546.00     23.37
 23.47    530.11     23.02
 23.57    558.00     23.62
 23.67    564.00     23.75
 23.77    549.00     23.43
 23.87    585.86     24.20
 23.97    536.00     23.15
 24.07    561.13     23.69
 24.17    566.58     23.80
 24.27    579.25     24.07
 24.37    530.70     23.04
 24.47    555.42     23.57
 24.57    609.00     24.68
 24.67    644.00     25.38
 24.77    650.20     25.50
 24.87    676.00     26.00
 24.97    649.00     25.48
 25.07    616.00     24.82
 25.17    579.00     24.06
 25.27    561.00     23.69
 25.37    559.22     23.65
 25.47    535.76     23.15
 25.57    564.00     23.75
 25.67    589.00     24.27
 25.77    563.00     23.73
 25.87    584.00     24.17
 25.97    591.00     24.31
 26.07    545.18     23.35
 26.17    565.00     23.77
 26.27    568.00     23.83
 26.37    540.00     23.24
 26.47    549.00     23.43
 26.57    564.00     23.75
 26.67    526.46     22.94
 26.77    499.82     22.36
 26.87    516.17     22.72
 26.97    519.37     22.79
 27.07    512.21     22.63
 27.17    585.00     24.19
 27.27    544.00     23.32
 27.37    559.00     23.64
 27.47    591.00     24.31
 27.57    538.66     23.21
 27.67    556.80     23.60
 27.77    569.00     23.85
 27.87    605.00     24.60
 27.97    610.00     24.70
 28.07    751.00     27.40
 28.17    790.00     28.11
 28.27    914.00     30.23
 28.37    952.00     30.85
 28.47    848.39     29.13
 28.57    723.03     26.89
 28.67    748.00     27.35
 28.77    689.00     26.25
 28.87    816.00     28.57
 28.97    829.15     28.79
 29.07    811.71     28.49
 29.17    696.00     26.38
 29.27    728.00     26.98
 29.37    653.60     25.57
 29.47    573.34     23.94
 29.57    531.01     23.04
 29.67    588.00     24.25
 29.77    504.00     22.45
 29.87    567.09     23.81
 29.97    573.00     23.94
 30.07    545.00     23.35
 30.17    558.00     23.62
 30.27    586.00     24.21
 30.37    582.00     24.12
 30.47    549.00     23.43
 30.57    556.00     23.58
 30.67    552.00     23.49
 30.77    585.00     24.19
 30.87    550.10     23.45
 30.97    619.00     24.88
 31.07    582.00     24.12
 31.17    586.00     24.21
 31.27    565.00     23.77
 31.37    596.91     24.43
 31.47    569.00     23.85
 31.57    556.00     23.58
 31.67    528.74     22.99
 31.77    498.00     22.32
 31.87    498.39     22.32
 31.97    495.53     22.26
 32.07    486.29     22.05
 32.17    528.00     22.98
 32.27    482.45     21.96
 32.37    583.00     24.15
 32.47    497.52     22.31
 32.57    567.00     23.81
 32.67    554.00     23.54
 32.77    535.14     23.13
 32.87    513.19     22.65
 32.97    533.00     23.09
 33.07    534.00     23.11
 33.17    503.00     22.43
 33.27    515.63     22.71
 33.37    580.74     24.10
 33.47    599.57     24.49
 33.57    596.91     24.43
 33.67    623.00     24.96
 33.77    746.55     27.32
 33.87    751.00     27.40
 33.97    937.00     30.61
 34.07    955.28     30.91
 34.17    990.00     31.46
 34.27    912.33     30.20
 34.37    788.97     28.09
 34.47    713.00     26.70
 34.57    593.00     24.35
 34.67    568.00     23.83
 34.77    557.00     23.60
 34.87    547.00     23.39
 34.97    561.87     23.70
 35.07    502.00     22.41
 35.17    513.00     22.65
 35.27    518.00     22.76
 35.37    540.00     23.24
 35.47    532.00     23.07
 35.57    502.00     22.41
 35.67    544.13     23.33
 35.77    540.00     23.24
 35.87    525.00     22.91
 35.97    470.00     21.68
 36.07    502.36     22.41
 36.17    554.00     23.54
 36.27    550.00     23.45
 36.37    491.00     22.16
 36.47    473.25     21.75
 36.57    506.61     22.51
 36.67    529.00     23.00
 36.77    510.00     22.58
 36.87    515.00     22.69
 36.97    474.00     21.77
 37.07    492.00     22.18
 37.17    512.00     22.63
 37.27    461.00     21.47
 37.37    503.00     22.43
 37.47    475.00     21.79
 37.57    497.00     22.29
 37.67    504.00     22.45
 37.77    530.00     23.02
 37.87    518.00     22.76
 37.97    525.00     22.91
 38.07    483.13     21.98
 38.17    480.00     21.91
 38.27    523.00     22.87
 38.37    513.26     22.66
 38.47    493.00     22.20
 38.57    501.61     22.40
 38.67    497.00     22.29
 38.77    502.21     22.41
 38.87    477.52     21.85
 38.97    448.00     21.17
 39.07    503.00     22.43
 39.17    506.00     22.49
 39.27    488.00     22.09
 39.37    491.84     22.18
 39.47    521.16     22.83
 39.57    462.00     21.49
 39.67    471.66     21.72
 39.77    477.00     21.84
 39.87    482.00     21.95
 39.97    493.66     22.22
 40.07    526.00     22.93
 40.17    522.00     22.85
 40.27    469.09     21.66
 40.37    534.20     23.11
 40.47    504.00     22.45
 40.57    489.00     22.11
 40.67    505.39     22.48
 40.77    468.00     21.63
 40.87    526.06     22.94
 40.97    493.77     22.22
 41.07    492.00     22.18
 41.17    490.00     22.14
 41.27    490.75     22.15
 41.37    480.00     21.91
 41.47    486.00     22.05
 41.57    480.31     21.92
 41.67    492.00     22.18
 41.77    524.00     22.89
 41.87    519.00     22.78
 41.97    519.13     22.78
 42.07    558.00     23.62
 42.17    532.00     23.07
 42.27    518.53     22.77
 42.37    558.88     23.64
 42.47    564.00     23.75
 42.57    562.00     23.71
 42.67    617.00     24.84
 42.77    553.00     23.52
 42.87    561.16     23.69
 42.97    563.54     23.74
 43.07    541.22     23.26
 43.17    507.00     22.52
 43.27    496.00     22.27
 43.37    524.00     22.89
 43.47    509.00     22.56
 43.57    472.00     21.73
 43.67    470.62     21.69
 43.77    468.00     21.63
 43.87    477.49     21.85
 43.97    490.00     22.14
 44.07    507.00     22.52
 44.17    518.00     22.76
 44.27    494.75     22.24
 44.37    482.00     21.95
 44.47    484.00     22.00
 44.57    485.00     22.02
 44.67    488.00     22.09
 44.77    505.00     22.47
 44.87    485.00     22.02
 44.97    510.00     22.58
 45.07    496.00     22.27
 45.17    493.14     22.21
 45.27    485.21     22.03
 45.37    513.00     22.65
 45.47    479.00     21.89
 45.57    467.46     21.62
 45.67    503.82     22.45
 45.77    482.05     21.96
 45.87    476.00     21.82
 45.97    503.00     22.43
 46.07    480.00     21.91
 46.17    470.41     21.69
 46.27    536.00     23.15
 46.37    519.53     22.79
 46.47    498.00     22.32
 46.57    517.91     22.76
 46.67    467.00     21.61
 46.77    490.85     22.16
 46.87    535.57     23.14
 46.97    457.98     21.40
 47.07    488.00     22.09
 47.17    501.00     22.38
 47.27    503.00     22.43
 47.37    504.92     22.47
 47.47    492.00     22.18
 47.57    555.41     23.57
 47.67    481.00     21.93
 47.77    565.00     23.77
 47.87    556.00     23.58
 47.97    540.95     23.26
 48.07    585.81     24.20
 48.17    534.79     23.13
 48.27    592.80     24.35
 48.37    517.00     22.74
 48.47    508.06     22.54
 48.57    515.00     22.69
 48.67    504.00     22.45
 48.77    460.00     21.45
 48.87    491.01     22.16
 48.97    510.05     22.58
 49.07    536.71     23.17
 49.17    533.00     23.09
 49.27    512.42     22.64
 49.37    578.00     24.04
 49.47    594.00     24.37
 49.57    671.00     25.90
 49.67    795.00     28.20
 49.77    924.56     30.41
 49.87   1124.23     33.53
 49.97   1512.82     38.89
 50.07   1834.00     42.83
 50.17   2066.48     45.46
 50.27   2340.00     48.37
 50.37   2272.00     47.67
 50.47   2169.00     46.57
 50.57   1684.80     41.05
 50.67   1351.00     36.76
 50.77   1028.00     32.06
 50.87    852.00     29.19
 50.97    780.47     27.94
 51.07    699.00     26.44
 51.17    610.00     24.70
 51.27    564.15     23.75
 51.37    602.99     24.56
 51.47    624.00     24.98
 51.57    540.00     23.24
 51.67    554.00     23.54
 51.77    545.00     23.35
 51.87    517.00     22.74
 51.97    492.00     22.18
 52.07    517.77     22.75
 52.17    567.00     23.81
 52.27    537.00     23.17
 52.37    564.00     23.75
 52.47    571.00     23.90
 52.57    561.00     23.69
 52.67    527.83     22.97
 52.77    601.00     24.52
 52.87    629.00     25.08
 52.97    649.96     25.49
 53.07    671.93     25.92
 53.17    786.00     28.04
 53.27    924.00     30.40
 53.37    973.08     31.19
 53.47   1163.20     34.11
 53.57   1129.00     33.60
 53.67   1238.60     35.19
 53.77   1119.19     33.45
 53.87   1027.00     32.05
 53.97    923.00     30.38
 54.07    800.95     28.30
 54.17    669.06     25.87
 54.27    603.32     24.56
 54.37    568.38     23.84
 54.47    605.00     24.60
 54.57    561.00     23.69
 54.67    568.00     23.83
 54.77    513.68     22.66
 54.87    557.00     23.60
 54.97    580.22     24.09
 55.07    601.00     24.52
 55.17    571.00     23.90
 55.27    583.00     24.15
 55.37    533.90     23.11
 55.47    557.00     23.60
 55.57    510.62     22.60
 55.67    546.00     23.37
 55.77    562.00     23.71
 55.87    627.91     25.06
 55.97    609.00     24.68
 56.07    662.00     25.73
 56.17    720.00     26.83
 56.27    774.00     27.82
 56.37    858.00     29.29
 56.47   1177.00     34.31
 56.57   1463.00     38.25
 56.67   1805.22     42.49
 56.77   2098.00     45.80
 56.87   2340.57     48.38
 56.97   2478.00     49.78
 57.07   2482.00     49.82
 57.17   2292.00     47.87
 57.27   1962.00     44.29
 57.37   1724.00     41.52
 57.47   1342.00     36.63
 57.57   1120.00     33.47
 57.67    890.81     29.85
 57.77    864.30     29.40
 57.87    695.00     26.36
 57.97    704.00     26.53
 58.07    701.00     26.48
 58.17    702.00     26.50
 58.27    666.75     25.82
 58.37    762.00     27.60
 58.47    816.00     28.57
 58.57    909.00     30.15
 58.67    975.00     31.22
 58.77   1057.15     32.51
 58.87   1102.00     33.20
 58.97   1221.16     34.95
 59.07   1256.00     35.44
 59.17   1239.29     35.20
 59.27   1267.00     35.59
 59.37   1250.00     35.36
 59.47   1236.00     35.16
 59.57   1217.00     34.89
 59.67   1101.53     33.19
 59.77   1103.46     33.22
 59.87   1238.00     35.19
 59.97   1264.00     35.55
 60.07   1413.00     37.59
 60.17   1447.87     38.05
 60.27   1513.00     38.90
 60.37   1514.61     38.92
 60.47   1493.00     38.64
 60.57   1354.00     36.80
 60.67   1244.00     35.27
 60.77   1052.10     32.44
 60.87    913.00     30.22
 60.97    854.92     29.24
 61.07    707.55     26.60
 61.17    682.00     26.12
 61.27    711.00     26.66
 61.37    628.00     25.06
 61.47    690.00     26.27
 61.57    687.00     26.21
 61.67    822.60     28.68
 61.77    845.22     29.07
 61.87    994.08     31.53
 61.97   1096.00     33.11
 62.07   1169.00     34.19
 62.17   1262.00     35.52
 62.27   1342.00     36.63
 62.37   1403.68     37.47
 62.47   1319.99     36.33
 62.57   1223.00     34.97
 62.67    958.00     30.95
 62.77    854.00     29.22
 62.87    819.07     28.62
 62.97    650.00     25.50
 63.07    664.00     25.77
 63.17    591.00     24.31
 63.27    601.00     24.52
 63.37    591.03     24.31
 63.47    581.00     24.10
 63.57    593.00     24.35
 63.67    587.74     24.24
 63.77    592.00     24.33
 63.87    654.00     25.57
 63.97    593.00     24.35
 64.07    617.10     24.84
 64.17    705.00     26.55
 64.27    801.00     28.30
 64.37    798.00     28.25
 64.47    912.30     30.20
 64.57    878.70     29.64
 64.67    974.59     31.22
 64.77    978.20     31.28
 64.87    977.70     31.27
 64.97    964.84     31.06
 65.07    956.44     30.93
 65.17    850.00     29.15
 65.27    810.00     28.46
 65.37    738.07     27.17
 65.47    675.28     25.99
 65.57    634.29     25.19
 65.67    667.00     25.83
 65.77    561.00     23.69
 65.87    561.00     23.69
 65.97    583.07     24.15
 66.07    573.00     23.94
 66.17    580.00     24.08
 66.27    551.00     23.47
 66.37    590.00     24.29
 66.47    552.00     23.49
 66.57    517.62     22.75
 66.67    594.00     24.37
 66.77    585.37     24.19
 66.87    565.00     23.77
 66.97    593.00     24.35
 67.07    569.00     23.85
 67.17    640.82     25.31
 67.27    735.17     27.11
 67.37    742.78     27.25
 67.47    891.01     29.85
 67.57   1046.00     32.34
 67.67   1226.00     35.01
 67.77   1538.95     39.23
 67.87   1761.00     41.96
 67.97   2030.93     45.07
 68.07   2186.54     46.76
 68.17   2332.00     48.29
 68.27   2377.00     48.75
 68.37   2222.54     47.14
 68.47   2167.00     46.55
 68.57   1845.61     42.96
 68.67   1676.00     40.94
 68.77   1393.00     37.32
 68.87   1165.00     34.13
 68.97    965.95     31.08
 69.07    878.00     29.63
 69.17    789.00     28.09
 69.27    669.00     25.87
 69.37    659.00     25.67
 69.47    649.00     25.48
 69.57    591.19     24.31
 69.67    546.50     23.38
 69.77    529.18     23.00
 69.87    558.00     23.62
 69.97    598.88     24.47
 70.07    570.00     23.87
 70.17    547.43     23.40
 70.27    576.00     24.00
 70.37    560.79     23.68
 70.47    545.58     23.36
 70.57    573.00     23.94
 70.67    536.00     23.15
 70.77    578.52     24.05
 70.87    632.57     25.15
 70.97    616.00     24.82
 71.07    635.78     25.21
 71.17    651.92     25.53
 71.27    796.00     28.21
 71.37    795.71     28.21
 71.47    985.87     31.40
 71.57   1014.00     31.84
 71.67   1287.98     35.89
 71.77   1436.00     37.89
 71.87   1567.00     39.59
 71.97   1746.00     41.79
 72.07   1827.77     42.75
 72.17   1869.00     43.23
 72.27   1823.00     42.70
 72.37   1737.00     41.68
 72.47   1632.25     40.40
 72.57   1450.00     38.08
 72.67   1300.00     36.06
 72.77   1186.28     34.44
 72.87    980.00     31.30
 72.97    876.00     29.60
 73.07    835.00     28.90
 73.17    742.00     27.24
 73.27    668.34     25.85
 73.37    661.00     25.71
 73.47    649.00     25.48
 73.57    624.84     25.00
 73.67    595.92     24.41
 73.77    628.00     25.06
 73.87    599.00     24.47
 73.97    599.00     24.47
 74.07    612.33     24.75
 74.17    602.00     24.54
 74.27    576.01     24.00
 74.37    610.16     24.70
 74.47    530.90     23.04
 74.57    625.00     25.00
 74.67    606.00     24.62
 74.77    594.00     24.37
 74.87    656.00     25.61
 74.97    639.00     25.28
 75.07    560.06     23.67
 75.17    585.00     24.19
 75.27    576.00     24.00
 75.37    607.00     24.64
 75.47    503.29     22.43
 75.57    507.63     22.53
 75.67    554.76     23.55
 75.77    578.00     24.04
 75.87    597.00     24.43
 75.97    581.00     24.10
 76.07    623.34     24.97
 76.17    610.00     24.70
 76.27    665.00     25.79
 76.37    690.79     26.28
 76.47    667.00     25.83
 76.57    718.00     26.80
 76.67    681.95     26.11
 76.77    708.00     26.61
 76.87    638.00     25.26
 76.97    679.00     26.06
 77.07    653.00     25.55
 77.17    657.41     25.64
 77.27    639.87     25.30
 77.37    587.00     24.23
 77.47    568.00     23.83
 77.57    579.76     24.08
 77.67    553.70     23.53
 77.77    537.04     23.17
 77.87    532.00     23.07
 77.97    502.00     22.41
 78.07    494.00     22.23
 78.17    482.00     21.95
 78.27    489.00     22.11
 78.37    504.38     22.46
 78.47    498.00     22.32
 78.57    539.08     23.22
 78.67    544.85     23.34
 78.77    480.38     21.92
 78.87    512.00     22.63
 78.97    479.00     21.89
 79.07    488.00     22.09
 79.17    485.00     22.02
 79.27    509.88     22.58
 79.37    506.00     22.49
 79.47    544.47     23.33
 79.57    506.00     22.49
 79.67    530.00     23.02
 79.77    535.00     23.13
 79.87    539.36     23.22
 79.97    518.17     22.76
 80.07    515.00     22.69
 80.17    544.46     23.33
 80.27    524.00     22.89
 80.37    579.66     24.08
 80.47    528.15     22.98
 80.57    585.26     24.19
 80.67    618.94     24.88
 80.77    617.93     24.86
 80.87    614.00     24.78
 80.97    693.70     26.34
 81.07    681.00     26.10
 81.17    663.34     25.76
 81.27    718.67     26.81
 81.37    721.94     26.87
 81.47    732.61     27.07
 81.57    752.00     27.42
 81.67    781.07     27.95
 81.77    746.00     27.31
 81.87    710.00     26.65
 81.97    720.00     26.83
 82.07    692.00     26.31
 82.17    630.00     25.10
 82.27    641.84     25.33
 82.37    682.11     26.12
 82.47    659.00     25.67
 82.57    568.00     23.83
 82.67    628.00     25.06
 82.77    537.80     23.19
 82.87    599.62     24.49
 82.97    532.00     23.07
 83.07    536.15     23.15
 83.17    500.00     22.36
 83.27    495.00     22.25
 83.37    520.00     22.80
 83.47    565.77     23.79
 83.57    536.00     23.15
 83.67    533.00     23.09
 83.77    545.62     23.36
 83.87    510.97     22.60
 83.97    499.00     22.34
 84.07    500.00     22.36
 84.17    536.00     23.15
 84.27    581.00     24.10
 84.37    547.00     23.39
 84.47    523.10     22.87
 84.57    527.00     22.96
 84.67    539.08     23.22
 84.77    551.24     23.48
 84.87    538.00     23.19
 84.97    491.00     22.16
 85.07    470.00     21.68
 85.17    533.21     23.09
 85.27    497.00     22.29
 85.37    495.00     22.25
 85.47    504.00     22.45
 85.57    514.67     22.69
 85.67    516.00     22.72
 85.77    530.78     23.04
 85.87    537.18     23.18
 85.97    518.00     22.76
 86.07    547.18     23.39
 86.17    503.00     22.43
 86.27    516.16     22.72
 86.37    479.00     21.89
 86.47    518.00     22.76
 86.57    494.00     22.23
 86.67    516.00     22.72
 86.77    508.92     22.56
 86.87    515.52     22.70
 86.97    581.00     24.10
 87.07    593.00     24.35
 87.17    601.00     24.52
 87.27    565.00     23.77
 87.37    551.04     23.47
 87.47    598.00     24.45
 87.57    618.00     24.86
 87.67    585.22     24.19
 87.77    646.00     25.42
 87.87    590.52     24.30
 87.97    557.55     23.61
 88.07    550.21     23.46
 88.17    621.00     24.92
 88.27    529.14     23.00
 88.37    573.54     23.95
 88.47    572.97     23.94
 88.57    561.00     23.69
 88.67    538.00     23.19
 88.77    566.02     23.79
 88.87    583.96     24.17
 88.97    587.00     24.23
 89.07    587.53     24.24
 89.17    575.50     23.99
 89.27    562.00     23.71
 89.37    539.22     23.22
 89.47    607.00     24.64
 89.57    541.58     23.27
 89.67    562.00     23.71
 89.77    574.00     23.96
 89.87    544.00     23.32
 89.97    546.30     23.37
 90.07    607.00     24.64
 90.17    541.22     23.26
 90.27    530.00     23.02
 90.37    527.00     22.96
 90.47    533.00     23.09
 90.57    558.00     23.62
 90.67    539.00     23.22
 90.77    485.38     22.03
 90.87    480.00     21.91
 90.97    528.00     22.98
 91.07    488.00     22.09
 91.17    505.00     22.47
 91.27    527.09     22.96
 91.37    466.00     21.59
 91.47    537.00     23.17
 91.57    503.00     22.43
 91.67    555.63     23.57
 91.77    549.00     23.43
 91.87    534.00     23.11
 91.97    560.11     23.67
 92.07    524.14     22.89
 92.17    503.00     22.43
 92.27    513.00     22.65
 92.37    547.00     23.39
 92.47    609.00     24.68
 92.57    615.93     24.82
 92.67    632.00     25.14
 92.77    659.42     25.68
 92.87    617.00     24.84
 92.97    662.00     25.73
 93.07    705.08     26.55
 93.17    696.00     26.38
 93.27    706.00     26.57
 93.37    723.75     26.90
 93.47    752.00     27.42
 93.57    784.00     28.00
 93.67    787.00     28.05
 93.77    830.00     28.81
 93.87    749.05     27.37
 93.97    861.00     29.34
 94.07    822.00     28.67
 94.17    765.36     27.67
 94.27    828.00     28.77
 94.37    842.00     29.02
 94.47    888.00     29.80
 94.57    871.06     29.51
 94.67    907.62     30.13
 94.77    879.00     29.65
 94.87    860.00     29.33
 94.97    894.00     29.90
 95.07    887.00     29.78
 95.17    862.70     29.37
 95.27    839.23     28.97
 95.37    844.24     29.06
 95.47    786.66     28.05
 95.57    771.00     27.77
 95.67    745.00     27.29
 95.77    709.16     26.63
 95.87    740.00     27.20
 95.97    740.43     27.21
 96.07    693.00     26.32
 96.17    724.00     26.91
 96.27    738.78     27.18
 96.37    747.26     27.34
 96.47    728.54     26.99
 96.57    819.00     28.62
 96.67    767.65     27.71
 96.77    842.00     29.02
 96.87    901.00     30.02
 96.97    997.00     31.58
 97.07   1052.31     32.44
 97.17   1168.00     34.18
 97.27   1216.00     34.87
 97.37   1194.00     34.55
 97.47   1326.00     36.41
 97.57   1438.70     37.93
 97.67   1387.08     37.24
 97.77   1322.00     36.36
 97.87   1403.00     37.46
 97.97   1444.00     38.00
 98.07   1396.26     37.37
 98.17   1267.00     35.59
 98.27   1239.78     35.21
 98.37   1146.00     33.85
 98.47   1056.78     32.51
 98.57   1028.45     32.07
 98.67   1022.19     31.97
 98.77    980.80     31.32
 98.87    918.00     30.30
 98.97    805.00     28.37
 99.07    847.00     29.10
 99.17    853.00     29.21
 99.27    860.00     29.33
 99.37    865.00     29.41
 99.47    922.00     30.36
 99.57    916.00     30.27
 99.67   1022.00     31.97
 99.77   1158.00     34.03
 99.87   1168.27     34.18
 99.97   1240.47     35.22
100.07   1384.30     37.21
100.17   1416.00     37.63
100.27   1579.00     39.74
100.37   1603.00     40.04
100.47   1781.00     42.20
100.57   1846.00     42.97
100.67   1827.79     42.75
100.77   1968.00     44.36
100.87   1965.00     44.33
100.97   2033.00     45.09
101.07   1946.96     44.12
101.17   1985.00     44.55
101.27   1887.00     43.44
101.37   1909.00     43.69
101.47   1836.00     42.85
101.57   1672.00     40.89
101.67   1620.00     40.25
101.77   1534.00     39.17
101.87   1490.68     38.61
101.97   1409.00     37.54
102.07   1341.00     36.62
102.17   1223.00     34.97
102.27   1270.00     35.64
102.37   1215.42     34.86
102.47   1223.74     34.98
102.57   1137.00     33.72
102.67   1184.00     34.41
102.77   1083.75     32.92
102.87   1042.00     32.28
102.97   1115.00     33.39
103.07   1020.00     31.94
103.17   1001.00     31.64
103.27    962.00     31.02
103.37    966.44     31.09
103.47    846.27     29.09
103.57    851.00     29.17
103.67    850.00     29.15
103.77    779.00     27.91
103.87    783.00     27.98
103.97    658.00     25.65
104.07    662.00     25.73
104.17    608.64     24.67
104.27    598.33     24.46
104.37    592.00     24.33
104.47    576.00     24.00
104.57    604.00     24.58
104.67    574.61     23.97
104.77    523.00     22.87
104.87    516.42     22.72
104.97    568.52     23.84
105.07    553.00     23.52
105.17    572.00     23.92
105.27    582.00     24.12
105.37    589.00     24.27
105.47    557.00     23.60
105.57    568.00     23.83
105.67    529.00     23.00
105.77    537.00     23.17
105.87    491.22     22.16
105.97    567.02     23.81
106.07    530.00     23.02
106.17    532.85     23.08
106.27    575.00     23.98
106.37    578.00     24.04
106.47    531.21     23.05
106.57    583.00     24.15
106.67    579.00     24.06
106.77    565.48     23.78
106.87    611.29     24.72
106.97    675.57     25.99
107.07    666.00     25.81
107.17    695.79     26.38
107.27    664.00     25.77
107.37    681.00     26.10
107.47    612.00     24.74
107.57    702.00     26.50
107.67    726.00     26.94
107.77    659.00     25.67
107.87    686.82     26.21
107.97    665.00     25.79
108.07    702.00     26.50
108.17    641.42     25.33
108.27    673.00     25.94
108.37    664.00     25.77
108.47    663.00     25.75
108.57    704.00     26.53
108.67    701.00     26.48
108.77    639.00     25.28
108.87    648.38     25.46
108.97    645.00     25.40
109.07    727.00     26.96
109.17    673.38     25.95
109.27    700.38     26.46
109.37    704.91     26.55
109.47    648.33     25.46
109.57    704.00     26.53
109.67    656.00     25.61
109.77    648.00     25.46
109.87    673.00     25.94
109.97    670.61     25.90
110.07    657.30     25.64
110.17    573.16     23.94
110.27    609.00     24.68
110.37    562.00     23.71
110.47    562.00     23.71
110.57    585.85     24.20
110.67    560.00     23.66
110.77    557.35     23.61
110.87    567.00     23.81
110.97    554.00     23.54
111.07    556.69     23.59
111.17    535.00     23.13
111.27    497.09     22.30
111.37    550.69     23.47
111.47    582.00     24.12
111.57    544.00     23.32
111.67    562.88     23.73
111.77    513.29     22.66
111.87    530.00     23.02
111.97    522.00     22.85
112.07    581.00     24.10
112.17    508.00     22.54
112.27    563.58     23.74
112.37    580.00     24.08
112.47    580.00     24.08
112.57    551.00     23.47
112.67    585.00     24.19
112.77    558.00     23.62
112.87    530.00     23.02
112.97    580.00     24.08
113.07    607.00     24.64
113.17    623.33     24.97
113.27    631.48     25.13
113.37    647.10     25.44
113.47    633.00     25.16
113.57    622.25     24.94
113.67    683.00     26.13
113.77    607.00     24.64
113.87    712.00     26.68
113.97    708.78     26.62
114.07    705.00     26.55
114.17    805.00     28.37
114.27    817.00     28.58
114.37    916.00     30.27
114.47    979.00     31.29
114.57    984.00     31.37
114.67   1213.00     34.83
114.77   1224.00     34.99
114.87   1412.00     37.58
114.97   1534.00     39.17
115.07   1618.01     40.22
115.17   1916.00     43.77
115.27   2025.13     45.00
115.37   2386.00     48.85
115.47   2613.00     51.12
115.57   2953.00     54.34
115.67   3279.00     57.26
115.77   3688.08     60.73
115.87   3961.69     62.94
115.97   4236.83     65.09
116.07   4637.01     68.10
116.17   5174.57     71.93
116.27   5457.00     73.87
116.37   5728.00     75.68
116.47   6006.00     77.50
116.57   6341.10     79.63
116.67   6586.00     81.15
116.77   6676.00     81.71
116.87   6757.12     82.20
116.97   6936.00     83.28
117.07   6863.00     82.84
117.17   6782.00     82.35
117.27   6704.00     81.88
117.37   6232.00     78.94
117.47   5911.00     76.88
117.57   5727.86     75.68
117.67   5337.00     73.05
117.77   5033.00     70.94
117.87   4615.00     67.93
117.97   4255.00     65.23
118.07   3909.69     62.53
118.17   3468.00     58.89
118.27   3329.00     57.70
118.37   3062.00     55.34
118.47   2712.71     52.08
118.57   2410.00     49.09
118.67   2198.82     46.89
118.77   1772.00     42.10
118.87   1635.69     40.44
118.97   1594.06     39.93
119.07   1335.00     36.54
119.17   1222.00     34.96
119.27   1142.94     33.81
119.37   1048.00     32.37
119.47    960.57     30.99
119.57    930.00     30.50
119.67    918.00     30.30
119.77    797.00     28.23
119.87    755.00     27.48
119.97    674.97     25.98
120.07    737.00     27.15
120.17    658.00     25.65
120.27    639.00     25.28
120.37    635.00     25.20
120.47    615.00     24.80
120.57    638.99     25.28
120.67    564.18     23.75
120.77    616.35     24.83
120.87    578.00     24.04
120.97    608.00     24.66
121.07    565.00     23.77
121.17    588.91     24.27
121.27    578.00     24.04
121.37    560.67     23.68
121.47    588.18     24.25
121.57    526.00     22.93
121.67    569.00     23.85
121.77    600.00     24.49
121.87    566.26     23.80
121.97    552.52     23.51
122.07    576.77     24.02
122.17    618.88     24.88
122.27    610.00     24.70
122.37    621.00     24.92
122.47    591.00     24.31
122.57    661.00     25.71
122.67    615.00     24.80
122.77    595.47     24.40
122.87    620.87     24.92
122.97    645.00     25.40
123.07    650.00     25.50
123.17    672.72     25.94
123.27    617.00     24.84
123.37    665.65     25.80
123.47    610.00     24.70
123.57    643.00     25.36
123.67    636.00     25.22
123.77    617.42     24.85
123.87    624.00     24.98
123.97    614.27     24.78
124.07    624.62     24.99
124.17    600.15     24.50
124.27    607.87     24.66
124.37    609.00     24.68
124.47    606.00     24.62
124.57    560.00     23.66
124.67    612.16     24.74
124.77    545.46     23.36
124.87    533.02     23.09
124.97    607.00     24.64
