XYDATA



INTER 1.0 1.0 0 0
TEMP 1074.0
  9.97    592.00     24.33
 10.07    559.00     23.64
 10.17    554.93     23.56
 10.27    586.00     24.21
 10.37    594.00     24.37
 10.47    607.42     24.65
 10.57    593.00     24.35
 10.67    613.00     24.76
 10.77    575.00     23.98
 10.87    576.00     24.00
 10.97    567.00     23.81
 11.07    620.00     24.90
 11.17    534.56     23.12
 11.27    609.28     24.68
 11.37    591.00     24.31
 11.47    609.00     24.68
 11.57    559.57     23.66
 11.67    601.26     24.52
 11.77    624.00     24.98
 11.87    670.00     25.88
 11.97    604.24     24.58
 12.07    673.41     25.95
 12.17    651.54     25.53
 12.27    650.00     25.50
 12.37    660.00     25.69
 12.47    650.01     25.50
 12.57    593.00     24.35
 12.67    609.68     24.69
 12.77    575.00     23.98
 12.87    508.00     22.54
 12.97    588.15     24.25
 13.07    561.63     23.70
 13.17    555.00     23.56
 13.27    553.57     23.53
 13.37    603.00     24.56
 13.47    563.00     23.73
 13.57    608.55     24.67
 13.67    608.00     24.66
 13.77    569.02     23.85
 13.87    574.19     23.96
 13.97    598.00     24.45
 14.07    571.54     23.91
 14.17    553.00     23.52
 14.27    572.00     23.92
 14.37    566.45     23.80
 14.47    545.59     23.36
 14.57    604.49     24.59
 14.67    534.15     23.11
 14.77    574.92     23.98
 14.87    528.00     22.98
 14.97    543.00     23.30
 15.07    520.00     22.80
 15.17    557.00     23.60
 15.27    561.00     23.69
 15.37    521.00     22.83
 15.47    545.00     23.35
 15.57    572.00     23.92
 15.67    604.73     24.59
 15.77    562.60     23.72
 15.87    603.00     24.56
 15.97    603.00     24.56
 16.07    578.76     24.06
 16.17    534.00     23.11
 16.27    521.21     22.83
 16.37    521.67     22.84
 16.47    505.00     22.47
 16.57    564.00     23.75
 16.67    568.00     23.83
 16.77    570.00     23.87
 16.87    609.00     24.68
 16.97    601.68     24.53
 17.07    560.50     23.67
 17.17    560.83     23.68
 17.27    558.38     23.63
 17.37    567.00     23.81
 17.47    531.42     23.05
 17.57    572.05     23.92
 17.67    513.00     22.65
 17.77    548.00     23.41
 17.87    518.00     22.76
 17.97    594.00     24.37
 18.07    531.00     23.04
 18.17    565.80     23.79
 18.27    595.00     24.39
 18.37    583.00     24.15
 18.47    579.00     24.06
 18.57    552.00     23.49
 18.67    521.00     22.83
 18.77    555.00     23.56
 18.87    543.98     23.32
 18.97    545.00     23.35
 19.07    576.00     24.00
 19.17    519.00     22.78
 19.27    578.20     24.05
 19.37    541.00     23.26
 19.47    531.00     23.04
 19.57    571.64     23.91
 19.67    527.93     22.98
 19.77    532.00     23.07
 19.87    566.00     23.79
 19.97    507.81     22.53
 20.07    560.00     23.66
 20.17    580.40     24.09
 20.27    590.82     24.31
 20.37    555.00     23.56
 20.47    547.20     23.39
 20.57    579.15     24.07
 20.67    555.00     23.56
 20.77    537.00     23.17
 20.87    555.00     23.56
 20.97    536.00     23.15
 21.07    541.00     23.26
 21.17    569.00     23.85
 21.27    588.32     24.26
 21.37    561.00     23.69
 21.47    605.00     24.60
 21.57    563.00     23.73
 21.67    550.00     23.45
 21.77    526.87     22.95
 21.87    521.89     22.84
 21.97    562.47     23.72
 22.07    495.00     22.25
 22.17    556.31     23.59
 22.27    561.00     23.69
 22.37    588.40     24.26
 22.47    558.00     23.62
 22.57    561.00     23.69
 22.67    553.09     23.52
 22.77    567.61     23.82
 22.87    511.53     22.62
 22.97    511.00     22.61
 23.07    556.00     23.58
 23.17    524.00     22.89
 23.27    579.87     24.08
 23.37    528.00     22.98
 23.47    536.50     23.16
 23.57    575.00     23.98
 23.67    551.00     23.47
 23.77    525.00     22.91
 23.87    570.00     23.87
 23.97    526.81     22.95
 24.07    519.48     22.79
 24.17    548.00     23.41
 24.27    506.25     22.50
 24.37    581.00     24.10
 24.47    543.00     23.30
 24.57    629.00     25.08
 24.67    607.00     24.64
 24.77    606.83     24.63
 24.87    601.00     24.52
 24.97    649.23     25.48
 25.07    562.32     23.71
 25.17    548.13     23.41
 25.27    622.00     24.94
 25.37    497.62     22.31
 25.47    545.00     23.35
 25.57    625.00     25.00
 25.67    554.00     23.54
 25.77    555.00     23.56
 25.87    575.00     23.98
 25.97    582.00     24.12
 26.07    544.00     23.32
 26.17    526.00     22.93
 26.27    540.83     23.26
 26.37    573.00     23.94
 26.47    534.00     23.11
 26.57    506.54     22.51
 26.67    540.00     23.24
 26.77    570.00     23.87
 26.87    549.00     23.43
 26.97    512.12     22.63
 27.07    583.96     24.17
 27.17    565.00     23.77
 27.27    494.78     22.24
 27.37    567.00     23.81
 27.47    536.00     23.15
 27.57    581.00     24.10
 27.67    509.45     22.57
 27.77    561.00     23.69
 27.87    600.68     24.51
 27.97    639.28     25.28
 28.07    770.00     27.75
 28.17    946.23     30.76
 28.27   1036.87     32.20
 28.37    881.00     29.68
 28.47    796.46     28.22
 28.57    695.00     26.36
 28.67    748.00     27.35
 28.77    749.00     27.37
 28.87    798.72     28.26
 28.97    810.00     28.46
 29.07    776.00     27.86
 29.17    707.00     26.59
 29.27    647.00     25.44
 29.37    603.97     24.58
 29.47    594.00     24.37
 29.57    608.00     24.66
 29.67    608.00     24.66
 29.77    621.00     24.92
 29.87    557.00     23.60
 29.97    587.89     24.25
 30.07    546.00     23.37
 30.17    556.00     23.58
 30.27    563.00     23.73
 30.37    563.78     23.74
 30.47    513.35     22.66
 30.57    504.12     22.45
 30.67    607.00     24.64
 30.77    577.00     24.02
 30.87    596.56     24.42
 30.97    652.00     25.53
 31.07    579.00     24.06
 31.17    575.00     23.98
 31.27    559.15     23.65
 31.37    585.42     24.20
 31.47    523.00     22.87
 31.57    526.00     22.93
 31.67    547.21     23.39
 31.77    560.00     23.66
 31.87    560.00     23.66
 31.97    564.02     23.75
 32.07    565.96     23.79
 32.17    545.00     23.35
 32.27    536.00     23.15
 32.37    611.00     24.72
 32.47    547.00     23.39
 32.57    550.00     23.45
 32.67    572.52     23.93
 32.77    587.00     24.23
 32.87    544.00     23.32
 32.97    585.00     24.19
 33.07    562.20     23.71
 33.17    533.00     23.09
 33.27    581.09     24.11
 33.37    520.00     22.80
 33.47    544.00     23.32
 33.57    611.48     24.73
 33.67    642.00     25.34
 33.77    750.73     27.40
 33.87    920.00     30.33
 33.97   1025.00     32.02
 34.07   1008.00     31.75
 34.17   1028.05     32.06
 34.27    884.00     29.73
 34.37    726.68     26.96
 34.47    673.00     25.94
 34.57    591.00     24.31
 34.67    565.00     23.77
 34.77    504.81     22.47
 34.87    568.00     23.83
 34.97    527.00     22.96
 35.07    580.00     24.08
 35.17    505.00     22.47
 35.27    571.12     23.90
 35.37    492.38     22.19
 35.47    533.00     23.09
 35.57    534.00     23.11
 35.67    551.00     23.47
 35.77    543.00     23.30
 35.87    492.00     22.18
 35.97    522.00     22.85
 36.07    492.00     22.18
 36.17    513.87     22.67
 36.27    518.00     22.76
 36.37    520.87     22.82
 36.47    527.00     22.96
 36.57    525.00     22.91
 36.67    520.00     22.80
 36.77    509.00     22.56
 36.87    512.00     22.63
 36.97    543.00     23.30
 37.07    493.00     22.20
 37.17    510.00     22.58
 37.27    505.00     22.47
 37.37    528.00     22.98
 37.47    489.71     22.13
 37.57    538.00     23.19
 37.67    499.00     22.34
 37.77    573.38     23.95
 37.87    536.00     23.15
 37.97    529.56     23.01
 38.07    523.00     22.87
 38.17    503.55     22.44
 38.27    515.00     22.69
 38.37    504.00     22.45
 38.47    538.76     23.21
 38.57    511.00     22.61
 38.67    520.99     22.83
 38.77    491.00     22.16
 38.87    488.40     22.10
 38.97    488.00     22.09
 39.07    518.00     22.76
 39.17    496.00     22.27
 39.27    534.00     23.11
 39.37    505.00     22.47
 39.47    509.00     22.56
 39.57    501.29     22.39
 39.67    535.88     23.15
 39.77    508.48     22.55
 39.87    471.55     21.72
 39.97    476.00     21.82
 40.07    533.90     23.11
 40.17    506.29     22.50
 40.27    496.00     22.27
 40.37    451.00     21.24
 40.47    515.54     22.71
 40.57    492.00     22.18
 40.67    512.57     22.64
 40.77    548.72     23.42
 40.87    512.90     22.65
 40.97    501.78     22.40
 41.07    508.00     22.54
 41.17    523.00     22.87
 41.27    481.00     21.93
 41.37    476.03     21.82
 41.47    540.36     23.25
 41.57    533.15     23.09
 41.67    531.00     23.04
 41.77    457.00     21.38
 41.87    511.00     22.61
 41.97    515.00     22.69
 42.07    515.00     22.69
 42.17    522.00     22.85
 42.27    519.88     22.80
 42.37    533.00     23.09
 42.47    593.00     24.35
 42.57    582.21     24.13
 42.67    590.00     24.29
 42.77    595.00     24.39
 42.87    652.86     25.55
 42.97    566.00     23.79
 43.07    565.63     23.78
 43.17    518.00     22.76
 43.27    477.48     21.85
 43.37    515.00     22.69
 43.47    466.48     21.60
 43.57    485.25     22.03
 43.67    534.00     23.11
 43.77    547.57     23.40
 43.87    501.00     22.38
 43.97    486.00     22.05
 44.07    505.79     22.49
 44.17    494.00     22.23
 44.27    545.00     23.35
 44.37    518.75     22.78
 44.47    554.00     23.54
 44.57    501.00     22.38
 44.67    553.21     23.52
 44.77    502.00     22.41
 44.87    532.00     23.07
 44.97    506.00     22.49
 45.07    527.60     22.97
 45.17    493.27     22.21
 45.27    529.04     23.00
 45.37    527.00     22.96
 45.47    498.00     22.32
 45.57    471.39     21.71
 45.67    487.13     22.07
 45.77    503.00     22.43
 45.87    460.00     21.45
 45.97    501.00     22.38
 46.07    504.21     22.45
 46.17    487.54     22.08
 46.27    484.07     22.00
 46.37    492.00     22.18
 46.47    523.00     22.87
 46.57    492.00     22.18
 46.67    501.00     22.38
 46.77    534.79     23.13
 46.87    465.00     21.56
 46.97    499.00     22.34
 47.07    560.64     23.68
 47.17    526.00     22.93
 47.27    501.78     22.40
 47.37    504.00     22.45
 47.47    538.15     23.20
 47.57    561.65     23.70
 47.67    571.00     23.90
 47.77    586.44     24.22
 47.87    613.00     24.76
 47.97    591.67     24.32
 48.07    614.00     24.78
 48.17    576.00     24.00
 48.27    531.46     23.05
 48.37    590.29     24.30
 48.47    572.00     23.92
 48.57    506.95     22.52
 48.67    569.00     23.85
 48.77    550.00     23.45
 48.87    553.00     23.52
 48.97    562.00     23.71
 49.07    546.00     23.37
 49.17    597.00     24.43
 49.27    633.00     25.16
 49.37    654.00     25.57
 49.47    679.81     26.07
 49.57    770.00     27.75
 49.67    942.52     30.70
 49.77   1127.00     33.57
 49.87   1466.35     38.29
 49.97   1858.00     43.10
 50.07   2337.00     48.34
 50.17   2555.00     50.55
 50.27   2509.00     50.09
 50.37   2250.85     47.44
 50.47   1947.00     44.12
 50.57   1410.00     37.55
 50.67   1042.00     32.28
 50.77    834.00     28.88
 50.87    674.00     25.96
 50.97    668.00     25.85
 51.07    640.04     25.30
 51.17    602.00     24.54
 51.27    631.00     25.12
 51.37    559.16     23.65
 51.47    568.00     23.83
 51.57    596.15     24.42
 51.67    560.00     23.66
 51.77    537.42     23.18
 51.87    555.00     23.56
 51.97    554.00     23.54
 52.07    544.26     23.33
 52.17    540.16     23.24
 52.27    541.00     23.26
 52.37    556.00     23.58
 52.47    549.94     23.45
 52.57    575.00     23.98
 52.67    528.48     22.99
 52.77    625.96     25.02
 52.87    652.00     25.53
 52.97    740.00     27.20
 53.07    781.68     27.96
 53.17    965.83     31.08
 53.27   1089.00     33.00
 53.37   1079.60     32.86
 53.47   1167.00     34.16
 53.57   1208.00     34.76
 53.67   1161.57     34.08
 53.77   1007.00     31.73
 53.87    892.32     29.87
 53.97    788.04     28.07
 54.07    641.00     25.32
 54.17    639.00     25.28
 54.27    598.47     24.46
 54.37    542.16     23.28
 54.47    575.00     23.98
 54.57    569.00     23.85
 54.67    571.00     23.90
 54.77    545.00     23.35
 54.87    599.00     24.47
 54.97    573.00     23.94
 55.07    565.35     23.78
 55.17    512.00     22.63
 55.27    589.00     24.27
 55.37    582.00     24.12
 55.47    575.00     23.98
 55.57    553.00     23.52
 55.67    603.00     24.56
 55.77    602.00     24.54
 55.87    610.00     24.70
 55.97    595.00     24.39
 56.07    690.51     26.28
 56.17    797.00     28.23
 56.27    857.00     29.27
 56.37   1092.43     33.05
 56.47   1377.00     37.11
 56.57   1804.70     42.48
 56.67   2110.00     45.93
 56.77   2618.47     51.17
 56.87   2640.00     51.38
 56.97   2629.00     51.27
 57.07   2403.11     49.02
 57.17   2095.00     45.77
 57.27   1709.00     41.34
 57.37   1347.00     36.70
 57.47    989.79     31.46
 57.57    859.00     29.31
 57.67    796.00     28.21
 57.77    748.00     27.35
 57.87    661.00     25.71
 57.97    706.52     26.58
 58.07    679.69     26.07
 58.17    731.00     27.04
 58.27    728.00     26.98
 58.37    917.45     30.29
 58.47    967.00     31.10
 58.57   1144.67     33.83
 58.67   1278.00     35.75
 58.77   1356.68     36.83
 58.87   1436.00     37.89
 58.97   1510.00     38.86
 59.07   1576.00     39.70
 59.17   1469.56     38.33
 59.27   1471.00     38.35
 59.37   1367.72     36.98
 59.47   1289.00     35.90
 59.57   1109.89     33.31
 59.67   1148.93     33.90
 59.77   1080.49     32.87
 59.87   1154.00     33.97
 59.97   1268.24     35.61
 60.07   1430.00     37.82
 60.17   1582.23     39.78
 60.27   1580.00     39.75
 60.37   1495.00     38.67
 60.47   1322.84     36.37
 60.57   1179.62     34.35
 60.67   1079.00     32.85
 60.77    896.87     29.95
 60.87    828.88     28.79
 60.97    724.00     26.91
 61.07    679.00     26.06
 61.17    639.50     25.29
 61.27    651.00     25.51
 61.37    669.52     25.88
 61.47    702.00     26.50
 61.57    701.00     26.48
 61.67    885.00     29.75
 61.77    921.00     30.35
 61.87   1048.00     32.37
 61.97   1249.00     35.34
 62.07   1337.00     36.57
 62.17   1350.00     36.74
 62.27   1417.00     37.64
 62.37   1275.00     35.71
 62.47   1234.00     35.13
 62.57   1085.00     32.94
 62.67    878.54     29.64
 62.77    796.00     28.21
 62.87    717.43     26.78
 62.97    662.00     25.73
 63.07    595.00     24.39
 63.17    564.00     23.75
 63.27    595.00     24.39
 63.37    566.00     23.79
 63.47    559.23     23.65
 63.57    566.12     23.79
 63.67    555.00     23.56
 63.77    624.83     25.00
 63.87    610.63     24.71
 63.97    682.00     26.12
 64.07    638.46     25.27
 64.17    808.63     28.44
 64.27    812.00     28.50
 64.37    929.35     30.49
 64.47    983.00     31.35
 64.57   1061.00     32.57
 64.67    958.54     30.96
 64.77   1041.00     32.26
 64.87    965.06     31.07
 64.97    904.00     30.07
 65.07    840.00     28.98
 65.17    757.00     27.51
 65.27    759.00     27.55
 65.37    690.00     26.27
 65.47    592.00     24.33
 65.57    625.00     25.00
 65.67    637.54     25.25
 65.77    556.00     23.58
 65.87    624.26     24.99
 65.97    539.00     23.22
 66.07    578.00     24.04
 66.17    602.01     24.54
 66.27    568.06     23.83
 66.37    576.00     24.00
 66.47    577.19     24.02
 66.57    547.00     23.39
 66.67    532.23     23.07
 66.77    585.38     24.19
 66.87    637.80     25.25
 66.97    623.00     24.96
 67.07    572.00     23.92
 67.17    704.00     26.53
 67.27    726.00     26.94
 67.37    867.00     29.44
 67.47   1029.44     32.08
 67.57   1282.10     35.81
 67.67   1563.00     39.53
 67.77   1771.00     42.08
 67.87   2131.13     46.16
 67.97   2347.00     48.45
 68.07   2511.00     50.11
 68.17   2448.66     49.48
 68.27   2229.00     47.21
 68.37   2134.00     46.20
 68.47   1776.40     42.15
 68.57   1454.50     38.14
 68.67   1240.00     35.21
 68.77   1035.33     32.18
 68.87    867.37     29.45
 68.97    810.00     28.46
 69.07    701.00     26.48
 69.17    693.66     26.34
 69.27    602.00     24.54
 69.37    591.00     24.31
 69.47    588.70     24.26
 69.57    541.00     23.26
 69.67    589.00     24.27
 69.77    620.00     24.90
 69.87    615.66     24.81
 69.97    571.00     23.90
 70.07    567.00     23.81
 70.17    564.00     23.75
 70.27    519.70     22.80
 70.37    542.40     23.29
 70.47    537.00     23.17
 70.57    546.27     23.37
 70.67    561.00     23.69
 70.77    580.00     24.08
 70.87    583.00     24.15
 70.97    649.26     25.48
 71.07    693.74     26.34
 71.17    786.16     28.04
 71.27    855.17     29.24
 71.37    911.00     30.18
 71.47   1022.72     31.98
 71.57   1194.00     34.55
 71.67   1430.00     37.82
 71.77   1622.00     40.27
 71.87   1824.00     42.71
 71.97   1811.51     42.56
 72.07   1932.00     43.95
 72.17   1877.00     43.32
 72.27   1714.06     41.40
 72.37   1555.67     39.44
 72.47   1408.98     37.54
 72.57   1389.28     37.27
 72.67   1219.19     34.92
 72.77   1051.00     32.42
 72.87    893.00     29.88
 72.97    871.14     29.52
 73.07    796.00     28.21
 73.17    838.16     28.95
 73.27    641.00     25.32
 73.37    662.12     25.73
 73.47    680.21     26.08
 73.57    694.52     26.35
 73.67    565.00     23.77
 73.77    604.00     24.58
 73.87    612.00     24.74
 73.97    560.00     23.66
 74.07    545.16     23.35
 74.17    569.00     23.85
 74.27    605.00     24.60
 74.37    568.64     23.85
 74.47    618.00     24.86
 74.57    594.75     24.39
 74.67    523.74     22.89
 74.77    574.00     23.96
 74.87    673.00     25.94
 74.97    639.00     25.28
 75.07    622.00     24.94
 75.17    540.00     23.24
 75.27    548.00     23.41
 75.37    570.00     23.87
 75.47    558.00     23.62
 75.57    570.21     23.88
 75.67    598.00     24.45
 75.77    552.00     23.49
 75.87    593.00     24.35
 75.97    624.00     24.98
 76.07    639.00     25.28
 76.17    615.61     24.81
 76.27    710.00     26.65
 76.37    743.00     27.26
 76.47    734.00     27.09
 76.57    738.00     27.17
 76.67    700.00     26.46
 76.77    728.74     27.00
 76.87    670.00     25.88
 76.97    649.00     25.48
 77.07    617.00     24.84
 77.17    559.00     23.64
 77.27    630.53     25.11
 77.37    599.43     24.48
 77.47    565.00     23.77
 77.57    511.42     22.61
 77.67    516.00     22.72
 77.77    554.00     23.54
 77.87    582.80     24.14
 77.97    530.00     23.02
 78.07    575.17     23.98
 78.17    544.00     23.32
 78.27    537.00     23.17
 78.37    509.94     22.58
 78.47    521.08     22.83
 78.57    568.29     23.84
 78.67    502.00     22.41
 78.77    549.00     23.43
 78.87    500.61     22.37
 78.97    503.67     22.44
 79.07    514.22     22.68
 79.17    510.00     22.58
 79.27    515.55     22.71
 79.37    555.00     23.56
 79.47    566.45     23.80
 79.57    511.00     22.61
 79.67    547.82     23.41
 79.77    567.00     23.81
 79.87    554.00     23.54
 79.97    536.00     23.15
 80.07    586.03     24.21
 80.17    544.00     23.32
 80.27    600.31     24.50
 80.37    599.44     24.48
 80.47    574.84     23.98
 80.57    618.00     24.86
 80.67    639.00     25.28
 80.77    666.46     25.82
 80.87    670.00     25.88
 80.97    645.23     25.40
 81.07    735.00     27.11
 81.17    754.00     27.46
 81.27    801.00     28.30
 81.37    798.24     28.25
 81.47    753.00     27.44
 81.57    768.33     27.72
 81.67    755.00     27.48
 81.77    713.00     26.70
 81.87    731.00     27.04
 81.97    703.00     26.51
 82.07    709.05     26.63
 82.17    673.00     25.94
 82.27    656.45     25.62
 82.37    625.28     25.01
 82.47    592.00     24.33
 82.57    602.00     24.54
 82.67    544.00     23.32
 82.77    579.00     24.06
 82.87    540.00     23.24
 82.97    580.00     24.08
 83.07    541.00     23.26
 83.17    588.00     24.25
 83.27    587.00     24.23
 83.37    567.65     23.83
 83.47    535.00     23.13
 83.57    560.80     23.68
 83.67    570.00     23.87
 83.77    561.00     23.69
 83.87    559.00     23.64
 83.97    539.71     23.23
 84.07    546.00     23.37
 84.17    569.00     23.85
 84.27    555.00     23.56
 84.37    573.00     23.94
 84.47    554.12     23.54
 84.57    524.00     22.89
 84.67    512.00     22.63
 84.77    583.09     24.15
 84.87    532.00     23.07
 84.97    554.00     23.54
 85.07    546.00     23.37
 85.17    556.00     23.58
 85.27    491.00     22.16
 85.37    513.99     22.67
 85.47    513.00     22.65
 85.57    472.00     21.73
 85.67    537.50     23.18
 85.77    516.00     22.72
 85.87    544.00     23.32
 85.97    541.00     23.26
 86.07    579.87     24.08
 86.17    502.56     22.42
 86.27    503.29     22.43
 86.37    559.00     23.64
 86.47    580.51     24.09
 86.57    510.00     22.58
 86.67    585.00     24.19
 86.77    553.70     23.53
 86.87    560.79     23.68
 86.97    588.00     24.25
 87.07    616.90     24.84
 87.17    600.57     24.51
 87.27    688.00     26.23
 87.37    656.00     25.61
 87.47    644.00     25.38
 87.57    627.00     25.04
 87.67    674.00     25.96
 87.77    640.00     25.30
 87.87    650.00     25.50
 87.97    591.65     24.32
 88.07    629.00     25.08
 88.17    628.90     25.08
 88.27    588.00     24.25
 88.37    571.00     23.90
 88.47    588.00     24.25
 88.57    574.00     23.96
 88.67    583.00     24.15
 88.77    593.33     24.36
 88.87    610.00     24.70
 88.97    616.00     24.82
 89.07    603.13     24.56
 89.17    621.00     24.92
 89.27    621.00     24.92
 89.37    596.61     24.43
 89.47    540.00     23.24
 89.57    604.98     24.60
 89.67    596.56     24.42
 89.77    599.46     24.48
 89.87    538.00     23.19
 89.97    543.00     23.30
 90.07    540.00     23.24
 90.17    543.00     23.30
 90.27    487.00     22.07
 90.37    539.00     23.22
 90.47    549.00     23.43
 90.57    553.00     23.52
 90.67    506.00     22.49
 90.77    527.00     22.96
 90.87    544.00     23.32
 90.97    538.00     23.19
 91.07    543.86     23.32
 91.17    500.00     22.36
 91.27    505.58     22.49
 91.37    546.67     23.38
 91.47    489.00     22.11
 91.57    515.31     22.70
 91.67    531.00     23.04
 91.77    545.00     23.35
 91.87    583.18     24.15
 91.97    545.00     23.35
 92.07    596.63     24.43
 92.17    602.73     24.55
 92.27    602.00     24.54
 92.37    555.70     23.57
 92.47    579.17     24.07
 92.57    675.00     25.98
 92.67    666.00     25.81
 92.77    668.43     25.85
 92.87    690.00     26.27
 92.97    748.00     27.35
 93.07    710.25     26.65
 93.17    773.00     27.80
 93.27    751.00     27.40
 93.37    901.00     30.02
 93.47    803.22     28.34
 93.57    789.00     28.09
 93.67    763.99     27.64
 93.77    832.84     28.86
 93.87    860.00     29.33
 93.97    846.00     29.09
 94.07    891.00     29.85
 94.17    879.00     29.65
 94.27    857.00     29.27
 94.37    864.82     29.41
 94.47    906.00     30.10
 94.57    845.04     29.07
 94.67    829.92     28.81
 94.77    947.53     30.78
 94.87    912.00     30.20
 94.97    880.00     29.66
 95.07    912.03     30.20
 95.17    820.24     28.64
 95.27    818.00     28.60
 95.37    859.00     29.31
 95.47    802.15     28.32
 95.57    759.00     27.55
 95.67    732.00     27.06
 95.77    728.82     27.00
 95.87    720.00     26.83
 95.97    691.10     26.29
 96.07    726.86     26.96
 96.17    679.00     26.06
 96.27    684.11     26.16
 96.37    738.00     27.17
 96.47    812.00     28.50
 96.57    894.99     29.92
 96.67    964.33     31.05
 96.77    956.00     30.92
 96.87   1065.99     32.65
 96.97   1097.00     33.12
 97.07   1178.00     34.32
 97.17   1218.00     34.90
 97.27   1288.16     35.89
 97.37   1350.00     36.74
 97.47   1418.00     37.66
 97.57   1417.24     37.65
 97.67   1468.51     38.32
 97.77   1423.75     37.73
 97.87   1306.00     36.14
 97.97   1288.00     35.89
 98.07   1150.04     33.91
 98.17   1228.00     35.04
 98.27   1086.00     32.95
 98.37   1028.87     32.08
 98.47    923.00     30.38
 98.57    940.00     30.66
 98.67    873.00     29.55
 98.77    851.23     29.18
 98.87    814.00     28.53
 98.97    820.16     28.64
 99.07    818.69     28.61
 99.17    803.00     28.34
 99.27    914.00     30.23
 99.37    926.86     30.44
 99.47   1077.00     32.82
 99.57   1094.00     33.08
 99.67   1161.00     34.07
 99.77   1242.00     35.24
 99.87   1348.00     36.72
 99.97   1453.45     38.12
100.07   1590.00     39.87
100.17   1723.91     41.52
100.27   1841.00     42.91
100.37   1848.49     42.99
100.47   1999.00     44.71
100.57   2058.00     45.37
100.67   2052.00     45.30
100.77   2084.00     45.65
100.87   2088.35     45.70
100.97   2042.00     45.19
101.07   1987.00     44.58
101.17   1946.00     44.11
101.27   1882.56     43.39
101.37   1710.00     41.35
101.47   1648.00     40.60
101.57   1515.00     38.92
101.67   1441.00     37.96
101.77   1396.00     37.36
101.87   1269.00     35.62
101.97   1296.93     36.01
102.07   1178.23     34.33
102.17   1179.94     34.35
102.27   1132.00     33.65
102.37   1125.00     33.54
102.47   1049.00     32.39
102.57   1088.00     32.98
102.67   1043.00     32.30
102.77   1065.00     32.63
102.87   1000.00     31.62
102.97    996.02     31.56
103.07    907.00     30.12
103.17    886.00     29.77
103.27    841.00     29.00
103.37    770.34     27.76
103.47    786.00     28.04
103.57    724.87     26.92
103.67    699.00     26.44
103.77    663.00     25.75
103.87    642.00     25.34
103.97    635.00     25.20
104.07    556.00     23.58
104.17    598.00     24.45
104.27    551.00     23.47
104.37    580.00     24.08
104.47    562.00     23.71
104.57    577.00     24.02
104.67    589.00     24.27
104.77    557.47     23.61
104.87    497.00     22.29
104.97    576.19     24.00
105.07    564.87     23.77
105.17    514.00     22.67
105.27    538.00     23.19
105.37    545.00     23.35
105.47    574.00     23.96
105.57    584.58     24.18
105.67    582.01     24.12
105.77    549.00     23.43
105.87    585.00     24.19
105.97    563.00     23.73
106.07    621.00     24.92
106.17    552.00     23.49
106.27    548.00     23.41
106.37    630.00     25.10
106.47    550.00     23.45
106.57    596.00     24.41
106.67    609.00     24.68
106.77    648.00     25.46
106.87    663.00     25.75
106.97    634.00     25.18
107.07    634.00     25.18
107.17    645.00     25.40
107.27    686.00     26.19
107.37    686.00     26.19
107.47    704.87     26.55
107.57    734.56     27.10
107.67    663.26     25.75
107.77    668.97     25.86
107.87    674.00     25.96
107.97    643.00     25.36
108.07    704.78     26.55
108.17    728.00     26.98
108.27    698.00     26.42
108.37    724.00     26.91
108.47    656.00     25.61
108.57    690.00     26.27
108.67    677.19     26.02
108.77    699.00     26.44
108.87    703.00     26.51
108.97    672.25     25.93
109.07    665.59     25.80
109.17    645.00     25.40
109.27    705.40     26.56
109.37    705.71     26.57
109.47    655.00     25.59
109.57    666.43     25.82
109.67    595.00     24.39
109.77    608.00     24.66
109.87    591.74     24.33
109.97    585.00     24.19
110.07    631.00     25.12
110.17    548.82     23.43
110.27    514.55     22.68
110.37    556.91     23.60
110.47    560.53     23.68
110.57    516.00     22.72
110.67    518.00     22.76
110.77    567.00     23.81
110.87    552.34     23.50
110.97    550.00     23.45
111.07    541.00     23.26
111.17    516.00     22.72
111.27    552.00     23.49
111.37    557.00     23.60
111.47    589.03     24.27
111.57    550.00     23.45
111.67    534.00     23.11
111.77    549.00     23.43
111.87    547.00     23.39
111.97    551.82     23.49
112.07    569.00     23.85
112.17    609.00     24.68
112.27    607.99     24.66
112.37    533.91     23.11
112.47    550.38     23.46
112.57    587.45     24.24
112.67    630.00     25.10
112.77    594.00     24.37
112.87    637.73     25.25
112.97    615.65     24.81
113.07    676.00     26.00
113.17    714.66     26.73
113.27    710.00     26.65
113.37    758.00     27.53
113.47    796.00     28.21
113.57    833.15     28.86
113.67    903.94     30.07
113.77    884.71     29.74
113.87    928.00     30.46
113.97    963.00     31.03
114.07   1000.47     31.63
114.17   1064.00     32.62
114.27   1179.31     34.34
114.37   1244.00     35.27
114.47   1393.30     37.33
114.57   1442.00     37.97
114.67   1561.64     39.52
114.77   1705.00     41.29
114.87   1890.00     43.47
114.97   2153.00     46.40
115.07   2282.55     47.78
115.17   2547.41     50.47
115.27   2812.00     53.03
115.37   3143.00     56.06
115.47   3460.59     58.83
115.57   3886.99     62.35
115.67   4072.25     63.81
115.77   4403.00     66.36
115.87   5024.70     70.89
115.97   5222.18     72.26
116.07   5607.00     74.88
116.17   6051.00     77.79
116.27   6309.00     79.43
116.37   6485.86     80.53
116.47   6754.00     82.18
116.57   6986.08     83.58
116.67   6923.00     83.20
116.77   6993.06     83.62
116.87   6774.95     82.31
116.97   6715.00     81.95
117.07   6505.00     80.65
117.17   6292.93     79.33
117.27   5764.00     75.92
117.37   5242.00     72.40
117.47   5067.00     71.18
117.57   4560.00     67.53
117.67   4284.00     65.45
117.77   3916.42     62.58
117.87   3741.00     61.16
117.97   3208.38     56.64
118.07   2900.00     53.85
118.17   2488.17     49.88
118.27   2143.52     46.30
118.37   2047.00     45.24
118.47   1689.00     41.10
118.57   1590.00     39.87
118.67   1422.83     37.72
118.77   1178.00     34.32
118.87   1131.00     33.63
118.97   1036.00     32.19
119.07    922.00     30.36
119.17    932.81     30.54
119.27    783.00     27.98
119.37    752.00     27.42
119.47    755.00     27.48
119.57    659.16     25.67
119.67    674.49     25.97
119.77    618.00     24.86
119.87    682.08     26.12
119.97    578.00     24.04
120.07    583.00     24.15
120.17    620.00     24.90
120.27    573.00     23.94
120.37    585.00     24.19
120.47    586.75     24.22
120.57    559.41     23.65
120.67    604.00     24.58
120.77    562.25     23.71
120.87    596.00     24.41
120.97    575.00     23.98
121.07    578.73     24.06
121.17    574.00     23.96
121.27    563.00     23.73
121.37    554.41     23.55
121.47    591.36     24.32
121.57    621.00     24.92
121.67    540.60     23.25
121.77    593.00     24.35
121.87    608.00     24.66
121.97    593.56     24.36
122.07    625.00     25.00
122.17    618.00     24.86
122.27    625.00     25.00
122.37    609.00     24.68
122.47    612.00     24.74
122.57    631.00     25.12
122.67    648.00     25.46
122.77    668.00     25.85
122.87    640.00     25.30
122.97    653.00     25.55
123.07    613.72     24.77
123.17    641.00     25.32
123.27    662.00     25.73
123.37    649.75     25.49
123.47    652.00     25.53
123.57    645.00     25.40
123.67    653.00     25.55
123.77    680.11     26.08
123.87    575.00     23.98
123.97    646.00     25.42
124.07    624.97     25.00
124.17    601.00     24.52
124.27    571.05     23.90
124.37    598.12     24.46
124.47    607.00     24.64
124.57    618.00     24.86
124.67    639.00     25.28
124.77    594.00     24.37
124.87    568.82     23.85
124.97    610.07     24.70
