XYDATA



INTER 1.0 1.0 0 0
TEMP 1056.227
  9.97    617.00     24.84
 10.07    579.00     24.06
 10.17    603.17     24.56
 10.27    593.00     24.35
 10.37    541.98     23.28
 10.47    576.00     24.00
 10.57    614.65     24.79
 10.67    584.00     24.17
 10.77    532.00     23.07
 10.87    586.00     24.21
 10.97    571.00     23.90
 11.07    537.23     23.18
 11.17    562.00     23.71
 11.27    597.00     24.43
 11.37    529.05     23.00
 11.47    597.00     24.43
 11.57    557.35     23.61
 11.67    632.00     25.14
 11.77    656.00     25.61
 11.87    659.00     25.67
 11.97    625.72     25.01
 12.07    646.00     25.42
 12.17    702.00     26.50
 12.27    660.00     25.69
 12.37    721.45     26.86
 12.47    583.00     24.15
 12.57    637.00     25.24
 12.67    567.88     23.83
 12.77    568.00     23.83
 12.87    580.72     24.10
 12.97    588.00     24.25
 13.07    537.00     23.17
 13.17    517.00     22.74
 13.27    545.52     23.36
 13.37    562.00     23.71
 13.47    548.00     23.41
 13.57    555.00     23.56
 13.67    554.00     23.54
 13.77    612.42     24.75
 13.87    607.00     24.64
 13.97    569.00     23.85
 14.07    552.00     23.49
 14.17    600.00     24.49
 14.27    583.00     24.15
 14.37    605.03     24.60
 14.47    532.00     23.07
 14.57    575.59     23.99
 14.67    535.00     23.13
 14.77    583.17     24.15
 14.87    553.00     23.52
 14.97    550.00     23.45
 15.07    561.29     23.69
 15.17    538.00     23.19
 15.27    539.07     23.22
 15.37    561.70     23.70
 15.47    536.00     23.15
 15.57    560.00     23.66
 15.67    544.00     23.32
 15.77    555.00     23.56
 15.87    607.00     24.64
 15.97    533.00     23.09
 16.07    539.00     23.22
 16.17    559.00     23.64
 16.27    580.00     24.08
 16.37    568.00     23.83
 16.47    580.41     24.09
 16.57    608.56     24.67
 16.67    604.00     24.58
 16.77    573.00     23.94
 16.87    538.00     23.19
 16.97    536.77     23.17
 17.07    598.91     24.47
 17.17    580.53     24.09
 17.27    563.00     23.73
 17.37    524.46     22.90
 17.47    525.58     22.93
 17.57    539.19     23.22
 17.67    555.00     23.56
 17.77    578.00     24.04
 17.87    553.00     23.52
 17.97    586.00     24.21
 18.07    539.00     23.22
 18.17    544.10     23.33
 18.27    560.00     23.66
 18.37    556.00     23.58
 18.47    542.00     23.28
 18.57    545.99     23.37
 18.67    550.91     23.47
 18.77    599.48     24.48
 18.87    528.00     22.98
 18.97    556.66     23.59
 19.07    576.99     24.02
 19.17    591.98     24.33
 19.27    538.00     23.19
 19.37    545.00     23.35
 19.47    592.96     24.35
 19.57    574.00     23.96
 19.67    557.88     23.62
 19.77    549.00     23.43
 19.87    563.71     23.74
 19.97    586.72     24.22
 20.07    557.17     23.60
 20.17    586.85     24.23
 20.27    546.00     23.37
 20.37    589.79     24.29
 20.47    593.53     24.36
 20.57    546.00     23.37
 20.67    593.67     24.37
 20.77    579.00     24.06
 20.87    545.00     23.35
 20.97    520.82     22.82
 21.07    531.00     23.04
 21.17    554.00     23.54
 21.27    570.00     23.87
 21.37    547.85     23.41
 21.47    560.47     23.67
 21.57    587.00     24.23
 21.67    531.00     23.04
 21.77    529.56     23.01
 21.87    530.95     23.04
 21.97    487.00     22.07
 22.07    514.15     22.67
 22.17    549.45     23.44
 22.27    522.00     22.85
 22.37    527.36     22.96
 22.47    523.00     22.87
 22.57    545.97     23.37
 22.67    552.00     23.49
 22.77    589.83     24.29
 22.87    545.82     23.36
 22.97    552.00     23.49
 23.07    543.00     23.30
 23.17    548.00     23.41
 23.27    537.00     23.17
 23.37    569.75     23.87
 23.47    569.00     23.85
 23.57    518.00     22.76
 23.67    569.32     23.86
 23.77    592.00     24.33
 23.87    539.00     23.22
 23.97    512.00     22.63
 24.07    539.00     23.22
 24.17    568.00     23.83
 24.27    586.00     24.21
 24.37    542.00     23.28
 24.47    575.66     23.99
 24.57    579.26     24.07
 24.67    584.03     24.17
 24.77    646.39     25.42
 24.87    583.00     24.15
 24.97    597.00     24.43
 25.07    641.00     25.32
 25.17    571.90     23.91
 25.27    553.00     23.52
 25.37    565.63     23.78
 25.47    550.00     23.45
 25.57    536.00     23.15
 25.67    555.00     23.56
 25.77    559.71     23.66
 25.87    603.00     24.56
 25.97    550.00     23.45
 26.07    613.00     24.76
 26.17    568.00     23.83
 26.27    553.19     23.52
 26.37    508.01     22.54
 26.47    579.17     24.07
 26.57    583.00     24.15
 26.67    545.45     23.35
 26.77    577.00     24.02
 26.87    506.62     22.51
 26.97    561.00     23.69
 27.07    541.91     23.28
 27.17    539.00     23.22
 27.27    573.00     23.94
 27.37    586.00     24.21
 27.47    501.95     22.40
 27.57    536.64     23.17
 27.67    590.00     24.29
 27.77    561.00     23.69
 27.87    588.00     24.25
 27.97    641.00     25.32
 28.07    736.00     27.13
 28.17    933.06     30.55
 28.27    995.31     31.55
 28.37    904.94     30.08
 28.47    793.00     28.16
 28.57    672.00     25.92
 28.67    715.00     26.74
 28.77    697.53     26.41
 28.87    804.57     28.36
 28.97    765.00     27.66
 29.07    784.00     28.00
 29.17    699.00     26.44
 29.27    640.00     25.30
 29.37    612.00     24.74
 29.47    629.85     25.10
 29.57    640.00     25.30
 29.67    606.00     24.62
 29.77    599.00     24.47
 29.87    571.00     23.90
 29.97    547.00     23.39
 30.07    540.76     23.25
 30.17    530.00     23.02
 30.27    571.57     23.91
 30.37    517.96     22.76
 30.47    569.00     23.85
 30.57    570.00     23.87
 30.67    597.00     24.43
 30.77    554.99     23.56
 30.87    591.00     24.31
 30.97    645.02     25.40
 31.07    617.00     24.84
 31.17    565.00     23.77
 31.27    572.00     23.92
 31.37    570.15     23.88
 31.47    535.00     23.13
 31.57    549.00     23.43
 31.67    532.00     23.07
 31.77    541.00     23.26
 31.87    508.00     22.54
 31.97    540.00     23.24
 32.07    559.00     23.64
 32.17    539.25     23.22
 32.27    545.00     23.35
 32.37    549.74     23.45
 32.47    533.00     23.09
 32.57    528.00     22.98
 32.67    520.00     22.80
 32.77    595.00     24.39
 32.87    548.10     23.41
 32.97    568.77     23.85
 33.07    551.00     23.47
 33.17    494.26     22.23
 33.27    580.00     24.08
 33.37    577.00     24.02
 33.47    538.66     23.21
 33.57    586.65     24.22
 33.67    635.00     25.20
 33.77    780.00     27.93
 33.87    842.00     29.02
 33.97   1061.00     32.57
 34.07   1042.73     32.29
 34.17    995.00     31.54
 34.27    841.30     29.01
 34.37    776.00     27.86
 34.47    615.22     24.80
 34.57    552.03     23.50
 34.67    538.50     23.21
 34.77    546.00     23.37
 34.87    553.00     23.52
 34.97    563.01     23.73
 35.07    563.00     23.73
 35.17    513.00     22.65
 35.27    512.00     22.63
 35.37    549.00     23.43
 35.47    520.00     22.80
 35.57    522.00     22.85
 35.67    560.00     23.66
 35.77    514.00     22.67
 35.87    495.60     22.26
 35.97    496.00     22.27
 36.07    511.00     22.61
 36.17    537.00     23.17
 36.27    506.00     22.49
 36.37    509.00     22.56
 36.47    483.00     21.98
 36.57    514.99     22.69
 36.67    536.00     23.15
 36.77    534.00     23.11
 36.87    502.50     22.42
 36.97    528.00     22.98
 37.07    534.46     23.12
 37.17    493.30     22.21
 37.27    539.00     23.22
 37.37    536.44     23.16
 37.47    516.00     22.72
 37.57    503.00     22.43
 37.67    564.00     23.75
 37.77    520.00     22.80
 37.87    529.55     23.01
 37.97    507.00     22.52
 38.07    500.00     22.36
 38.17    500.00     22.36
 38.27    507.00     22.52
 38.37    497.00     22.29
 38.47    468.93     21.65
 38.57    519.00     22.78
 38.67    497.00     22.29
 38.77    480.00     21.91
 38.87    525.00     22.91
 38.97    481.00     21.93
 39.07    509.00     22.56
 39.17    513.00     22.65
 39.27    478.00     21.86
 39.37    451.00     21.24
 39.47    497.00     22.29
 39.57    519.00     22.78
 39.67    524.00     22.89
 39.77    509.70     22.58
 39.87    515.00     22.69
 39.97    509.00     22.56
 40.07    508.00     22.54
 40.17    485.28     22.03
 40.27    538.00     23.19
 40.37    504.00     22.45
 40.47    473.32     21.76
 40.57    498.00     22.32
 40.67    499.06     22.34
 40.77    467.00     21.61
 40.87    498.59     22.33
 40.97    473.07     21.75
 41.07    477.00     21.84
 41.17    520.00     22.80
 41.27    528.00     22.98
 41.37    459.00     21.42
 41.47    465.00     21.56
 41.57    507.00     22.52
 41.67    473.00     21.75
 41.77    499.00     22.34
 41.87    458.00     21.40
 41.97    535.79     23.15
 42.07    526.00     22.93
 42.17    513.90     22.67
 42.27    560.00     23.66
 42.37    517.00     22.74
 42.47    582.00     24.12
 42.57    601.04     24.52
 42.67    628.74     25.07
 42.77    623.00     24.96
 42.87    584.00     24.17
 42.97    513.00     22.65
 43.07    566.64     23.80
 43.17    512.26     22.63
 43.27    485.96     22.04
 43.37    476.75     21.83
 43.47    497.00     22.29
 43.57    547.30     23.39
 43.67    525.86     22.93
 43.77    544.72     23.34
 43.87    526.00     22.93
 43.97    483.11     21.98
 44.07    496.00     22.27
 44.17    515.00     22.69
 44.27    521.00     22.83
 44.37    463.29     21.52
 44.47    480.00     21.91
 44.57    511.23     22.61
 44.67    500.00     22.36
 44.77    505.00     22.47
 44.87    514.00     22.67
 44.97    466.51     21.60
 45.07    511.37     22.61
 45.17    487.92     22.09
 45.27    518.79     22.78
 45.37    555.00     23.56
 45.47    523.00     22.87
 45.57    482.00     21.95
 45.67    498.00     22.32
 45.77    479.96     21.91
 45.87    500.00     22.36
 45.97    472.00     21.73
 46.07    519.00     22.78
 46.17    502.36     22.41
 46.27    494.00     22.23
 46.37    507.79     22.53
 46.47    476.44     21.83
 46.57    486.00     22.05
 46.67    490.00     22.14
 46.77    524.00     22.89
 46.87    481.00     21.93
 46.97    495.38     22.26
 47.07    497.00     22.29
 47.17    527.00     22.96
 47.27    527.00     22.96
 47.37    498.00     22.32
 47.47    570.14     23.88
 47.57    575.00     23.98
 47.67    584.00     24.17
 47.77    567.00     23.81
 47.87    580.00     24.08
 47.97    583.00     24.15
 48.07    558.67     23.64
 48.17    543.95     23.32
 48.27    574.00     23.96
 48.37    498.00     22.32
 48.47    551.79     23.49
 48.57    552.00     23.49
 48.67    518.00     22.76
 48.77    515.00     22.69
 48.87    504.35     22.46
 48.97    536.73     23.17
 49.07    579.00     24.06
 49.17    549.00     23.43
 49.27    649.00     25.48
 49.37    653.00     25.55
 49.47    707.00     26.59
 49.57    829.91     28.81
 49.67    931.55     30.52
 49.77   1169.07     34.19
 49.87   1432.00     37.84
 49.97   1900.00     43.59
 50.07   2245.00     47.38
 50.17   2463.00     49.63
 50.27   2526.00     50.26
 50.37   2313.00     48.09
 50.47   1905.00     43.65
 50.57   1501.21     38.75
 50.67   1050.00     32.40
 50.77    865.00     29.41
 50.87    700.00     26.46
 50.97    614.00     24.78
 51.07    655.00     25.59
 51.17    612.24     24.74
 51.27    622.26     24.95
 51.37    608.00     24.66
 51.47    563.93     23.75
 51.57    599.06     24.48
 51.67    585.95     24.21
 51.77    578.00     24.04
 51.87    501.76     22.40
 51.97    542.00     23.28
 52.07    599.00     24.47
 52.17    520.68     22.82
 52.27    576.92     24.02
 52.37    521.00     22.83
 52.47    495.95     22.27
 52.57    581.00     24.10
 52.67    514.58     22.68
 52.77    592.00     24.33
 52.87    659.00     25.67
 52.97    707.94     26.61
 53.07    794.00     28.18
 53.17    979.00     31.29
 53.27   1087.00     32.97
 53.37   1121.00     33.48
 53.47   1205.00     34.71
 53.57   1153.49     33.96
 53.67   1128.88     33.60
 53.77    986.00     31.40
 53.87    872.80     29.54
 53.97    709.00     26.63
 54.07    666.00     25.81
 54.17    586.00     24.21
 54.27    555.57     23.57
 54.37    584.00     24.17
 54.47    532.41     23.07
 54.57    586.37     24.22
 54.67    502.77     22.42
 54.77    497.90     22.31
 54.87    543.00     23.30
 54.97    563.00     23.73
 55.07    512.00     22.63
 55.17    514.00     22.67
 55.27    505.76     22.49
 55.37    586.00     24.21
 55.47    525.00     22.91
 55.57    549.00     23.43
 55.67    534.09     23.11
 55.77    528.13     22.98
 55.87    570.45     23.88
 55.97    574.00     23.96
 56.07    689.36     26.26
 56.17    732.09     27.06
 56.27    876.00     29.60
 56.37   1057.00     32.51
 56.47   1361.00     36.89
 56.57   1810.19     42.55
 56.67   2204.00     46.95
 56.77   2487.00     49.87
 56.87   2596.00     50.95
 56.97   2623.00     51.22
 57.07   2443.00     49.43
 57.17   2047.00     45.24
 57.27   1719.00     41.46
 57.37   1299.00     36.04
 57.47   1007.33     31.74
 57.57    866.86     29.44
 57.67    756.44     27.50
 57.77    702.00     26.50
 57.87    663.96     25.77
 57.97    619.50     24.89
 58.07    650.42     25.50
 58.17    712.00     26.68
 58.27    725.85     26.94
 58.37    823.00     28.69
 58.47    993.96     31.53
 58.57   1123.79     33.52
 58.67   1292.00     35.94
 58.77   1407.00     37.51
 58.87   1545.00     39.31
 58.97   1503.09     38.77
 59.07   1640.79     40.51
 59.17   1584.00     39.80
 59.27   1475.00     38.41
 59.37   1302.14     36.09
 59.47   1312.67     36.23
 59.57   1144.09     33.82
 59.67   1170.00     34.21
 59.77   1135.86     33.70
 59.87   1181.00     34.37
 59.97   1277.40     35.74
 60.07   1464.00     38.26
 60.17   1512.00     38.88
 60.27   1567.77     39.60
 60.37   1569.20     39.61
 60.47   1383.00     37.19
 60.57   1253.00     35.40
 60.67   1115.00     33.39
 60.77    950.00     30.82
 60.87    779.00     27.91
 60.97    706.00     26.57
 61.07    677.00     26.02
 61.17    672.66     25.94
 61.27    636.00     25.22
 61.37    625.77     25.02
 61.47    687.06     26.21
 61.57    657.00     25.63
 61.67    803.00     28.34
 61.77   1000.76     31.63
 61.87   1118.00     33.44
 61.97   1259.73     35.49
 62.07   1361.02     36.89
 62.17   1472.22     38.37
 62.27   1407.00     37.51
 62.37   1298.80     36.04
 62.47   1155.00     33.99
 62.57   1070.00     32.71
 62.67    920.22     30.34
 62.77    761.00     27.59
 62.87    680.21     26.08
 62.97    619.00     24.88
 63.07    631.72     25.13
 63.17    604.00     24.58
 63.27    571.00     23.90
 63.37    549.00     23.43
 63.47    599.45     24.48
 63.57    581.49     24.11
 63.67    617.00     24.84
 63.77    578.00     24.04
 63.87    610.00     24.70
 63.97    650.00     25.50
 64.07    711.00     26.66
 64.17    736.29     27.13
 64.27    841.00     29.00
 64.37    901.00     30.02
 64.47    894.66     29.91
 64.57   1038.00     32.22
 64.67   1084.00     32.92
 64.77   1023.00     31.98
 64.87   1015.00     31.86
 64.97    889.03     29.82
 65.07    840.00     28.98
 65.17    796.00     28.21
 65.27    746.00     27.31
 65.37    710.58     26.66
 65.47    698.67     26.43
 65.57    670.74     25.90
 65.67    640.85     25.31
 65.77    584.00     24.17
 65.87    566.00     23.79
 65.97    606.11     24.62
 66.07    553.00     23.52
 66.17    572.44     23.93
 66.27    576.00     24.00
 66.37    586.95     24.23
 66.47    551.00     23.47
 66.57    609.00     24.68
 66.67    529.00     23.00
 66.77    547.54     23.40
 66.87    600.94     24.51
 66.97    620.72     24.91
 67.07    595.00     24.39
 67.17    632.26     25.14
 67.27    746.00     27.31
 67.37    890.34     29.84
 67.47   1047.51     32.37
 67.57   1259.00     35.48
 67.67   1523.00     39.03
 67.77   1789.00     42.30
 67.87   1987.00     44.58
 67.97   2313.00     48.09
 68.07   2345.00     48.43
 68.17   2396.00     48.95
 68.27   2405.00     49.04
 68.37   2128.00     46.13
 68.47   1822.21     42.69
 68.57   1519.28     38.98
 68.67   1307.00     36.15
 68.77   1002.00     31.65
 68.87    898.68     29.98
 68.97    757.01     27.51
 69.07    702.98     26.51
 69.17    595.03     24.39
 69.27    590.99     24.31
 69.37    550.95     23.47
 69.47    624.18     24.98
 69.57    615.00     24.80
 69.67    530.85     23.04
 69.77    587.00     24.23
 69.87    557.00     23.60
 69.97    601.00     24.52
 70.07    562.86     23.72
 70.17    533.00     23.09
 70.27    569.33     23.86
 70.37    567.00     23.81
 70.47    620.00     24.90
 70.57    610.26     24.70
 70.67    577.71     24.04
 70.77    602.27     24.54
 70.87    631.55     25.13
 70.97    608.00     24.66
 71.07    616.00     24.82
 71.17    671.00     25.90
 71.27    765.00     27.66
 71.37    860.91     29.34
 71.47   1050.00     32.40
 71.57   1259.00     35.48
 71.67   1393.00     37.32
 71.77   1581.00     39.76
 71.87   1826.00     42.73
 71.97   1975.00     44.44
 72.07   1983.00     44.53
 72.17   1923.00     43.85
 72.27   1775.00     42.13
 72.37   1736.00     41.67
 72.47   1530.00     39.12
 72.57   1344.00     36.66
 72.67   1191.45     34.52
 72.77   1131.80     33.64
 72.87   1052.00     32.43
 72.97    908.00     30.13
 73.07    842.21     29.02
 73.17    844.27     29.06
 73.27    705.00     26.55
 73.37    669.00     25.87
 73.47    649.00     25.48
 73.57    600.00     24.49
 73.67    631.36     25.13
 73.77    602.00     24.54
 73.87    612.17     24.74
 73.97    616.00     24.82
 74.07    599.00     24.47
 74.17    618.00     24.86
 74.27    602.00     24.54
 74.37    628.00     25.06
 74.47    577.37     24.03
 74.57    586.00     24.21
 74.67    633.00     25.16
 74.77    522.76     22.86
 74.87    516.47     22.73
 74.97    624.00     24.98
 75.07    564.00     23.75
 75.17    578.65     24.06
 75.27    558.00     23.62
 75.37    561.00     23.69
 75.47    537.00     23.17
 75.57    541.81     23.28
 75.67    608.00     24.66
 75.77    591.18     24.31
 75.87    571.00     23.90
 75.97    565.71     23.78
 76.07    591.00     24.31
 76.17    640.98     25.32
 76.27    654.26     25.58
 76.37    723.83     26.90
 76.47    679.00     26.06
 76.57    661.00     25.71
 76.67    682.57     26.13
 76.77    681.67     26.11
 76.87    708.00     26.61
 76.97    623.25     24.96
 77.07    598.46     24.46
 77.17    605.46     24.61
 77.27    527.00     22.96
 77.37    549.00     23.43
 77.47    567.00     23.81
 77.57    573.21     23.94
 77.67    561.65     23.70
 77.77    547.00     23.39
 77.87    531.00     23.04
 77.97    515.00     22.69
 78.07    542.00     23.28
 78.17    564.37     23.76
 78.27    490.00     22.14
 78.37    501.00     22.38
 78.47    547.67     23.40
 78.57    558.00     23.62
 78.67    485.27     22.03
 78.77    545.00     23.35
 78.87    539.63     23.23
 78.97    525.65     22.93
 79.07    477.00     21.84
 79.17    510.27     22.59
 79.27    540.92     23.26
 79.37    528.00     22.98
 79.47    565.00     23.77
 79.57    538.00     23.19
 79.67    534.00     23.11
 79.77    516.00     22.72
 79.87    570.88     23.89
 79.97    566.32     23.80
 80.07    592.00     24.33
 80.17    585.16     24.19
 80.27    544.00     23.32
 80.37    517.00     22.74
 80.47    602.00     24.54
 80.57    546.00     23.37
 80.67    635.00     25.20
 80.77    606.00     24.62
 80.87    654.00     25.57
 80.97    736.00     27.13
 81.07    744.00     27.28
 81.17    688.77     26.24
 81.27    783.00     27.98
 81.37    748.00     27.35
 81.47    761.70     27.60
 81.57    789.00     28.09
 81.67    711.00     26.66
 81.77    750.79     27.40
 81.87    717.00     26.78
 81.97    728.91     27.00
 82.07    684.00     26.15
 82.17    681.00     26.10
 82.27    668.00     25.85
 82.37    622.43     24.95
 82.47    610.29     24.70
 82.57    602.00     24.54
 82.67    539.22     23.22
 82.77    598.00     24.45
 82.87    525.77     22.93
 82.97    544.29     23.33
 83.07    591.18     24.31
 83.17    599.00     24.47
 83.27    558.00     23.62
 83.37    548.00     23.41
 83.47    564.00     23.75
 83.57    549.08     23.43
 83.67    560.92     23.68
 83.77    562.00     23.71
 83.87    552.00     23.49
 83.97    562.00     23.71
 84.07    583.00     24.15
 84.17    571.00     23.90
 84.27    556.00     23.58
 84.37    571.34     23.90
 84.47    573.92     23.96
 84.57    525.00     22.91
 84.67    510.00     22.58
 84.77    587.00     24.23
 84.87    526.00     22.93
 84.97    541.00     23.26
 85.07    555.01     23.56
 85.17    570.79     23.89
 85.27    530.00     23.02
 85.37    508.08     22.54
 85.47    560.00     23.66
 85.57    527.20     22.96
 85.67    550.00     23.45
 85.77    545.00     23.35
 85.87    498.28     22.32
 85.97    534.00     23.11
 86.07    518.00     22.76
 86.17    556.00     23.58
 86.27    502.00     22.41
 86.37    555.00     23.56
 86.47    552.88     23.51
 86.57    562.00     23.71
 86.67    535.26     23.14
 86.77    603.00     24.56
 86.87    593.00     24.35
 86.97    592.60     24.34
 87.07    640.33     25.30
 87.17    626.74     25.03
 87.27    594.41     24.38
 87.37    641.00     25.32
 87.47    640.87     25.32
 87.57    611.00     24.72
 87.67    626.00     25.02
 87.77    592.00     24.33
 87.87    642.00     25.34
 87.97    589.10     24.27
 88.07    629.00     25.08
 88.17    604.96     24.60
 88.27    588.00     24.25
 88.37    614.00     24.78
 88.47    532.00     23.07
 88.57    627.00     25.04
 88.67    596.47     24.42
 88.77    603.42     24.56
 88.87    559.60     23.66
 88.97    616.00     24.82
 89.07    561.61     23.70
 89.17    636.92     25.24
 89.27    595.00     24.39
 89.37    638.00     25.26
 89.47    605.00     24.60
 89.57    549.00     23.43
 89.67    589.00     24.27
 89.77    596.00     24.41
 89.87    559.00     23.64
 89.97    598.21     24.46
 90.07    553.00     23.52
 90.17    518.00     22.76
 90.27    529.00     23.00
 90.37    574.71     23.97
 90.47    540.00     23.24
 90.57    519.00     22.78
 90.67    540.72     23.25
 90.77    543.00     23.30
 90.87    555.78     23.57
 90.97    513.00     22.65
 91.07    504.00     22.45
 91.17    504.00     22.45
 91.27    539.00     23.22
 91.37    530.00     23.02
 91.47    542.52     23.29
 91.57    521.00     22.83
 91.67    498.00     22.32
 91.77    529.36     23.01
 91.87    563.20     23.73
 91.97    553.11     23.52
 92.07    585.00     24.19
 92.17    566.00     23.79
 92.27    602.00     24.54
 92.37    576.00     24.00
 92.47    572.00     23.92
 92.57    590.60     24.30
 92.67    626.25     25.03
 92.77    692.00     26.31
 92.87    746.00     27.31
 92.97    681.00     26.10
 93.07    718.81     26.81
 93.17    787.48     28.06
 93.27    793.00     28.16
 93.37    822.00     28.67
 93.47    763.27     27.63
 93.57    781.00     27.95
 93.67    764.00     27.64
 93.77    873.21     29.55
 93.87    866.00     29.43
 93.97    867.00     29.44
 94.07    828.68     28.79
 94.17    877.00     29.61
 94.27    897.00     29.95
 94.37    875.22     29.58
 94.47    863.00     29.38
 94.57    899.00     29.98
 94.67    943.73     30.72
 94.77    907.00     30.12
 94.87    929.00     30.48
 94.97    877.00     29.61
 95.07    960.00     30.98
 95.17    833.00     28.86
 95.27    882.00     29.70
 95.37    765.79     27.67
 95.47    802.00     28.32
 95.57    705.00     26.55
 95.67    734.59     27.10
 95.77    695.81     26.38
 95.87    647.10     25.44
 95.97    655.00     25.59
 96.07    647.00     25.44
 96.17    663.83     25.76
 96.27    701.00     26.48
 96.37    724.00     26.91
 96.47    774.46     27.83
 96.57    846.33     29.09
 96.67    954.08     30.89
 96.77    942.00     30.69
 96.87   1062.00     32.59
 96.97   1082.97     32.91
 97.07   1205.71     34.72
 97.17   1329.04     36.46
 97.27   1381.00     37.16
 97.37   1410.32     37.55
 97.47   1406.00     37.50
 97.57   1376.45     37.10
 97.67   1399.85     37.41
 97.77   1436.00     37.89
 97.87   1373.00     37.05
 97.97   1271.00     35.65
 98.07   1165.00     34.13
 98.17   1147.00     33.87
 98.27   1118.00     33.44
 98.37   1024.00     32.00
 98.47    959.78     30.98
 98.57    914.24     30.24
 98.67    878.00     29.63
 98.77    817.00     28.58
 98.87    808.00     28.43
 98.97    813.30     28.52
 99.07    788.00     28.07
 99.17    856.00     29.26
 99.27    900.01     30.00
 99.37    923.00     30.38
 99.47   1017.00     31.89
 99.57   1068.00     32.68
 99.67   1196.00     34.58
 99.77   1189.00     34.48
 99.87   1403.00     37.46
 99.97   1583.00     39.79
100.07   1679.00     40.98
100.17   1705.00     41.29
100.27   1857.00     43.09
100.37   1815.00     42.60
100.47   2033.00     45.09
100.57   2033.25     45.09
100.67   2137.00     46.23
100.77   2044.01     45.21
100.87   2047.67     45.25
100.97   1991.38     44.62
101.07   1942.00     44.07
101.17   1989.00     44.60
101.27   1796.88     42.39
101.37   1815.01     42.60
101.47   1617.00     40.21
101.57   1551.00     39.38
101.67   1488.00     38.57
101.77   1308.00     36.17
101.87   1330.00     36.47
101.97   1302.14     36.09
102.07   1274.04     35.69
102.17   1169.00     34.19
102.27   1149.00     33.90
102.37   1150.00     33.91
102.47   1073.00     32.76
102.57   1044.40     32.32
102.67   1053.00     32.45
102.77   1091.33     33.04
102.87    948.00     30.79
102.97    946.00     30.76
103.07    904.72     30.08
103.17    878.00     29.63
103.27    828.00     28.77
103.37    806.00     28.39
103.47    767.00     27.69
103.57    764.00     27.64
103.67    644.00     25.38
103.77    654.07     25.57
103.87    606.79     24.63
103.97    636.36     25.23
104.07    583.00     24.15
104.17    616.94     24.84
104.27    583.00     24.15
104.37    541.00     23.26
104.47    534.05     23.11
104.57    521.00     22.83
104.67    506.38     22.50
104.77    560.00     23.66
104.87    585.00     24.19
104.97    541.00     23.26
105.07    513.12     22.65
105.17    547.00     23.39
105.27    549.00     23.43
105.37    524.60     22.90
105.47    542.00     23.28
105.57    562.00     23.71
105.67    592.00     24.33
105.77    532.00     23.07
105.87    529.97     23.02
105.97    592.72     24.35
106.07    542.70     23.30
106.17    588.00     24.25
106.27    549.78     23.45
106.37    566.33     23.80
106.47    615.00     24.80
106.57    664.52     25.78
106.67    639.68     25.29
106.77    615.00     24.80
106.87    632.00     25.14
106.97    720.33     26.84
107.07    660.00     25.69
107.17    666.00     25.81
107.27    702.41     26.50
107.37    713.60     26.71
107.47    671.25     25.91
107.57    697.00     26.40
107.67    695.00     26.36
107.77    688.06     26.23
107.87    724.00     26.91
107.97    711.10     26.67
108.07    704.00     26.53
108.17    691.00     26.29
108.27    686.13     26.19
108.37    632.00     25.14
108.47    645.00     25.40
108.57    669.00     25.87
108.67    693.00     26.32
108.77    676.00     26.00
108.87    686.00     26.19
108.97    705.34     26.56
109.07    646.88     25.43
109.17    705.00     26.55
109.27    677.00     26.02
109.37    692.77     26.32
109.47    662.00     25.73
109.57    656.00     25.61
109.67    624.00     24.98
109.77    597.00     24.43
109.87    615.00     24.80
109.97    618.55     24.87
110.07    545.00     23.35
110.17    615.12     24.80
110.27    540.00     23.24
110.37    583.00     24.15
110.47    592.00     24.33
110.57    520.64     22.82
110.67    583.96     24.17
110.77    559.00     23.64
110.87    569.00     23.85
110.97    525.37     22.92
111.07    496.00     22.27
111.17    533.29     23.09
111.27    553.00     23.52
111.37    556.37     23.59
111.47    572.00     23.92
111.57    562.47     23.72
111.67    552.00     23.49
111.77    580.00     24.08
111.87    562.79     23.72
111.97    586.00     24.21
112.07    526.00     22.93
112.17    555.00     23.56
112.27    566.44     23.80
112.37    555.00     23.56
112.47    555.47     23.57
112.57    624.00     24.98
112.67    638.00     25.26
112.77    638.00     25.26
112.87    675.00     25.98
112.97    671.00     25.90
113.07    686.00     26.19
113.17    720.00     26.83
113.27    733.34     27.08
113.37    777.00     27.87
113.47    810.04     28.46
113.57    790.47     28.12
113.67    892.92     29.88
113.77    938.01     30.63
113.87    975.00     31.22
113.97   1042.98     32.30
114.07   1034.00     32.16
114.17   1097.39     33.13
114.27   1127.80     33.58
114.37   1292.72     35.95
114.47   1424.00     37.74
114.57   1384.83     37.21
114.67   1612.00     40.15
114.77   1752.00     41.86
114.87   2014.00     44.88
114.97   2082.00     45.63
115.07   2416.00     49.15
115.17   2484.00     49.84
115.27   2775.39     52.68
115.37   3129.00     55.94
115.47   3439.00     58.64
115.57   3708.00     60.89
115.67   4112.00     64.12
115.77   4392.92     66.28
115.87   4734.00     68.80
115.97   5138.00     71.68
116.07   5497.00     74.14
116.17   6117.07     78.21
116.27   6237.00     78.97
116.37   6608.00     81.29
116.47   6880.73     82.95
116.57   7030.00     83.85
116.67   7097.00     84.24
116.77   6903.91     83.09
116.87   7091.00     84.21
116.97   6706.00     81.89
117.07   6370.65     79.82
117.17   6146.00     78.40
117.27   5997.11     77.44
117.37   5428.00     73.67
117.47   4995.00     70.68
117.57   4790.18     69.21
117.67   4475.00     66.90
117.77   4114.00     64.14
117.87   3585.24     59.88
117.97   3355.00     57.92
118.07   2995.00     54.73
118.17   2613.81     51.13
118.27   2209.00     47.00
118.37   1997.00     44.69
118.47   1858.29     43.11
118.57   1515.00     38.92
118.67   1420.00     37.68
118.77   1216.00     34.87
118.87   1085.00     32.94
118.97   1002.00     31.65
119.07    942.17     30.69
119.17    911.00     30.18
119.27    885.00     29.75
119.37    826.64     28.75
119.47    729.00     27.00
119.57    691.61     26.30
119.67    679.00     26.06
119.77    660.40     25.70
119.87    603.44     24.56
119.97    630.00     25.10
120.07    593.48     24.36
120.17    607.00     24.64
120.27    562.00     23.71
120.37    570.00     23.87
120.47    560.00     23.66
120.57    590.00     24.29
120.67    557.00     23.60
120.77    564.37     23.76
120.87    604.04     24.58
120.97    529.26     23.01
121.07    586.00     24.21
121.17    611.17     24.72
121.27    549.00     23.43
121.37    600.94     24.51
121.47    581.00     24.10
121.57    588.00     24.25
121.67    569.60     23.87
121.77    593.00     24.35
121.87    542.00     23.28
121.97    575.51     23.99
122.07    598.00     24.45
122.17    612.86     24.76
122.27    663.00     25.75
122.37    622.05     24.94
122.47    696.00     26.38
122.57    660.00     25.69
122.67    675.00     25.98
122.77    654.00     25.57
122.87    603.00     24.56
122.97    662.00     25.73
123.07    689.00     26.25
123.17    652.00     25.53
123.27    647.82     25.45
123.37    614.00     24.78
123.47    619.16     24.88
123.57    640.00     25.30
123.67    599.83     24.49
123.77    628.00     25.06
123.87    656.00     25.61
123.97    650.04     25.50
124.07    641.00     25.32
124.17    634.00     25.18
124.27    615.00     24.80
124.37    602.00     24.54
124.47    588.00     24.25
124.57    509.00     22.56
124.67    631.54     25.13
124.77    677.00     26.02
124.87    605.00     24.60
124.97    570.00     23.87
