XYDATA



INTER 1.0 1.0 0 0
TEMP 1074.0
  9.97    631.00     25.12
 10.07    571.00     23.90
 10.17    575.47     23.99
 10.27    548.85     23.43
 10.37    614.00     24.78
 10.47    588.00     24.25
 10.57    576.38     24.01
 10.67    568.00     23.83
 10.77    523.94     22.89
 10.87    560.28     23.67
 10.97    608.00     24.66
 11.07    578.00     24.04
 11.17    533.58     23.10
 11.27    573.00     23.94
 11.37    604.00     24.58
 11.47    596.00     24.41
 11.57    560.00     23.66
 11.67    647.00     25.44
 11.77    547.69     23.40
 11.87    560.91     23.68
 11.97    693.00     26.32
 12.07    670.80     25.90
 12.17    720.00     26.83
 12.27    655.00     25.59
 12.37    610.00     24.70
 12.47    637.70     25.25
 12.57    630.00     25.10
 12.67    580.00     24.08
 12.77    582.00     24.12
 12.87    560.50     23.67
 12.97    559.00     23.64
 13.07    579.00     24.06
 13.17    545.75     23.36
 13.27    583.12     24.15
 13.37    526.91     22.95
 13.47    556.00     23.58
 13.57    607.14     24.64
 13.67    597.00     24.43
 13.77    537.47     23.18
 13.87    575.00     23.98
 13.97    557.75     23.62
 14.07    583.00     24.15
 14.17    569.07     23.86
 14.27    591.67     24.32
 14.37    558.00     23.62
 14.47    563.00     23.73
 14.57    612.00     24.74
 14.67    566.00     23.79
 14.77    589.00     24.27
 14.87    572.28     23.92
 14.97    548.00     23.41
 15.07    597.57     24.45
 15.17    564.83     23.77
 15.27    549.88     23.45
 15.37    552.00     23.49
 15.47    550.24     23.46
 15.57    581.08     24.11
 15.67    538.00     23.19
 15.77    561.00     23.69
 15.87    562.00     23.71
 15.97    551.00     23.47
 16.07    562.44     23.72
 16.17    558.00     23.62
 16.27    578.00     24.04
 16.37    533.37     23.09
 16.47    522.86     22.87
 16.57    582.00     24.12
 16.67    569.52     23.86
 16.77    507.00     22.52
 16.87    546.17     23.37
 16.97    544.00     23.32
 17.07    568.00     23.83
 17.17    571.00     23.90
 17.27    517.00     22.74
 17.37    582.00     24.12
 17.47    555.88     23.58
 17.57    576.00     24.00
 17.67    585.00     24.19
 17.77    530.85     23.04
 17.87    533.00     23.09
 17.97    551.26     23.48
 18.07    584.68     24.18
 18.17    572.00     23.92
 18.27    558.65     23.64
 18.37    530.00     23.02
 18.47    569.00     23.85
 18.57    581.00     24.10
 18.67    586.18     24.21
 18.77    571.28     23.90
 18.87    534.00     23.11
 18.97    535.22     23.13
 19.07    567.12     23.81
 19.17    508.96     22.56
 19.27    550.00     23.45
 19.37    592.00     24.33
 19.47    535.00     23.13
 19.57    517.00     22.74
 19.67    555.35     23.57
 19.77    510.00     22.58
 19.87    526.00     22.93
 19.97    523.00     22.87
 20.07    566.77     23.81
 20.17    519.00     22.78
 20.27    594.09     24.37
 20.37    567.00     23.81
 20.47    515.00     22.69
 20.57    554.00     23.54
 20.67    542.00     23.28
 20.77    533.00     23.09
 20.87    541.00     23.26
 20.97    575.00     23.98
 21.07    549.00     23.43
 21.17    511.00     22.61
 21.27    556.00     23.58
 21.37    538.00     23.19
 21.47    552.00     23.49
 21.57    577.00     24.02
 21.67    549.00     23.43
 21.77    534.00     23.11
 21.87    552.19     23.50
 21.97    546.00     23.37
 22.07    576.86     24.02
 22.17    595.00     24.39
 22.27    547.01     23.39
 22.37    511.00     22.61
 22.47    564.00     23.75
 22.57    517.00     22.74
 22.67    520.48     22.81
 22.77    534.50     23.12
 22.87    568.00     23.83
 22.97    558.00     23.62
 23.07    569.00     23.85
 23.17    561.00     23.69
 23.27    537.00     23.17
 23.37    566.88     23.81
 23.47    507.00     22.52
 23.57    554.00     23.54
 23.67    576.00     24.00
 23.77    531.35     23.05
 23.87    587.07     24.23
 23.97    526.92     22.95
 24.07    544.50     23.33
 24.17    546.57     23.38
 24.27    565.00     23.77
 24.37    564.65     23.76
 24.47    559.40     23.65
 24.57    548.32     23.42
 24.67    593.89     24.37
 24.77    632.77     25.15
 24.87    592.00     24.33
 24.97    557.00     23.60
 25.07    582.25     24.13
 25.17    539.00     23.22
 25.27    543.85     23.32
 25.37    575.26     23.98
 25.47    543.00     23.30
 25.57    565.46     23.78
 25.67    561.00     23.69
 25.77    552.00     23.49
 25.87    557.00     23.60
 25.97    576.93     24.02
 26.07    513.19     22.65
 26.17    575.25     23.98
 26.27    501.52     22.39
 26.37    519.54     22.79
 26.47    521.32     22.83
 26.57    562.00     23.71
 26.67    510.89     22.60
 26.77    563.00     23.73
 26.87    534.67     23.12
 26.97    543.00     23.30
 27.07    518.00     22.76
 27.17    552.00     23.49
 27.27    530.00     23.02
 27.37    557.00     23.60
 27.47    528.00     22.98
 27.57    565.00     23.77
 27.67    522.00     22.85
 27.77    520.12     22.81
 27.87    611.00     24.72
 27.97    628.18     25.06
 28.07    782.00     27.96
 28.17    904.00     30.07
 28.27    967.73     31.11
 28.37    960.00     30.98
 28.47    796.00     28.21
 28.57    715.21     26.74
 28.67    710.55     26.66
 28.77    726.00     26.94
 28.87    775.22     27.84
 28.97    806.00     28.39
 29.07    831.03     28.83
 29.17    698.00     26.42
 29.27    616.00     24.82
 29.37    626.40     25.03
 29.47    569.12     23.86
 29.57    571.00     23.90
 29.67    577.57     24.03
 29.77    569.00     23.85
 29.87    593.68     24.37
 29.97    595.00     24.39
 30.07    556.79     23.60
 30.17    545.00     23.35
 30.27    581.47     24.11
 30.37    575.00     23.98
 30.47    563.00     23.73
 30.57    553.86     23.53
 30.67    576.00     24.00
 30.77    607.00     24.64
 30.87    631.00     25.12
 30.97    644.24     25.38
 31.07    600.15     24.50
 31.17    566.00     23.79
 31.27    585.94     24.21
 31.37    590.00     24.29
 31.47    511.16     22.61
 31.57    551.00     23.47
 31.67    554.00     23.54
 31.77    550.00     23.45
 31.87    550.00     23.45
 31.97    481.62     21.95
 32.07    522.24     22.85
 32.17    556.73     23.60
 32.27    562.25     23.71
 32.37    539.00     23.22
 32.47    495.24     22.25
 32.57    541.00     23.26
 32.67    540.00     23.24
 32.77    532.00     23.07
 32.87    550.00     23.45
 32.97    544.00     23.32
 33.07    530.00     23.02
 33.17    563.00     23.73
 33.27    514.10     22.67
 33.37    497.77     22.31
 33.47    571.17     23.90
 33.57    617.00     24.84
 33.67    640.51     25.31
 33.77    734.00     27.09
 33.87    935.00     30.58
 33.97    984.00     31.37
 34.07   1009.93     31.78
 34.17    998.00     31.59
 34.27    914.00     30.23
 34.37    681.00     26.10
 34.47    642.00     25.34
 34.57    586.00     24.21
 34.67    585.17     24.19
 34.77    517.00     22.74
 34.87    517.87     22.76
 34.97    545.95     23.37
 35.07    555.00     23.56
 35.17    541.00     23.26
 35.27    556.18     23.58
 35.37    502.88     22.42
 35.47    545.00     23.35
 35.57    513.00     22.65
 35.67    527.22     22.96
 35.77    517.00     22.74
 35.87    514.60     22.68
 35.97    517.00     22.74
 36.07    552.02     23.50
 36.17    522.02     22.85
 36.27    484.70     22.02
 36.37    496.00     22.27
 36.47    481.52     21.94
 36.57    522.33     22.85
 36.67    536.00     23.15
 36.77    476.21     21.82
 36.87    465.58     21.58
 36.97    470.76     21.70
 37.07    526.10     22.94
 37.17    508.14     22.54
 37.27    497.00     22.29
 37.37    537.30     23.18
 37.47    521.00     22.83
 37.57    541.00     23.26
 37.67    500.00     22.36
 37.77    492.00     22.18
 37.87    554.64     23.55
 37.97    511.00     22.61
 38.07    555.17     23.56
 38.17    520.00     22.80
 38.27    527.00     22.96
 38.37    455.00     21.33
 38.47    511.00     22.61
 38.57    485.00     22.02
 38.67    507.00     22.52
 38.77    482.35     21.96
 38.87    469.00     21.66
 38.97    504.00     22.45
 39.07    488.00     22.09
 39.17    539.00     23.22
 39.27    544.54     23.34
 39.37    540.31     23.24
 39.47    498.39     22.32
 39.57    508.00     22.54
 39.67    555.00     23.56
 39.77    496.00     22.27
 39.87    479.00     21.89
 39.97    462.11     21.50
 40.07    526.00     22.93
 40.17    542.18     23.28
 40.27    476.00     21.82
 40.37    496.00     22.27
 40.47    476.00     21.82
 40.57    518.00     22.76
 40.67    487.00     22.07
 40.77    500.00     22.36
 40.87    469.00     21.66
 40.97    496.00     22.27
 41.07    460.00     21.45
 41.17    539.62     23.23
 41.27    543.94     23.32
 41.37    548.77     23.43
 41.47    534.55     23.12
 41.57    519.00     22.78
 41.67    520.00     22.80
 41.77    503.00     22.43
 41.87    522.00     22.85
 41.97    506.00     22.49
 42.07    509.00     22.56
 42.17    493.00     22.20
 42.27    519.00     22.78
 42.37    516.00     22.72
 42.47    595.00     24.39
 42.57    577.00     24.02
 42.67    617.61     24.85
 42.77    598.00     24.45
 42.87    570.00     23.87
 42.97    533.28     23.09
 43.07    524.00     22.89
 43.17    516.00     22.72
 43.27    529.00     23.00
 43.37    509.29     22.57
 43.47    537.00     23.17
 43.57    526.66     22.95
 43.67    497.00     22.29
 43.77    516.37     22.72
 43.87    523.61     22.88
 43.97    501.91     22.40
 44.07    519.83     22.80
 44.17    521.00     22.83
 44.27    531.00     23.04
 44.37    474.00     21.77
 44.47    505.00     22.47
 44.57    503.00     22.43
 44.67    477.00     21.84
 44.77    467.11     21.61
 44.87    526.00     22.93
 44.97    469.03     21.66
 45.07    508.48     22.55
 45.17    489.00     22.11
 45.27    478.04     21.86
 45.37    466.25     21.59
 45.47    458.18     21.41
 45.57    514.00     22.67
 45.67    476.23     21.82
 45.77    520.43     22.81
 45.87    516.00     22.72
 45.97    542.02     23.28
 46.07    513.00     22.65
 46.17    474.00     21.77
 46.27    516.00     22.72
 46.37    540.00     23.24
 46.47    521.46     22.84
 46.57    498.00     22.32
 46.67    545.00     23.35
 46.77    495.00     22.25
 46.87    471.13     21.71
 46.97    496.00     22.27
 47.07    480.99     21.93
 47.17    507.00     22.52
 47.27    530.00     23.02
 47.37    523.00     22.87
 47.47    516.00     22.72
 47.57    591.00     24.31
 47.67    520.60     22.82
 47.77    594.00     24.37
 47.87    590.00     24.29
 47.97    589.00     24.27
 48.07    608.00     24.66
 48.17    560.00     23.66
 48.27    525.00     22.91
 48.37    546.00     23.37
 48.47    524.00     22.89
 48.57    506.00     22.49
 48.67    535.00     23.13
 48.77    535.95     23.15
 48.87    506.00     22.49
 48.97    547.00     23.39
 49.07    533.00     23.09
 49.17    600.68     24.51
 49.27    598.59     24.47
 49.37    665.00     25.79
 49.47    686.86     26.21
 49.57    744.00     27.28
 49.67    894.09     29.90
 49.77   1167.12     34.16
 49.87   1423.47     37.73
 49.97   1852.43     43.04
 50.07   2237.00     47.30
 50.17   2458.21     49.58
 50.27   2494.00     49.94
 50.37   2214.03     47.05
 50.47   1745.00     41.77
 50.57   1412.00     37.58
 50.67   1190.87     34.51
 50.77    829.00     28.79
 50.87    724.00     26.91
 50.97    722.23     26.87
 51.07    671.00     25.90
 51.17    658.00     25.65
 51.27    557.00     23.60
 51.37    609.00     24.68
 51.47    591.00     24.31
 51.57    539.00     23.22
 51.67    516.77     22.73
 51.77    556.00     23.58
 51.87    545.00     23.35
 51.97    555.00     23.56
 52.07    562.92     23.73
 52.17    564.67     23.76
 52.27    544.00     23.32
 52.37    612.00     24.74
 52.47    565.79     23.79
 52.57    506.92     22.51
 52.67    586.00     24.21
 52.77    600.00     24.49
 52.87    618.55     24.87
 52.97    666.00     25.81
 53.07    769.96     27.75
 53.17    863.02     29.38
 53.27   1069.00     32.70
 53.37   1157.57     34.02
 53.47   1198.97     34.63
 53.57   1161.00     34.07
 53.67   1053.00     32.45
 53.77    976.00     31.24
 53.87    854.44     29.23
 53.97    744.00     27.28
 54.07    706.00     26.57
 54.17    653.00     25.55
 54.27    609.00     24.68
 54.37    533.02     23.09
 54.47    534.88     23.13
 54.57    549.00     23.43
 54.67    551.00     23.47
 54.77    567.00     23.81
 54.87    553.00     23.52
 54.97    568.00     23.83
 55.07    503.92     22.45
 55.17    521.86     22.84
 55.27    575.00     23.98
 55.37    547.36     23.40
 55.47    576.34     24.01
 55.57    586.00     24.21
 55.67    558.58     23.63
 55.77    603.00     24.56
 55.87    605.00     24.60
 55.97    633.00     25.16
 56.07    739.70     27.20
 56.17    762.87     27.62
 56.27    906.00     30.10
 56.37   1204.43     34.70
 56.47   1404.00     37.47
 56.57   1804.82     42.48
 56.67   2212.00     47.03
 56.77   2448.00     49.48
 56.87   2552.37     50.52
 56.97   2524.00     50.24
 57.07   2272.29     47.67
 57.17   2151.00     46.38
 57.27   1646.00     40.57
 57.37   1295.00     35.99
 57.47   1048.00     32.37
 57.57    937.44     30.62
 57.67    734.57     27.10
 57.77    685.00     26.17
 57.87    675.08     25.98
 57.97    643.06     25.36
 58.07    657.38     25.64
 58.17    761.00     27.59
 58.27    779.00     27.91
 58.37    832.00     28.84
 58.47    843.00     29.03
 58.57   1107.95     33.29
 58.67   1114.93     33.39
 58.77   1235.00     35.14
 58.87   1290.00     35.92
 58.97   1462.00     38.24
 59.07   1401.85     37.44
 59.17   1387.00     37.24
 59.27   1396.69     37.37
 59.37   1262.76     35.54
 59.47   1249.00     35.34
 59.57   1112.92     33.36
 59.67   1178.00     34.32
 59.77   1069.17     32.70
 59.87   1269.00     35.62
 59.97   1331.10     36.48
 60.07   1489.00     38.59
 60.17   1523.00     39.03
 60.27   1584.00     39.80
 60.37   1495.00     38.67
 60.47   1414.00     37.60
 60.57   1274.00     35.69
 60.67   1102.22     33.20
 60.77    886.47     29.77
 60.87    833.08     28.86
 60.97    693.00     26.32
 61.07    706.00     26.57
 61.17    678.00     26.04
 61.27    657.00     25.63
 61.37    679.00     26.06
 61.47    700.00     26.46
 61.57    729.34     27.01
 61.67    916.08     30.27
 61.77   1031.00     32.11
 61.87   1032.00     32.12
 61.97   1201.00     34.66
 62.07   1355.00     36.81
 62.17   1329.00     36.46
 62.27   1357.00     36.84
 62.37   1350.09     36.74
 62.47   1262.91     35.54
 62.57   1019.77     31.93
 62.67    837.00     28.93
 62.77    767.00     27.69
 62.87    748.00     27.35
 62.97    657.00     25.63
 63.07    638.00     25.26
 63.17    612.13     24.74
 63.27    552.00     23.49
 63.37    586.00     24.21
 63.47    637.00     25.24
 63.57    546.47     23.38
 63.67    629.00     25.08
 63.77    567.00     23.81
 63.87    646.00     25.42
 63.97    662.23     25.73
 64.07    718.00     26.80
 64.17    761.55     27.60
 64.27    865.00     29.41
 64.37    971.00     31.16
 64.47    996.92     31.57
 64.57    987.85     31.43
 64.67   1012.00     31.81
 64.77    991.00     31.48
 64.87    992.00     31.50
 64.97    933.00     30.55
 65.07    833.00     28.86
 65.17    759.00     27.55
 65.27    723.71     26.90
 65.37    630.00     25.10
 65.47    644.00     25.38
 65.57    659.00     25.67
 65.67    616.00     24.82
 65.77    592.00     24.33
 65.87    556.65     23.59
 65.97    570.00     23.87
 66.07    531.00     23.04
 66.17    553.00     23.52
 66.27    577.54     24.03
 66.37    602.45     24.54
 66.47    532.00     23.07
 66.57    525.69     22.93
 66.67    572.00     23.92
 66.77    568.00     23.83
 66.87    565.00     23.77
 66.97    588.20     24.25
 67.07    638.00     25.26
 67.17    729.00     27.00
 67.27    787.00     28.05
 67.37    915.00     30.25
 67.47   1099.00     33.15
 67.57   1290.00     35.92
 67.67   1643.00     40.53
 67.77   1865.45     43.19
 67.87   2110.00     45.93
 67.97   2235.00     47.28
 68.07   2436.00     49.36
 68.17   2449.00     49.49
 68.27   2244.00     47.37
 68.37   2031.88     45.08
 68.47   1788.42     42.29
 68.57   1603.00     40.04
 68.67   1309.57     36.19
 68.77   1023.00     31.98
 68.87    867.00     29.44
 68.97    815.36     28.55
 69.07    694.82     26.36
 69.17    640.89     25.32
 69.27    605.00     24.60
 69.37    582.00     24.12
 69.47    583.00     24.15
 69.57    612.00     24.74
 69.67    548.49     23.42
 69.77    613.00     24.76
 69.87    561.00     23.69
 69.97    606.35     24.62
 70.07    545.00     23.35
 70.17    552.00     23.49
 70.27    610.81     24.71
 70.37    590.41     24.30
 70.47    568.00     23.83
 70.57    535.00     23.13
 70.67    549.00     23.43
 70.77    631.00     25.12
 70.87    625.00     25.00
 70.97    648.00     25.46
 71.07    716.70     26.77
 71.17    739.33     27.19
 71.27    828.49     28.78
 71.37    996.00     31.56
 71.47   1113.00     33.36
 71.57   1239.00     35.20
 71.67   1483.88     38.52
 71.77   1663.00     40.78
 71.87   1769.00     42.06
 71.97   1847.00     42.98
 72.07   1873.00     43.28
 72.17   1919.00     43.81
 72.27   1725.00     41.53
 72.37   1637.00     40.46
 72.47   1452.00     38.11
 72.57   1328.00     36.44
 72.67   1088.00     32.98
 72.77    997.24     31.58
 72.87    843.00     29.03
 72.97    775.00     27.84
 73.07    754.00     27.46
 73.17    728.00     26.98
 73.27    632.00     25.14
 73.37    653.00     25.55
 73.47    615.00     24.80
 73.57    620.00     24.90
 73.67    617.26     24.84
 73.77    643.00     25.36
 73.87    564.12     23.75
 73.97    551.00     23.47
 74.07    563.00     23.73
 74.17    629.93     25.10
 74.27    599.00     24.47
 74.37    577.50     24.03
 74.47    639.00     25.28
 74.57    646.00     25.42
 74.67    571.00     23.90
 74.77    615.00     24.80
 74.87    617.00     24.84
 74.97    544.75     23.34
 75.07    559.42     23.65
 75.17    601.47     24.52
 75.27    598.00     24.45
 75.37    511.35     22.61
 75.47    569.00     23.85
 75.57    549.00     23.43
 75.67    568.16     23.84
 75.77    576.46     24.01
 75.87    553.10     23.52
 75.97    636.00     25.22
 76.07    619.00     24.88
 76.17    619.01     24.88
 76.27    709.04     26.63
 76.37    669.00     25.87
 76.47    685.00     26.17
 76.57    669.97     25.88
 76.67    662.00     25.73
 76.77    646.00     25.42
 76.87    633.08     25.16
 76.97    616.00     24.82
 77.07    630.18     25.10
 77.17    601.00     24.52
 77.27    553.00     23.52
 77.37    614.65     24.79
 77.47    522.00     22.85
 77.57    520.20     22.81
 77.67    498.00     22.32
 77.77    512.63     22.64
 77.87    502.00     22.41
 77.97    542.00     23.28
 78.07    509.92     22.58
 78.17    540.00     23.24
 78.27    543.00     23.30
 78.37    491.43     22.17
 78.47    550.00     23.45
 78.57    517.68     22.75
 78.67    566.70     23.81
 78.77    545.00     23.35
 78.87    483.87     22.00
 78.97    476.00     21.82
 79.07    494.64     22.24
 79.17    556.99     23.60
 79.27    506.00     22.49
 79.37    528.52     22.99
 79.47    547.06     23.39
 79.57    526.46     22.94
 79.67    515.00     22.69
 79.77    524.00     22.89
 79.87    558.00     23.62
 79.97    590.72     24.30
 80.07    550.74     23.47
 80.17    580.00     24.08
 80.27    532.50     23.08
 80.37    630.69     25.11
 80.47    581.00     24.10
 80.57    580.75     24.10
 80.67    636.00     25.22
 80.77    662.00     25.73
 80.87    642.48     25.35
 80.97    634.00     25.18
 81.07    664.15     25.77
 81.17    737.00     27.15
 81.27    770.48     27.76
 81.37    729.00     27.00
 81.47    695.28     26.37
 81.57    726.00     26.94
 81.67    725.00     26.93
 81.77    770.61     27.76
 81.87    700.90     26.47
 81.97    713.00     26.70
 82.07    673.00     25.94
 82.17    635.78     25.21
 82.27    633.00     25.16
 82.37    654.00     25.57
 82.47    573.00     23.94
 82.57    621.44     24.93
 82.67    545.75     23.36
 82.77    562.00     23.71
 82.87    585.00     24.19
 82.97    564.34     23.76
 83.07    548.00     23.41
 83.17    590.00     24.29
 83.27    580.00     24.08
 83.37    528.81     23.00
 83.47    576.00     24.00
 83.57    566.00     23.79
 83.67    545.65     23.36
 83.77    588.00     24.25
 83.87    579.87     24.08
 83.97    532.00     23.07
 84.07    603.87     24.57
 84.17    597.08     24.44
 84.27    608.41     24.67
 84.37    528.60     22.99
 84.47    581.36     24.11
 84.57    511.00     22.61
 84.67    545.00     23.35
 84.77    567.00     23.81
 84.87    533.63     23.10
 84.97    533.00     23.09
 85.07    540.00     23.24
 85.17    550.00     23.45
 85.27    549.00     23.43
 85.37    564.53     23.76
 85.47    517.15     22.74
 85.57    570.00     23.87
 85.67    571.00     23.90
 85.77    582.00     24.12
 85.87    525.00     22.91
 85.97    556.00     23.58
 86.07    497.07     22.30
 86.17    510.00     22.58
 86.27    506.79     22.51
 86.37    561.00     23.69
 86.47    582.16     24.13
 86.57    571.00     23.90
 86.67    585.00     24.19
 86.77    586.04     24.21
 86.87    637.07     25.24
 86.97    570.00     23.87
 87.07    633.65     25.17
 87.17    623.00     24.96
 87.27    664.00     25.77
 87.37    647.00     25.44
 87.47    665.00     25.79
 87.57    694.00     26.34
 87.67    641.00     25.32
 87.77    644.00     25.38
 87.87    599.00     24.47
 87.97    631.00     25.12
 88.07    626.00     25.02
 88.17    541.16     23.26
 88.27    585.00     24.19
 88.37    591.00     24.31
 88.47    607.00     24.64
 88.57    611.02     24.72
 88.67    526.40     22.94
 88.77    543.53     23.31
 88.87    591.00     24.31
 88.97    631.00     25.12
 89.07    598.00     24.45
 89.17    579.00     24.06
 89.27    581.00     24.10
 89.37    579.00     24.06
 89.47    609.92     24.70
 89.57    571.18     23.90
 89.67    593.00     24.35
 89.77    557.00     23.60
 89.87    506.00     22.49
 89.97    552.00     23.49
 90.07    530.00     23.02
 90.17    524.13     22.89
 90.27    516.71     22.73
 90.37    491.00     22.16
 90.47    543.77     23.32
 90.57    510.00     22.58
 90.67    560.00     23.66
 90.77    519.00     22.78
 90.87    546.00     23.37
 90.97    537.64     23.19
 91.07    529.86     23.02
 91.17    552.16     23.50
 91.27    550.00     23.45
 91.37    490.27     22.14
 91.47    531.64     23.06
 91.57    561.00     23.69
 91.67    548.86     23.43
 91.77    532.00     23.07
 91.87    546.00     23.37
 91.97    580.00     24.08
 92.07    535.00     23.13
 92.17    572.22     23.92
 92.27    622.79     24.96
 92.37    627.00     25.04
 92.47    622.97     24.96
 92.57    616.00     24.82
 92.67    613.00     24.76
 92.77    674.12     25.96
 92.87    738.00     27.17
 92.97    749.00     27.37
 93.07    748.00     27.35
 93.17    729.71     27.01
 93.27    806.00     28.39
 93.37    817.01     28.58
 93.47    799.44     28.27
 93.57    762.00     27.60
 93.67    859.63     29.32
 93.77    840.00     28.98
 93.87    821.96     28.67
 93.97    835.00     28.90
 94.07    871.00     29.51
 94.17    849.00     29.14
 94.27    839.00     28.97
 94.37    821.59     28.66
 94.47    877.00     29.61
 94.57    873.00     29.55
 94.67    896.00     29.93
 94.77    948.00     30.79
 94.87    863.00     29.38
 94.97    879.00     29.65
 95.07    858.00     29.29
 95.17    886.72     29.78
 95.27    849.00     29.14
 95.37    801.96     28.32
 95.47    805.16     28.38
 95.57    781.72     27.96
 95.67    737.00     27.15
 95.77    712.00     26.68
 95.87    718.06     26.80
 95.97    699.00     26.44
 96.07    724.35     26.91
 96.17    710.00     26.65
 96.27    746.00     27.31
 96.37    694.00     26.34
 96.47    868.00     29.46
 96.57    887.00     29.78
 96.67    950.00     30.82
 96.77   1009.00     31.76
 96.87   1036.00     32.19
 96.97   1153.00     33.96
 97.07   1238.00     35.19
 97.17   1334.00     36.52
 97.27   1347.00     36.70
 97.37   1415.00     37.62
 97.47   1455.00     38.14
 97.57   1483.00     38.51
 97.67   1396.00     37.36
 97.77   1364.00     36.93
 97.87   1339.00     36.59
 97.97   1305.00     36.12
 98.07   1265.00     35.57
 98.17   1180.00     34.35
 98.27   1045.00     32.33
 98.37   1007.00     31.73
 98.47    895.00     29.92
 98.57    908.00     30.13
 98.67    895.00     29.92
 98.77    821.00     28.65
 98.87    792.00     28.14
 98.97    808.00     28.43
 99.07    812.06     28.50
 99.17    867.00     29.44
 99.27    910.00     30.17
 99.37    964.10     31.05
 99.47   1007.00     31.73
 99.57   1160.65     34.07
 99.67   1172.00     34.23
 99.77   1265.00     35.57
 99.87   1444.00     38.00
 99.97   1581.59     39.77
100.07   1667.00     40.83
100.17   1723.00     41.51
100.27   1764.62     42.01
100.37   1875.00     43.30
100.47   1952.00     44.18
100.57   2042.82     45.20
100.67   2092.24     45.74
100.77   2042.00     45.19
100.87   2038.23     45.15
100.97   1966.28     44.34
101.07   1882.00     43.38
101.17   1857.00     43.09
101.27   1765.00     42.01
101.37   1719.00     41.46
101.47   1589.00     39.86
101.57   1464.00     38.26
101.67   1391.56     37.30
101.77   1315.00     36.26
101.87   1237.41     35.18
101.97   1230.51     35.08
102.07   1133.37     33.67
102.17   1140.00     33.76
102.27   1150.00     33.91
102.37   1131.30     33.63
102.47   1052.00     32.43
102.57   1094.66     33.09
102.67   1066.00     32.65
102.77    982.24     31.34
102.87   1019.47     31.93
102.97    899.94     30.00
103.07    899.00     29.98
103.17    861.00     29.34
103.27    851.00     29.17
103.37    750.96     27.40
103.47    781.00     27.95
103.57    769.00     27.73
103.67    721.00     26.85
103.77    663.20     25.75
103.87    658.00     25.65
103.97    627.00     25.04
104.07    607.00     24.64
104.17    591.00     24.31
104.27    575.00     23.98
104.37    573.00     23.94
104.47    517.00     22.74
104.57    520.05     22.80
104.67    553.00     23.52
104.77    554.00     23.54
104.87    562.00     23.71
104.97    596.00     24.41
105.07    560.00     23.66
105.17    553.00     23.52
105.27    523.00     22.87
105.37    583.00     24.15
105.47    513.00     22.65
105.57    510.21     22.59
105.67    542.54     23.29
105.77    541.00     23.26
105.87    573.82     23.95
105.97    559.00     23.64
106.07    567.00     23.81
106.17    549.00     23.43
106.27    625.92     25.02
106.37    657.00     25.63
106.47    607.00     24.64
106.57    592.00     24.33
106.67    662.00     25.73
106.77    662.00     25.73
106.87    703.57     26.52
106.97    640.00     25.30
107.07    615.00     24.80
107.17    676.00     26.00
107.27    739.61     27.20
107.37    684.29     26.16
107.47    659.00     25.67
107.57    667.37     25.83
107.67    682.00     26.12
107.77    738.00     27.17
107.87    668.59     25.86
107.97    708.30     26.61
108.07    667.00     25.83
108.17    703.00     26.51
108.27    696.37     26.39
108.37    679.00     26.06
108.47    696.15     26.38
108.57    682.00     26.12
108.67    700.00     26.46
108.77    702.00     26.50
108.87    663.00     25.75
108.97    691.00     26.29
109.07    717.70     26.79
109.17    665.00     25.79
109.27    696.00     26.38
109.37    629.82     25.10
109.47    669.00     25.87
109.57    633.00     25.16
109.67    643.06     25.36
109.77    582.00     24.12
109.87    608.00     24.66
109.97    639.00     25.28
110.07    615.00     24.80
110.17    573.00     23.94
110.27    549.37     23.44
110.37    549.00     23.43
110.47    575.00     23.98
110.57    588.00     24.25
110.67    545.40     23.35
110.77    561.89     23.70
110.87    578.00     24.04
110.97    558.00     23.62
111.07    446.00     21.12
111.17    524.96     22.91
111.27    549.00     23.43
111.37    518.00     22.76
111.47    562.00     23.71
111.57    569.00     23.85
111.67    576.88     24.02
111.77    605.00     24.60
111.87    603.75     24.57
111.97    541.00     23.26
112.07    566.00     23.79
112.17    593.00     24.35
112.27    583.17     24.15
112.37    596.00     24.41
112.47    574.00     23.96
112.57    568.76     23.85
112.67    615.49     24.81
112.77    626.00     25.02
112.87    621.74     24.93
112.97    646.00     25.42
113.07    632.45     25.15
113.17    683.00     26.13
113.27    730.00     27.02
113.37    728.00     26.98
113.47    734.00     27.09
113.57    723.00     26.89
113.67    797.00     28.23
113.77    775.39     27.85
113.87    772.00     27.78
113.97    902.00     30.03
114.07    893.78     29.90
114.17   1012.00     31.81
114.27   1099.14     33.15
114.37   1167.11     34.16
114.47   1286.00     35.86
114.57   1304.32     36.12
114.67   1522.74     39.02
114.77   1600.31     40.00
114.87   1907.00     43.67
114.97   2170.00     46.58
115.07   2145.47     46.32
115.17   2447.38     49.47
115.27   2921.00     54.05
115.37   3076.05     55.46
115.47   3491.00     59.08
115.57   3930.00     62.69
115.67   4113.69     64.14
115.77   4492.00     67.02
115.87   4884.00     69.89
115.97   5323.57     72.96
116.07   5600.00     74.83
116.17   5858.76     76.54
116.27   6122.25     78.24
116.37   6657.00     81.59
116.47   6908.00     83.11
116.57   6833.43     82.66
116.67   6885.00     82.98
116.77   6723.88     82.00
116.87   6757.00     82.20
116.97   6452.64     80.33
117.07   6460.88     80.38
117.17   5944.00     77.10
117.27   5427.00     73.67
117.37   5192.00     72.06
117.47   4867.00     69.76
117.57   4758.10     68.98
117.67   4267.00     65.32
117.77   3880.00     62.29
117.87   3479.00     58.98
117.97   3198.00     56.55
118.07   2890.00     53.76
118.17   2467.00     49.67
118.27   2231.00     47.23
118.37   1936.41     44.00
118.47   1732.00     41.62
118.57   1597.00     39.96
118.67   1360.00     36.88
118.77   1272.00     35.67
118.87   1152.43     33.95
118.97   1074.69     32.78
119.07    951.00     30.84
119.17    900.00     30.00
119.27    827.00     28.76
119.37    779.00     27.91
119.47    736.00     27.13
119.57    762.11     27.61
119.67    668.00     25.85
119.77    645.00     25.40
119.87    655.00     25.59
119.97    648.00     25.46
120.07    603.00     24.56
120.17    613.00     24.76
120.27    591.00     24.31
120.37    594.74     24.39
120.47    636.17     25.22
120.57    570.00     23.87
120.67    559.00     23.64
120.77    618.22     24.86
120.87    603.13     24.56
120.97    546.91     23.39
121.07    538.00     23.19
121.17    551.36     23.48
121.27    622.00     24.94
121.37    582.00     24.12
121.47    561.14     23.69
121.57    578.00     24.04
121.67    607.00     24.64
121.77    611.00     24.72
121.87    561.48     23.70
121.97    589.00     24.27
122.07    655.92     25.61
122.17    598.00     24.45
122.27    567.88     23.83
122.37    614.00     24.78
122.47    599.02     24.47
122.57    599.38     24.48
122.67    622.00     24.94
122.77    677.44     26.03
122.87    598.67     24.47
122.97    679.00     26.06
123.07    641.00     25.32
123.17    664.00     25.77
123.27    620.25     24.90
123.37    631.00     25.12
123.47    584.29     24.17
123.57    631.05     25.12
123.67    671.00     25.90
123.77    609.00     24.68
123.87    577.84     24.04
123.97    594.42     24.38
124.07    658.64     25.66
124.17    647.06     25.44
124.27    605.00     24.60
124.37    648.34     25.46
124.47    636.00     25.22
124.57    594.20     24.38
124.67    572.93     23.94
124.77    592.00     24.33
124.87    581.00     24.10
124.97    597.00     24.43
