XYDATA



INTER 1.0 1.0 0 0
TEMP 864.214
  9.97    589.00     24.27
 10.07    506.73     22.51
 10.17    564.00     23.75
 10.27    595.89     24.41
 10.37    571.00     23.90
 10.47    543.00     23.30
 10.57    592.00     24.33
 10.67    589.00     24.27
 10.77    511.40     22.61
 10.87    514.24     22.68
 10.97    559.83     23.66
 11.07    609.00     24.68
 11.17    597.00     24.43
 11.27    549.76     23.45
 11.37    622.00     24.94
 11.47    574.00     23.96
 11.57    570.00     23.87
 11.67    596.21     24.42
 11.77    650.00     25.50
 11.87    601.00     24.52
 11.97    634.00     25.18
 12.07    681.00     26.10
 12.17    692.00     26.31
 12.27    646.52     25.43
 12.37    696.27     26.39
 12.47    635.61     25.21
 12.57    596.00     24.41
 12.67    572.00     23.92
 12.77    563.00     23.73
 12.87    556.00     23.58
 12.97    548.00     23.41
 13.07    577.00     24.02
 13.17    531.00     23.04
 13.27    499.00     22.34
 13.37    534.10     23.11
 13.47    518.00     22.76
 13.57    555.00     23.56
 13.67    588.63     24.26
 13.77    583.00     24.15
 13.87    566.00     23.79
 13.97    522.00     22.85
 14.07    531.00     23.04
 14.17    578.00     24.04
 14.27    549.00     23.43
 14.37    571.20     23.90
 14.47    537.00     23.17
 14.57    548.00     23.41
 14.67    591.35     24.32
 14.77    521.00     22.83
 14.87    539.00     23.22
 14.97    598.00     24.45
 15.07    598.39     24.46
 15.17    532.57     23.08
 15.27    556.00     23.58
 15.37    588.29     24.25
 15.47    596.00     24.41
 15.57    562.00     23.71
 15.67    517.87     22.76
 15.77    537.00     23.17
 15.87    559.00     23.64
 15.97    583.00     24.15
 16.07    573.00     23.94
 16.17    559.00     23.64
 16.27    533.26     23.09
 16.37    516.00     22.72
 16.47    523.00     22.87
 16.57    546.00     23.37
 16.67    543.00     23.30
 16.77    505.00     22.47
 16.87    520.00     22.80
 16.97    561.00     23.69
 17.07    546.00     23.37
 17.17    614.00     24.78
 17.27    586.66     24.22
 17.37    514.00     22.67
 17.47    553.00     23.52
 17.57    540.00     23.24
 17.67    549.06     23.43
 17.77    532.00     23.07
 17.87    540.00     23.24
 17.97    608.98     24.68
 18.07    574.00     23.96
 18.17    589.00     24.27
 18.27    538.00     23.19
 18.37    551.00     23.47
 18.47    517.00     22.74
 18.57    591.00     24.31
 18.67    578.00     24.04
 18.77    582.77     24.14
 18.87    585.43     24.20
 18.97    517.95     22.76
 19.07    581.32     24.11
 19.17    548.00     23.41
 19.27    564.00     23.75
 19.37    571.22     23.90
 19.47    542.00     23.28
 19.57    517.00     22.74
 19.67    559.00     23.64
 19.77    523.00     22.87
 19.87    577.00     24.02
 19.97    575.00     23.98
 20.07    522.67     22.86
 20.17    562.00     23.71
 20.27    542.55     23.29
 20.37    534.35     23.12
 20.47    577.76     24.04
 20.57    575.00     23.98
 20.67    580.00     24.08
 20.77    565.00     23.77
 20.87    562.00     23.71
 20.97    547.00     23.39
 21.07    520.47     22.81
 21.17    590.00     24.29
 21.27    590.76     24.31
 21.37    555.00     23.56
 21.47    515.77     22.71
 21.57    545.00     23.35
 21.67    531.00     23.04
 21.77    593.27     24.36
 21.87    599.58     24.49
 21.97    571.03     23.90
 22.07    572.00     23.92
 22.17    540.60     23.25
 22.27    543.18     23.31
 22.37    555.00     23.56
 22.47    542.77     23.30
 22.57    541.01     23.26
 22.67    545.00     23.35
 22.77    564.00     23.75
 22.87    586.00     24.21
 22.97    562.00     23.71
 23.07    553.00     23.52
 23.17    560.00     23.66
 23.27    517.33     22.74
 23.37    591.00     24.31
 23.47    515.26     22.70
 23.57    557.00     23.60
 23.67    554.00     23.54
 23.77    559.58     23.66
 23.87    525.10     22.92
 23.97    552.00     23.49
 24.07    583.00     24.15
 24.17    582.00     24.12
 24.27    533.41     23.10
 24.37    583.00     24.15
 24.47    561.59     23.70
 24.57    629.24     25.08
 24.67    656.00     25.61
 24.77    634.00     25.18
 24.87    599.00     24.47
 24.97    680.00     26.08
 25.07    632.00     25.14
 25.17    633.72     25.17
 25.27    531.17     23.05
 25.37    519.00     22.78
 25.47    527.59     22.97
 25.57    522.00     22.85
 25.67    596.00     24.41
 25.77    533.50     23.10
 25.87    535.12     23.13
 25.97    570.00     23.87
 26.07    563.21     23.73
 26.17    561.00     23.69
 26.27    503.85     22.45
 26.37    564.00     23.75
 26.47    522.22     22.85
 26.57    581.00     24.10
 26.67    586.86     24.23
 26.77    562.18     23.71
 26.87    510.34     22.59
 26.97    564.65     23.76
 27.07    560.96     23.68
 27.17    503.62     22.44
 27.27    532.73     23.08
 27.37    563.00     23.73
 27.47    514.69     22.69
 27.57    577.93     24.04
 27.67    559.00     23.64
 27.77    566.00     23.79
 27.87    563.27     23.73
 27.97    607.67     24.65
 28.07    756.16     27.50
 28.17    856.85     29.27
 28.27    922.00     30.36
 28.37    940.00     30.66
 28.47    849.00     29.14
 28.57    809.29     28.45
 28.67    745.35     27.30
 28.77    696.00     26.38
 28.87    822.28     28.68
 28.97    809.07     28.44
 29.07    797.00     28.23
 29.17    766.00     27.68
 29.27    703.84     26.53
 29.37    644.56     25.39
 29.47    655.00     25.59
 29.57    612.00     24.74
 29.67    517.23     22.74
 29.77    592.00     24.33
 29.87    614.00     24.78
 29.97    635.00     25.20
 30.07    534.00     23.11
 30.17    524.94     22.91
 30.27    527.19     22.96
 30.37    584.00     24.17
 30.47    533.37     23.09
 30.57    583.44     24.15
 30.67    579.00     24.06
 30.77    603.00     24.56
 30.87    638.00     25.26
 30.97    605.93     24.62
 31.07    586.68     24.22
 31.17    622.00     24.94
 31.27    613.00     24.76
 31.37    620.00     24.90
 31.47    571.00     23.90
 31.57    565.00     23.77
 31.67    549.16     23.43
 31.77    532.82     23.08
 31.87    512.88     22.65
 31.97    511.00     22.61
 32.07    540.37     23.25
 32.17    535.00     23.13
 32.27    523.29     22.88
 32.37    501.54     22.40
 32.47    550.00     23.45
 32.57    548.91     23.43
 32.67    498.95     22.34
 32.77    529.00     23.00
 32.87    545.00     23.35
 32.97    519.00     22.78
 33.07    522.00     22.85
 33.17    526.06     22.94
 33.27    551.00     23.47
 33.37    536.00     23.15
 33.47    590.00     24.29
 33.57    563.16     23.73
 33.67    608.00     24.66
 33.77    672.00     25.92
 33.87    758.17     27.53
 33.97    845.00     29.07
 34.07    998.00     31.59
 34.17    998.00     31.59
 34.27    992.38     31.50
 34.37    846.00     29.09
 34.47    802.00     28.32
 34.57    634.00     25.18
 34.67    591.00     24.31
 34.77    594.18     24.38
 34.87    548.00     23.41
 34.97    501.00     22.38
 35.07    501.66     22.40
 35.17    511.00     22.61
 35.27    533.00     23.09
 35.37    511.00     22.61
 35.47    520.16     22.81
 35.57    538.86     23.21
 35.67    548.00     23.41
 35.77    513.00     22.65
 35.87    535.00     23.13
 35.97    486.00     22.05
 36.07    506.00     22.49
 36.17    498.84     22.33
 36.27    516.00     22.72
 36.37    497.83     22.31
 36.47    545.00     23.35
 36.57    515.00     22.69
 36.67    518.00     22.76
 36.77    527.00     22.96
 36.87    552.27     23.50
 36.97    446.00     21.12
 37.07    498.00     22.32
 37.17    490.00     22.14
 37.27    509.00     22.56
 37.37    482.00     21.95
 37.47    530.60     23.03
 37.57    484.00     22.00
 37.67    475.00     21.79
 37.77    509.00     22.56
 37.87    508.69     22.55
 37.97    505.00     22.47
 38.07    509.00     22.56
 38.17    537.00     23.17
 38.27    495.00     22.25
 38.37    495.00     22.25
 38.47    487.00     22.07
 38.57    494.67     22.24
 38.67    487.00     22.07
 38.77    493.18     22.21
 38.87    517.00     22.74
 38.97    507.00     22.52
 39.07    453.00     21.28
 39.17    466.53     21.60
 39.27    497.51     22.30
 39.37    475.00     21.79
 39.47    466.00     21.59
 39.57    495.58     22.26
 39.67    485.00     22.02
 39.77    461.00     21.47
 39.87    502.54     22.42
 39.97    531.74     23.06
 40.07    490.57     22.15
 40.17    467.56     21.62
 40.27    510.81     22.60
 40.37    488.06     22.09
 40.47    440.00     20.98
 40.57    468.00     21.63
 40.67    467.00     21.61
 40.77    513.00     22.65
 40.87    486.00     22.05
 40.97    496.00     22.27
 41.07    464.00     21.54
 41.17    475.00     21.79
 41.27    498.00     22.32
 41.37    510.04     22.58
 41.47    480.00     21.91
 41.57    473.62     21.76
 41.67    498.09     22.32
 41.77    468.00     21.63
 41.87    476.00     21.82
 41.97    456.99     21.38
 42.07    483.00     21.98
 42.17    536.27     23.16
 42.27    542.97     23.30
 42.37    534.00     23.11
 42.47    522.00     22.85
 42.57    566.00     23.79
 42.67    591.00     24.31
 42.77    579.00     24.06
 42.87    569.00     23.85
 42.97    561.00     23.69
 43.07    538.00     23.19
 43.17    513.00     22.65
 43.27    504.00     22.45
 43.37    520.28     22.81
 43.47    511.00     22.61
 43.57    473.88     21.77
 43.67    440.00     20.98
 43.77    509.00     22.56
 43.87    478.74     21.88
 43.97    478.00     21.86
 44.07    509.00     22.56
 44.17    485.00     22.02
 44.27    511.00     22.61
 44.37    472.69     21.74
 44.47    477.00     21.84
 44.57    449.16     21.19
 44.67    485.00     22.02
 44.77    511.18     22.61
 44.87    450.00     21.21
 44.97    527.88     22.98
 45.07    483.00     21.98
 45.17    511.00     22.61
 45.27    542.00     23.28
 45.37    498.00     22.32
 45.47    511.00     22.61
 45.57    494.00     22.23
 45.67    496.00     22.27
 45.77    515.00     22.69
 45.87    472.00     21.73
 45.97    471.20     21.71
 46.07    505.00     22.47
 46.17    515.23     22.70
 46.27    462.01     21.49
 46.37    501.00     22.38
 46.47    490.00     22.14
 46.57    492.00     22.18
 46.67    483.00     21.98
 46.77    546.00     23.37
 46.87    479.00     21.89
 46.97    465.00     21.56
 47.07    527.00     22.96
 47.17    515.00     22.69
 47.27    512.43     22.64
 47.37    507.00     22.52
 47.47    511.00     22.61
 47.57    532.00     23.07
 47.67    585.00     24.19
 47.77    523.76     22.89
 47.87    576.00     24.00
 47.97    608.00     24.66
 48.07    582.00     24.12
 48.17    579.70     24.08
 48.27    585.76     24.20
 48.37    521.00     22.83
 48.47    557.00     23.60
 48.57    486.19     22.05
 48.67    533.00     23.09
 48.77    534.00     23.11
 48.87    513.54     22.66
 48.97    488.00     22.09
 49.07    522.18     22.85
 49.17    528.00     22.98
 49.27    584.62     24.18
 49.37    577.81     24.04
 49.47    588.45     24.26
 49.57    654.00     25.57
 49.67    673.00     25.94
 49.77    793.69     28.17
 49.87   1110.98     33.33
 49.97   1297.11     36.02
 50.07   1657.18     40.71
 50.17   2090.00     45.72
 50.27   2378.48     48.77
 50.37   2338.00     48.35
 50.47   2184.00     46.73
 50.57   1956.00     44.23
 50.67   1470.00     38.34
 50.77   1138.00     33.73
 50.87    879.00     29.65
 50.97    730.00     27.02
 51.07    651.29     25.52
 51.17    596.00     24.41
 51.27    619.00     24.88
 51.37    644.00     25.38
 51.47    588.00     24.25
 51.57    563.71     23.74
 51.67    573.34     23.94
 51.77    580.00     24.08
 51.87    526.00     22.93
 51.97    577.45     24.03
 52.07    563.45     23.74
 52.17    549.00     23.43
 52.27    544.00     23.32
 52.37    521.00     22.83
 52.47    503.03     22.43
 52.57    591.00     24.31
 52.67    508.56     22.55
 52.77    528.00     22.98
 52.87    597.00     24.43
 52.97    567.03     23.81
 53.07    641.12     25.32
 53.17    711.00     26.66
 53.27    840.74     29.00
 53.37    983.80     31.37
 53.47   1107.00     33.27
 53.57   1126.00     33.56
 53.67   1166.00     34.15
 53.77   1108.31     33.29
 53.87   1062.00     32.59
 53.97    929.00     30.48
 54.07    866.70     29.44
 54.17    799.06     28.27
 54.27    629.00     25.08
 54.37    630.00     25.10
 54.47    623.00     24.96
 54.57    553.55     23.53
 54.67    556.37     23.59
 54.77    515.73     22.71
 54.87    558.00     23.62
 54.97    603.00     24.56
 55.07    495.83     22.27
 55.17    593.00     24.35
 55.27    553.34     23.52
 55.37    497.00     22.29
 55.47    545.00     23.35
 55.57    610.00     24.70
 55.67    569.92     23.87
 55.77    544.03     23.32
 55.87    588.00     24.25
 55.97    611.00     24.72
 56.07    687.00     26.21
 56.17    671.00     25.90
 56.27    782.67     27.98
 56.37    886.00     29.77
 56.47   1126.00     33.56
 56.57   1366.49     36.97
 56.67   1627.00     40.34
 56.77   1945.00     44.10
 56.87   2365.65     48.64
 56.97   2433.34     49.33
 57.07   2480.56     49.81
 57.17   2424.00     49.23
 57.27   2140.20     46.26
 57.37   1729.56     41.59
 57.47   1520.00     38.99
 57.57   1184.21     34.41
 57.67   1016.00     31.87
 57.77    852.00     29.19
 57.87    795.00     28.20
 57.97    721.77     26.87
 58.07    727.00     26.96
 58.17    683.00     26.13
 58.27    735.00     27.11
 58.37    742.00     27.24
 58.47    825.00     28.72
 58.57    824.65     28.72
 58.67    902.00     30.03
 58.77    963.00     31.03
 58.87   1068.00     32.68
 58.97   1183.00     34.39
 59.07   1178.24     34.33
 59.17   1275.00     35.71
 59.27   1307.00     36.15
 59.37   1275.00     35.71
 59.47   1192.62     34.53
 59.57   1103.09     33.21
 59.67   1091.11     33.03
 59.77   1187.98     34.47
 59.87   1225.00     35.00
 59.97   1222.00     34.96
 60.07   1288.00     35.89
 60.17   1435.00     37.88
 60.27   1406.67     37.51
 60.37   1566.21     39.58
 60.47   1538.88     39.23
 60.57   1364.25     36.94
 60.67   1320.00     36.33
 60.77   1170.51     34.21
 60.87    995.00     31.54
 60.97    932.00     30.53
 61.07    767.00     27.69
 61.17    757.00     27.51
 61.27    719.00     26.81
 61.37    673.00     25.94
 61.47    709.40     26.63
 61.57    717.00     26.78
 61.67    737.77     27.16
 61.77    774.00     27.82
 61.87    961.54     31.01
 61.97   1070.00     32.71
 62.07   1136.46     33.71
 62.17   1195.00     34.57
 62.27   1347.11     36.70
 62.37   1427.53     37.78
 62.47   1213.00     34.83
 62.57   1271.96     35.66
 62.67   1118.00     33.44
 62.77    901.00     30.02
 62.87    823.00     28.69
 62.97    707.00     26.59
 63.07    730.00     27.02
 63.17    647.46     25.45
 63.27    563.43     23.74
 63.37    586.00     24.21
 63.47    554.00     23.54
 63.57    590.00     24.29
 63.67    566.00     23.79
 63.77    573.75     23.95
 63.87    609.71     24.69
 63.97    582.83     24.14
 64.07    615.00     24.80
 64.17    712.00     26.68
 64.27    748.00     27.35
 64.37    813.00     28.51
 64.47    833.00     28.86
 64.57    867.14     29.45
 64.67    919.47     30.32
 64.77    950.00     30.82
 64.87   1022.00     31.97
 64.97    919.47     30.32
 65.07    962.00     31.02
 65.17    916.98     30.28
 65.27    843.86     29.05
 65.37    770.00     27.75
 65.47    706.57     26.58
 65.57    711.00     26.66
 65.67    652.94     25.55
 65.77    619.32     24.89
 65.87    598.09     24.46
 65.97    607.10     24.64
 66.07    601.46     24.52
 66.17    544.55     23.34
 66.27    553.00     23.52
 66.37    558.00     23.62
 66.47    551.00     23.47
 66.57    602.12     24.54
 66.67    568.59     23.85
 66.77    544.00     23.32
 66.87    575.00     23.98
 66.97    564.00     23.75
 67.07    597.43     24.44
 67.17    603.00     24.56
 67.27    709.00     26.63
 67.37    766.04     27.68
 67.47    763.00     27.62
 67.57    982.00     31.34
 67.67   1124.28     33.53
 67.77   1362.00     36.91
 67.87   1689.83     41.11
 67.97   1814.00     42.59
 68.07   2038.44     45.15
 68.17   2346.00     48.44
 68.27   2353.00     48.51
 68.37   2222.06     47.14
 68.47   2157.00     46.44
 68.57   2036.11     45.12
 68.67   1658.16     40.72
 68.77   1519.76     38.98
 68.87   1282.00     35.81
 68.97    998.00     31.59
 69.07    941.00     30.68
 69.17    770.00     27.75
 69.27    677.13     26.02
 69.37    721.00     26.85
 69.47    679.00     26.06
 69.57    568.72     23.85
 69.67    648.00     25.46
 69.77    564.71     23.76
 69.87    587.00     24.23
 69.97    561.00     23.69
 70.07    576.58     24.01
 70.17    524.60     22.90
 70.27    585.00     24.19
 70.37    551.00     23.47
 70.47    569.00     23.85
 70.57    536.77     23.17
 70.67    585.00     24.19
 70.77    548.00     23.41
 70.87    606.00     24.62
 70.97    605.00     24.60
 71.07    615.32     24.81
 71.17    645.00     25.40
 71.27    701.00     26.48
 71.37    742.74     27.25
 71.47    850.00     29.15
 71.57    924.00     30.40
 71.67   1201.97     34.67
 71.77   1280.23     35.78
 71.87   1438.89     37.93
 71.97   1574.72     39.68
 72.07   1738.00     41.69
 72.17   1816.47     42.62
 72.27   1786.00     42.26
 72.37   1834.66     42.83
 72.47   1625.38     40.32
 72.57   1663.00     40.78
 72.67   1388.00     37.26
 72.77   1297.00     36.01
 72.87   1060.00     32.56
 72.97    987.00     31.42
 73.07    896.00     29.93
 73.17    800.89     28.30
 73.27    755.13     27.48
 73.37    670.00     25.88
 73.47    658.00     25.65
 73.57    658.66     25.66
 73.67    644.00     25.38
 73.77    619.36     24.89
 73.87    672.00     25.92
 73.97    592.00     24.33
 74.07    549.28     23.44
 74.17    623.49     24.97
 74.27    611.00     24.72
 74.37    532.00     23.07
 74.47    531.65     23.06
 74.57    588.00     24.25
 74.67    602.00     24.54
 74.77    594.00     24.37
 74.87    650.00     25.50
 74.97    587.01     24.23
 75.07    603.93     24.57
 75.17    558.56     23.63
 75.27    557.45     23.61
 75.37    570.00     23.87
 75.47    613.00     24.76
 75.57    555.00     23.56
 75.67    560.00     23.66
 75.77    527.71     22.97
 75.87    519.38     22.79
 75.97    598.00     24.45
 76.07    597.53     24.44
 76.17    594.00     24.37
 76.27    646.00     25.42
 76.37    632.00     25.14
 76.47    669.00     25.87
 76.57    684.00     26.15
 76.67    683.00     26.13
 76.77    723.37     26.90
 76.87    688.00     26.23
 76.97    647.00     25.44
 77.07    694.82     26.36
 77.17    626.00     25.02
 77.27    592.00     24.33
 77.37    596.00     24.41
 77.47    596.90     24.43
 77.57    609.00     24.68
 77.67    496.00     22.27
 77.77    552.00     23.49
 77.87    483.00     21.98
 77.97    539.00     23.22
 78.07    527.00     22.96
 78.17    466.00     21.59
 78.27    502.64     22.42
 78.37    481.86     21.95
 78.47    504.01     22.45
 78.57    552.00     23.49
 78.67    522.21     22.85
 78.77    479.35     21.89
 78.87    467.26     21.62
 78.97    505.81     22.49
 79.07    517.71     22.75
 79.17    463.81     21.54
 79.27    550.43     23.46
 79.37    514.00     22.67
 79.47    522.88     22.87
 79.57    505.01     22.47
 79.67    519.75     22.80
 79.77    551.88     23.49
 79.87    555.64     23.57
 79.97    484.29     22.01
 80.07    520.99     22.83
 80.17    522.00     22.85
 80.27    543.00     23.30
 80.37    514.00     22.67
 80.47    572.69     23.93
 80.57    555.00     23.56
 80.67    577.39     24.03
 80.77    566.00     23.79
 80.87    594.00     24.37
 80.97    629.00     25.08
 81.07    633.99     25.18
 81.17    699.00     26.44
 81.27    716.84     26.77
 81.37    707.00     26.59
 81.47    695.25     26.37
 81.57    711.00     26.66
 81.67    737.23     27.15
 81.77    691.00     26.29
 81.87    691.00     26.29
 81.97    749.00     27.37
 82.07    705.24     26.56
 82.17    683.00     26.13
 82.27    704.13     26.54
 82.37    637.00     25.24
 82.47    655.84     25.61
 82.57    585.00     24.19
 82.67    569.00     23.85
 82.77    551.00     23.47
 82.87    576.00     24.00
 82.97    570.00     23.87
 83.07    579.33     24.07
 83.17    582.12     24.13
 83.27    537.00     23.17
 83.37    536.00     23.15
 83.47    498.00     22.32
 83.57    498.00     22.32
 83.67    475.00     21.79
 83.77    498.00     22.32
 83.87    503.00     22.43
 83.97    526.00     22.93
 84.07    522.00     22.85
 84.17    570.00     23.87
 84.27    521.00     22.83
 84.37    559.01     23.64
 84.47    552.47     23.50
 84.57    542.69     23.30
 84.67    551.00     23.47
 84.77    558.54     23.63
 84.87    520.00     22.80
 84.97    520.00     22.80
 85.07    493.00     22.20
 85.17    497.10     22.30
 85.27    505.00     22.47
 85.37    511.00     22.61
 85.47    485.00     22.02
 85.57    483.00     21.98
 85.67    477.56     21.85
 85.77    520.00     22.80
 85.87    452.00     21.26
 85.97    513.00     22.65
 86.07    510.00     22.58
 86.17    464.42     21.55
 86.27    530.00     23.02
 86.37    526.00     22.93
 86.47    466.17     21.59
 86.57    550.00     23.45
 86.67    528.00     22.98
 86.77    532.88     23.08
 86.87    553.67     23.53
 86.97    515.95     22.71
 87.07    611.00     24.72
 87.17    546.00     23.37
 87.27    582.00     24.12
 87.37    631.00     25.12
 87.47    556.38     23.59
 87.57    566.00     23.79
 87.67    588.00     24.25
 87.77    602.17     24.54
 87.87    579.00     24.06
 87.97    565.00     23.77
 88.07    651.00     25.51
 88.17    631.00     25.12
 88.27    580.00     24.08
 88.37    607.00     24.64
 88.47    564.00     23.75
 88.57    560.00     23.66
 88.67    556.00     23.58
 88.77    514.05     22.67
 88.87    540.00     23.24
 88.97    553.00     23.52
 89.07    592.45     24.34
 89.17    567.00     23.81
 89.27    610.00     24.70
 89.37    577.00     24.02
 89.47    575.00     23.98
 89.57    556.00     23.58
 89.67    630.00     25.10
 89.77    622.56     24.95
 89.87    545.00     23.35
 89.97    544.78     23.34
 90.07    549.00     23.43
 90.17    531.00     23.04
 90.27    552.00     23.49
 90.37    582.73     24.14
 90.47    528.57     22.99
 90.57    505.00     22.47
 90.67    547.27     23.39
 90.77    508.00     22.54
 90.87    480.00     21.91
 90.97    536.04     23.15
 91.07    511.00     22.61
 91.17    495.00     22.25
 91.27    449.00     21.19
 91.37    499.69     22.35
 91.47    466.83     21.61
 91.57    479.55     21.90
 91.67    520.00     22.80
 91.77    538.00     23.19
 91.87    525.00     22.91
 91.97    480.00     21.91
 92.07    514.00     22.67
 92.17    536.59     23.16
 92.27    524.00     22.89
 92.37    555.32     23.57
 92.47    537.59     23.19
 92.57    532.62     23.08
 92.67    528.00     22.98
 92.77    612.00     24.74
 92.87    640.58     25.31
 92.97    717.00     26.78
 93.07    661.68     25.72
 93.17    687.00     26.21
 93.27    676.00     26.00
 93.37    751.00     27.40
 93.47    685.00     26.17
 93.57    724.00     26.91
 93.67    800.24     28.29
 93.77    744.00     27.28
 93.87    756.00     27.50
 93.97    827.00     28.76
 94.07    861.00     29.34
 94.17    809.00     28.44
 94.27    761.51     27.60
 94.37    820.14     28.64
 94.47    877.06     29.62
 94.57    845.00     29.07
 94.67    871.00     29.51
 94.77    853.99     29.22
 94.87    845.00     29.07
 94.97    857.89     29.29
 95.07    807.62     28.42
 95.17    892.00     29.87
 95.27    854.00     29.22
 95.37    854.00     29.22
 95.47    837.00     28.93
 95.57    808.32     28.43
 95.67    778.00     27.89
 95.77    783.00     27.98
 95.87    686.00     26.19
 95.97    738.61     27.18
 96.07    702.00     26.50
 96.17    703.00     26.51
 96.27    655.00     25.59
 96.37    714.16     26.72
 96.47    735.00     27.11
 96.57    757.00     27.51
 96.67    790.00     28.11
 96.77    770.63     27.76
 96.87    862.00     29.36
 96.97    915.00     30.25
 97.07    958.00     30.95
 97.17   1117.00     33.42
 97.27   1071.66     32.74
 97.37   1147.00     33.87
 97.47   1299.00     36.04
 97.57   1294.00     35.97
 97.67   1303.21     36.10
 97.77   1400.00     37.42
 97.87   1388.00     37.26
 97.97   1345.00     36.67
 98.07   1406.00     37.50
 98.17   1301.00     36.07
 98.27   1298.00     36.03
 98.37   1250.00     35.36
 98.47   1113.85     33.37
 98.57   1073.19     32.76
 98.67   1058.23     32.53
 98.77   1018.10     31.91
 98.87    950.00     30.82
 98.97    926.00     30.43
 99.07    845.00     29.07
 99.17    831.32     28.83
 99.27    864.00     29.39
 99.37    853.00     29.21
 99.47    844.00     29.05
 99.57    883.00     29.72
 99.67    948.00     30.79
 99.77   1074.00     32.77
 99.87   1173.66     34.26
 99.97   1117.00     33.42
100.07   1327.98     36.44
100.17   1414.00     37.60
100.27   1526.00     39.06
100.37   1627.00     40.34
100.47   1655.00     40.68
100.57   1733.00     41.63
100.67   1747.00     41.80
100.77   1852.00     43.03
100.87   1974.00     44.43
100.97   1934.00     43.98
101.07   2009.63     44.83
101.17   1966.00     44.34
101.27   1864.97     43.19
101.37   1979.00     44.49
101.47   1834.00     42.83
101.57   1815.45     42.61
101.67   1766.63     42.03
101.77   1663.00     40.78
101.87   1604.00     40.05
101.97   1548.89     39.36
102.07   1433.00     37.85
102.17   1356.00     36.82
102.27   1261.00     35.51
102.37   1303.72     36.11
102.47   1262.00     35.52
102.57   1160.00     34.06
102.67   1223.95     34.98
102.77   1119.86     33.46
102.87   1099.00     33.15
102.97   1126.37     33.56
103.07   1048.09     32.37
103.17   1003.57     31.68
103.27    994.00     31.53
103.37   1011.16     31.80
103.47    877.00     29.61
103.57    879.00     29.65
103.67    962.00     31.02
103.77    825.00     28.72
103.87    803.00     28.34
103.97    797.00     28.23
104.07    685.24     26.18
104.17    701.00     26.48
104.27    650.00     25.50
104.37    659.00     25.67
104.47    625.00     25.00
104.57    607.00     24.64
104.67    591.00     24.31
104.77    557.37     23.61
104.87    567.00     23.81
104.97    548.00     23.41
105.07    534.00     23.11
105.17    529.00     23.00
105.27    523.00     22.87
105.37    540.00     23.24
105.47    556.00     23.58
105.57    526.00     22.93
105.67    479.93     21.91
105.77    528.00     22.98
105.87    485.50     22.03
105.97    525.00     22.91
106.07    524.50     22.90
106.17    494.31     22.23
106.27    506.98     22.52
106.37    564.00     23.75
106.47    567.36     23.82
106.57    597.00     24.43
106.67    576.48     24.01
106.77    584.41     24.17
106.87    611.00     24.72
106.97    631.00     25.12
107.07    627.00     25.04
107.17    600.00     24.49
107.27    671.00     25.90
107.37    630.00     25.10
107.47    642.00     25.34
107.57    652.00     25.53
107.67    649.08     25.48
107.77    682.80     26.13
107.87    721.10     26.85
107.97    656.57     25.62
108.07    681.00     26.10
108.17    670.00     25.88
108.27    649.00     25.48
108.37    656.15     25.62
108.47    651.24     25.52
108.57    650.00     25.50
108.67    701.00     26.48
108.77    676.00     26.00
108.87    656.00     25.61
108.97    680.00     26.08
109.07    643.11     25.36
109.17    728.08     26.98
109.27    673.00     25.94
109.37    740.00     27.20
109.47    638.00     25.26
109.57    669.00     25.87
109.67    684.00     26.15
109.77    647.49     25.45
109.87    656.00     25.61
109.97    612.00     24.74
110.07    642.00     25.34
110.17    624.00     24.98
110.27    590.41     24.30
110.37    554.00     23.54
110.47    601.00     24.52
110.57    637.00     25.24
110.67    538.11     23.20
110.77    518.03     22.76
110.87    574.67     23.97
110.97    560.00     23.66
111.07    581.48     24.11
111.17    554.00     23.54
111.27    553.00     23.52
111.37    570.00     23.87
111.47    499.95     22.36
111.57    567.44     23.82
111.67    545.00     23.35
111.77    509.60     22.57
111.87    524.00     22.89
111.97    527.12     22.96
112.07    570.73     23.89
112.17    519.00     22.78
112.27    522.00     22.85
112.37    513.05     22.65
112.47    604.26     24.58
112.57    557.00     23.60
112.67    566.43     23.80
112.77    518.00     22.76
112.87    576.00     24.00
112.97    510.00     22.58
113.07    559.37     23.65
113.17    535.00     23.13
113.27    574.00     23.96
113.37    554.00     23.54
113.47    582.00     24.12
113.57    612.10     24.74
113.67    624.00     24.98
113.77    676.00     26.00
113.87    733.85     27.09
113.97    711.00     26.66
114.07    693.00     26.32
114.17    709.00     26.63
114.27    773.00     27.80
114.37    810.00     28.46
114.47    886.02     29.77
114.57    950.01     30.82
114.67   1042.00     32.28
114.77   1113.62     33.37
114.87   1272.00     35.67
114.97   1397.00     37.38
115.07   1524.32     39.04
115.17   1761.00     41.96
115.27   1986.00     44.56
115.37   2185.00     46.74
115.47   2346.36     48.44
115.57   2758.00     52.52
115.67   2961.00     54.42
115.77   3277.90     57.25
115.87   3609.78     60.08
115.97   3873.94     62.24
116.07   4290.00     65.50
116.17   4632.00     68.06
116.27   5042.00     71.01
116.37   5368.81     73.27
116.47   5820.00     76.29
116.57   6036.06     77.69
116.67   6227.00     78.91
116.77   6482.00     80.51
116.87   6763.04     82.24
116.97   6751.00     82.16
117.07   6948.00     83.35
117.17   6875.59     82.92
117.27   6850.31     82.77
117.37   6500.00     80.62
117.47   6438.71     80.24
117.57   6081.00     77.98
117.67   5921.26     76.95
117.77   5376.75     73.33
117.87   5086.00     71.32
117.97   4901.15     70.01
118.07   4373.36     66.13
118.17   4206.00     64.85
118.27   3771.00     61.41
118.37   3445.59     58.70
118.47   3018.00     54.94
118.57   2832.52     53.22
118.67   2414.00     49.13
118.77   2259.58     47.54
118.87   1903.00     43.62
118.97   1684.00     41.04
119.07   1551.00     39.38
119.17   1488.00     38.57
119.27   1301.08     36.07
119.37   1235.00     35.14
119.47   1128.00     33.59
119.57   1076.00     32.80
119.67    943.00     30.71
119.77    827.85     28.77
119.87    848.00     29.12
119.97    797.00     28.23
120.07    736.34     27.14
120.17    754.16     27.46
120.27    738.00     27.17
120.37    661.00     25.71
120.47    618.45     24.87
120.57    655.00     25.59
120.67    592.99     24.35
120.77    568.00     23.83
120.87    558.22     23.63
120.97    621.34     24.93
121.07    598.92     24.47
121.17    590.00     24.29
121.27    544.00     23.32
121.37    572.33     23.92
121.47    619.60     24.89
121.57    610.58     24.71
121.67    565.88     23.79
121.77    574.00     23.96
121.87    534.06     23.11
121.97    581.00     24.10
122.07    578.00     24.04
122.17    543.30     23.31
122.27    575.00     23.98
122.37    581.00     24.10
122.47    618.00     24.86
122.57    640.00     25.30
122.67    646.00     25.42
122.77    599.00     24.47
122.87    588.38     24.26
122.97    618.00     24.86
123.07    620.20     24.90
123.17    655.00     25.59
123.27    593.42     24.36
123.37    643.00     25.36
123.47    665.99     25.81
123.57    582.00     24.12
123.67    667.00     25.83
123.77    634.00     25.18
123.87    640.79     25.31
123.97    583.22     24.15
124.07    590.50     24.30
124.17    627.19     25.04
124.27    589.00     24.27
124.37    639.00     25.28
124.47    582.39     24.13
124.57    596.00     24.41
124.67    576.00     24.00
124.77    612.00     24.74
124.87    598.00     24.45
124.97    550.00     23.45
