XYDATA



INTER 1.0 1.0 0 0
TEMP 1074.1
  9.97    607.00     24.64
 10.07    661.00     25.71
 10.17    536.68     23.17
 10.27    616.00     24.82
 10.37    573.31     23.94
 10.47    555.21     23.56
 10.57    543.00     23.30
 10.67    602.00     24.54
 10.77    616.00     24.82
 10.87    577.38     24.03
 10.97    556.00     23.58
 11.07    585.00     24.19
 11.17    557.00     23.60
 11.27    616.29     24.83
 11.37    566.00     23.79
 11.47    557.46     23.61
 11.57    593.00     24.35
 11.67    588.73     24.26
 11.77    586.00     24.21
 11.87    601.00     24.52
 11.97    705.00     26.55
 12.07    719.00     26.81
 12.17    671.32     25.91
 12.27    718.29     26.80
 12.37    675.00     25.98
 12.47    666.00     25.81
 12.57    629.10     25.08
 12.67    631.64     25.13
 12.77    534.27     23.11
 12.87    621.00     24.92
 12.97    560.56     23.68
 13.07    535.67     23.14
 13.17    564.00     23.75
 13.27    562.00     23.71
 13.37    527.00     22.96
 13.47    547.00     23.39
 13.57    566.28     23.80
 13.67    580.94     24.10
 13.77    570.00     23.87
 13.87    567.00     23.81
 13.97    596.00     24.41
 14.07    579.00     24.06
 14.17    589.68     24.28
 14.27    545.00     23.35
 14.37    530.00     23.02
 14.47    575.00     23.98
 14.57    534.00     23.11
 14.67    547.00     23.39
 14.77    589.37     24.28
 14.87    512.00     22.63
 14.97    560.00     23.66
 15.07    578.00     24.04
 15.17    583.00     24.15
 15.27    589.00     24.27
 15.37    569.00     23.85
 15.47    578.00     24.04
 15.57    525.00     22.91
 15.67    586.00     24.21
 15.77    533.00     23.09
 15.87    526.11     22.94
 15.97    539.16     23.22
 16.07    533.00     23.09
 16.17    529.00     23.00
 16.27    551.00     23.47
 16.37    579.52     24.07
 16.47    521.64     22.84
 16.57    581.00     24.10
 16.67    535.00     23.13
 16.77    517.55     22.75
 16.87    542.00     23.28
 16.97    563.00     23.73
 17.07    573.12     23.94
 17.17    496.00     22.27
 17.27    532.00     23.07
 17.37    537.00     23.17
 17.47    605.00     24.60
 17.57    558.81     23.64
 17.67    557.00     23.60
 17.77    519.33     22.79
 17.87    566.39     23.80
 17.97    554.00     23.54
 18.07    547.00     23.39
 18.17    576.00     24.00
 18.27    583.00     24.15
 18.37    574.00     23.96
 18.47    568.00     23.83
 18.57    576.00     24.00
 18.67    553.38     23.52
 18.77    550.07     23.45
 18.87    533.00     23.09
 18.97    545.00     23.35
 19.07    554.00     23.54
 19.17    578.00     24.04
 19.27    555.43     23.57
 19.37    557.60     23.61
 19.47    539.00     23.22
 19.57    544.00     23.32
 19.67    567.06     23.81
 19.77    540.29     23.24
 19.87    530.40     23.03
 19.97    533.00     23.09
 20.07    552.00     23.49
 20.17    533.00     23.09
 20.27    579.00     24.06
 20.37    517.44     22.75
 20.47    582.00     24.12
 20.57    588.56     24.26
 20.67    532.00     23.07
 20.77    526.00     22.93
 20.87    531.00     23.04
 20.97    583.00     24.15
 21.07    519.86     22.80
 21.17    537.56     23.19
 21.27    602.00     24.54
 21.37    569.75     23.87
 21.47    537.00     23.17
 21.57    588.62     24.26
 21.67    538.00     23.19
 21.77    512.92     22.65
 21.87    529.00     23.00
 21.97    505.00     22.47
 22.07    612.00     24.74
 22.17    575.00     23.98
 22.27    542.00     23.28
 22.37    597.93     24.45
 22.47    529.00     23.00
 22.57    544.00     23.32
 22.67    591.00     24.31
 22.77    522.00     22.85
 22.87    539.12     23.22
 22.97    505.40     22.48
 23.07    518.19     22.76
 23.17    539.00     23.22
 23.27    551.00     23.47
 23.37    564.50     23.76
 23.47    597.00     24.43
 23.57    565.00     23.77
 23.67    508.94     22.56
 23.77    557.00     23.60
 23.87    530.63     23.04
 23.97    574.50     23.97
 24.07    576.00     24.00
 24.17    528.45     22.99
 24.27    569.00     23.85
 24.37    524.00     22.89
 24.47    673.00     25.94
 24.57    578.00     24.04
 24.67    609.26     24.68
 24.77    676.95     26.02
 24.87    594.90     24.39
 24.97    608.00     24.66
 25.07    587.34     24.24
 25.17    545.00     23.35
 25.27    572.00     23.92
 25.37    537.00     23.17
 25.47    526.00     22.93
 25.57    530.14     23.02
 25.67    551.00     23.47
 25.77    500.19     22.36
 25.87    600.00     24.49
 25.97    553.00     23.52
 26.07    584.00     24.17
 26.17    542.00     23.28
 26.27    554.00     23.54
 26.37    524.24     22.90
 26.47    513.69     22.66
 26.57    521.00     22.83
 26.67    552.75     23.51
 26.77    542.51     23.29
 26.87    590.00     24.29
 26.97    514.00     22.67
 27.07    519.00     22.78
 27.17    522.00     22.85
 27.27    548.00     23.41
 27.37    519.95     22.80
 27.47    526.47     22.94
 27.57    572.41     23.93
 27.67    544.00     23.32
 27.77    568.79     23.85
 27.87    634.00     25.18
 27.97    666.20     25.81
 28.07    730.00     27.02
 28.17    874.00     29.56
 28.27   1003.88     31.68
 28.37    869.30     29.48
 28.47    885.00     29.75
 28.57    673.04     25.94
 28.67    683.00     26.13
 28.77    749.00     27.37
 28.87    800.00     28.28
 28.97    886.98     29.78
 29.07    750.00     27.39
 29.17    686.00     26.19
 29.27    668.00     25.85
 29.37    605.45     24.61
 29.47    599.00     24.47
 29.57    540.96     23.26
 29.67    608.41     24.67
 29.77    596.00     24.41
 29.87    585.00     24.19
 29.97    591.41     24.32
 30.07    587.00     24.23
 30.17    511.25     22.61
 30.27    568.85     23.85
 30.37    521.07     22.83
 30.47    571.00     23.90
 30.57    499.00     22.34
 30.67    603.00     24.56
 30.77    604.00     24.58
 30.87    622.00     24.94
 30.97    569.25     23.86
 31.07    630.67     25.11
 31.17    589.00     24.27
 31.27    523.15     22.87
 31.37    536.00     23.15
 31.47    515.00     22.69
 31.57    579.45     24.07
 31.67    500.43     22.37
 31.77    535.98     23.15
 31.87    571.00     23.90
 31.97    497.12     22.30
 32.07    509.00     22.56
 32.17    553.59     23.53
 32.27    530.54     23.03
 32.37    514.20     22.68
 32.47    528.93     23.00
 32.57    595.00     24.39
 32.67    495.39     22.26
 32.77    505.99     22.49
 32.87    510.27     22.59
 32.97    552.79     23.51
 33.07    543.56     23.31
 33.17    500.79     22.38
 33.27    524.00     22.89
 33.37    569.53     23.86
 33.47    545.00     23.35
 33.57    646.00     25.42
 33.67    661.88     25.73
 33.77    756.00     27.50
 33.87    849.00     29.14
 33.97   1059.00     32.54
 34.07   1070.83     32.72
 34.17   1024.00     32.00
 34.27    906.23     30.10
 34.37    739.00     27.18
 34.47    695.58     26.37
 34.57    562.63     23.72
 34.67    535.00     23.13
 34.77    531.76     23.06
 34.87    521.53     22.84
 34.97    500.00     22.36
 35.07    555.00     23.56
 35.17    566.72     23.81
 35.27    581.00     24.10
 35.37    561.46     23.70
 35.47    539.00     23.22
 35.57    546.00     23.37
 35.67    535.16     23.13
 35.77    519.00     22.78
 35.87    505.00     22.47
 35.97    534.00     23.11
 36.07    549.67     23.45
 36.17    524.00     22.89
 36.27    532.00     23.07
 36.37    486.00     22.05
 36.47    533.83     23.10
 36.57    535.57     23.14
 36.67    506.39     22.50
 36.77    529.00     23.00
 36.87    515.00     22.69
 36.97    525.00     22.91
 37.07    523.00     22.87
 37.17    525.82     22.93
 37.27    488.80     22.11
 37.37    529.00     23.00
 37.47    509.32     22.57
 37.57    512.15     22.63
 37.67    543.00     23.30
 37.77    545.00     23.35
 37.87    526.00     22.93
 37.97    520.00     22.80
 38.07    513.00     22.65
 38.17    545.00     23.35
 38.27    514.00     22.67
 38.37    491.00     22.16
 38.47    528.00     22.98
 38.57    547.50     23.40
 38.67    523.00     22.87
 38.77    488.00     22.09
 38.87    492.00     22.18
 38.97    488.08     22.09
 39.07    514.00     22.67
 39.17    513.66     22.66
 39.27    497.89     22.31
 39.37    514.00     22.67
 39.47    483.59     21.99
 39.57    476.02     21.82
 39.67    498.22     22.32
 39.77    484.00     22.00
 39.87    474.00     21.77
 39.97    534.00     23.11
 40.07    491.72     22.17
 40.17    520.00     22.80
 40.27    490.00     22.14
 40.37    514.00     22.67
 40.47    548.52     23.42
 40.57    540.00     23.24
 40.67    474.29     21.78
 40.77    443.00     21.05
 40.87    485.00     22.02
 40.97    503.00     22.43
 41.07    478.00     21.86
 41.17    521.75     22.84
 41.27    504.00     22.45
 41.37    496.00     22.27
 41.47    511.00     22.61
 41.57    494.00     22.23
 41.67    472.90     21.75
 41.77    483.03     21.98
 41.87    523.00     22.87
 41.97    510.00     22.58
 42.07    504.00     22.45
 42.17    564.62     23.76
 42.27    543.00     23.30
 42.37    533.00     23.09
 42.47    559.00     23.64
 42.57    578.00     24.04
 42.67    559.00     23.64
 42.77    644.00     25.38
 42.87    565.77     23.79
 42.97    593.80     24.37
 43.07    567.00     23.81
 43.17    505.00     22.47
 43.27    566.03     23.79
 43.37    529.00     23.00
 43.47    483.10     21.98
 43.57    480.00     21.91
 43.67    486.00     22.05
 43.77    467.46     21.62
 43.87    548.03     23.41
 43.97    548.00     23.41
 44.07    534.65     23.12
 44.17    568.00     23.83
 44.27    522.72     22.86
 44.37    485.31     22.03
 44.47    507.00     22.52
 44.57    479.00     21.89
 44.67    486.48     22.06
 44.77    512.56     22.64
 44.87    523.43     22.88
 44.97    517.00     22.74
 45.07    518.66     22.77
 45.17    498.00     22.32
 45.27    474.15     21.78
 45.37    500.01     22.36
 45.47    502.50     22.42
 45.57    513.00     22.65
 45.67    515.44     22.70
 45.77    516.00     22.72
 45.87    486.45     22.06
 45.97    526.00     22.93
 46.07    519.00     22.78
 46.17    496.00     22.27
 46.27    505.00     22.47
 46.37    502.00     22.41
 46.47    482.00     21.95
 46.57    499.00     22.34
 46.67    538.47     23.20
 46.77    451.00     21.24
 46.87    488.37     22.10
 46.97    471.84     21.72
 47.07    494.42     22.24
 47.17    538.03     23.20
 47.27    522.38     22.86
 47.37    543.00     23.30
 47.47    530.36     23.03
 47.57    553.00     23.52
 47.67    605.00     24.60
 47.77    576.24     24.01
 47.87    561.00     23.69
 47.97    592.00     24.33
 48.07    630.00     25.10
 48.17    559.00     23.64
 48.27    578.00     24.04
 48.37    545.00     23.35
 48.47    573.00     23.94
 48.57    556.00     23.58
 48.67    551.34     23.48
 48.77    532.00     23.07
 48.87    554.00     23.54
 48.97    546.00     23.37
 49.07    592.37     24.34
 49.17    629.07     25.08
 49.27    650.44     25.50
 49.37    655.00     25.59
 49.47    724.06     26.91
 49.57    765.22     27.66
 49.67    930.00     30.50
 49.77   1120.00     33.47
 49.87   1542.00     39.27
 49.97   1847.00     42.98
 50.07   2185.02     46.74
 50.17   2525.00     50.25
 50.27   2515.24     50.15
 50.37   2290.00     47.85
 50.47   1824.00     42.71
 50.57   1482.00     38.50
 50.67   1105.26     33.25
 50.77    836.00     28.91
 50.87    790.55     28.12
 50.97    664.00     25.77
 51.07    607.67     24.65
 51.17    653.13     25.56
 51.27    620.88     24.92
 51.37    564.55     23.76
 51.47    555.00     23.56
 51.57    558.00     23.62
 51.67    507.69     22.53
 51.77    560.00     23.66
 51.87    542.00     23.28
 51.97    559.00     23.64
 52.07    583.00     24.15
 52.17    535.00     23.13
 52.27    528.79     23.00
 52.37    564.00     23.75
 52.47    519.00     22.78
 52.57    592.00     24.33
 52.67    575.00     23.98
 52.77    560.00     23.66
 52.87    637.55     25.25
 52.97    734.00     27.09
 53.07    859.00     29.31
 53.17    902.04     30.03
 53.27    981.11     31.32
 53.37   1145.36     33.84
 53.47   1156.00     34.00
 53.57   1166.00     34.15
 53.67   1048.00     32.37
 53.77    951.00     30.84
 53.87    890.00     29.83
 53.97    787.00     28.05
 54.07    651.00     25.51
 54.17    670.00     25.88
 54.27    629.00     25.08
 54.37    608.00     24.66
 54.47    621.00     24.92
 54.57    592.00     24.33
 54.67    599.00     24.47
 54.77    596.00     24.41
 54.87    535.07     23.13
 54.97    532.00     23.07
 55.07    558.00     23.62
 55.17    572.00     23.92
 55.27    552.05     23.50
 55.37    540.29     23.24
 55.47    542.00     23.28
 55.57    568.89     23.85
 55.67    573.00     23.94
 55.77    569.00     23.85
 55.87    615.00     24.80
 55.97    641.00     25.32
 56.07    656.00     25.61
 56.17    746.00     27.31
 56.27    838.00     28.95
 56.37   1103.11     33.21
 56.47   1516.24     38.94
 56.57   1792.92     42.34
 56.67   2121.00     46.05
 56.77   2516.00     50.16
 56.87   2698.62     51.95
 56.97   2592.82     50.92
 57.07   2376.00     48.74
 57.17   2055.00     45.33
 57.27   1599.65     40.00
 57.37   1306.02     36.14
 57.47   1091.00     33.03
 57.57    875.00     29.58
 57.67    754.00     27.46
 57.77    693.00     26.32
 57.87    705.56     26.56
 57.97    693.00     26.32
 58.07    723.00     26.89
 58.17    733.54     27.08
 58.27    814.72     28.54
 58.37    841.00     29.00
 58.47    941.00     30.68
 58.57   1094.00     33.08
 58.67   1251.00     35.37
 58.77   1358.00     36.85
 58.87   1430.03     37.82
 58.97   1578.00     39.72
 59.07   1584.00     39.80
 59.17   1563.00     39.53
 59.27   1409.12     37.54
 59.37   1378.00     37.12
 59.47   1193.00     34.54
 59.57   1249.00     35.34
 59.67   1076.43     32.81
 59.77   1072.47     32.75
 59.87   1287.00     35.87
 59.97   1373.00     37.05
 60.07   1485.00     38.54
 60.17   1561.00     39.51
 60.27   1576.00     39.70
 60.37   1542.00     39.27
 60.47   1401.24     37.43
 60.57   1277.00     35.74
 60.67   1071.00     32.73
 60.77    926.00     30.43
 60.87    736.00     27.13
 60.97    744.00     27.28
 61.07    654.00     25.57
 61.17    650.00     25.50
 61.27    587.00     24.23
 61.37    692.95     26.32
 61.47    710.00     26.65
 61.57    798.00     28.25
 61.67    883.58     29.73
 61.77    937.23     30.61
 61.87   1118.00     33.44
 61.97   1263.75     35.55
 62.07   1330.27     36.47
 62.17   1443.00     37.99
 62.27   1390.00     37.28
 62.37   1342.00     36.63
 62.47   1177.72     34.32
 62.57   1061.00     32.57
 62.67    923.00     30.38
 62.77    815.31     28.55
 62.87    703.69     26.53
 62.97    646.00     25.42
 63.07    655.58     25.60
 63.17    596.00     24.41
 63.27    589.00     24.27
 63.37    552.00     23.49
 63.47    548.39     23.42
 63.57    570.00     23.87
 63.67    537.85     23.19
 63.77    609.00     24.68
 63.87    626.10     25.02
 63.97    694.63     26.36
 64.07    683.68     26.15
 64.17    729.51     27.01
 64.27    844.66     29.06
 64.37    944.00     30.72
 64.47   1002.00     31.65
 64.57    994.00     31.53
 64.67    986.00     31.40
 64.77   1028.10     32.06
 64.87    994.00     31.53
 64.97    909.00     30.15
 65.07    876.94     29.61
 65.17    788.00     28.07
 65.27    714.56     26.73
 65.37    674.00     25.96
 65.47    638.00     25.26
 65.57    581.76     24.12
 65.67    643.00     25.36
 65.77    570.00     23.87
 65.87    625.00     25.00
 65.97    591.00     24.31
 66.07    605.21     24.60
 66.17    587.70     24.24
 66.27    552.92     23.51
 66.37    574.00     23.96
 66.47    537.73     23.19
 66.57    545.00     23.35
 66.67    549.93     23.45
 66.77    560.00     23.66
 66.87    623.04     24.96
 66.97    688.00     26.23
 67.07    637.00     25.24
 67.17    689.00     26.25
 67.27    711.00     26.66
 67.37    890.97     29.85
 67.47   1077.00     32.82
 67.57   1279.00     35.76
 67.67   1549.40     39.36
 67.77   1769.00     42.06
 67.87   1963.00     44.31
 67.97   2297.00     47.93
 68.07   2393.00     48.92
 68.17   2363.94     48.62
 68.27   2266.00     47.60
 68.37   1982.33     44.52
 68.47   1842.62     42.93
 68.57   1496.60     38.69
 68.67   1275.00     35.71
 68.77   1034.74     32.17
 68.87    896.00     29.93
 68.97    769.00     27.73
 69.07    710.00     26.65
 69.17    672.00     25.92
 69.27    668.00     25.85
 69.37    549.67     23.45
 69.47    575.00     23.98
 69.57    594.76     24.39
 69.67    590.17     24.29
 69.77    601.54     24.53
 69.87    574.00     23.96
 69.97    634.00     25.18
 70.07    545.85     23.36
 70.17    577.00     24.02
 70.27    578.00     24.04
 70.37    558.84     23.64
 70.47    558.00     23.62
 70.57    580.95     24.10
 70.67    586.05     24.21
 70.77    618.14     24.86
 70.87    585.71     24.20
 70.97    599.00     24.47
 71.07    654.00     25.57
 71.17    788.44     28.08
 71.27    736.00     27.13
 71.37    940.45     30.67
 71.47   1123.98     33.53
 71.57   1225.25     35.00
 71.67   1463.00     38.25
 71.77   1647.00     40.58
 71.87   1872.00     43.27
 71.97   1953.67     44.20
 72.07   2001.00     44.73
 72.17   1845.13     42.95
 72.27   1787.00     42.27
 72.37   1544.22     39.30
 72.47   1444.04     38.00
 72.57   1251.00     35.37
 72.67   1146.00     33.85
 72.77   1051.73     32.43
 72.87    922.00     30.36
 72.97    921.00     30.35
 73.07    857.00     29.27
 73.17    758.00     27.53
 73.27    708.00     26.61
 73.37    675.00     25.98
 73.47    623.00     24.96
 73.57    578.00     24.04
 73.67    650.76     25.51
 73.77    623.96     24.98
 73.87    599.00     24.47
 73.97    575.00     23.98
 74.07    590.00     24.29
 74.17    560.94     23.68
 74.27    529.97     23.02
 74.37    593.07     24.35
 74.47    608.00     24.66
 74.57    664.00     25.77
 74.67    632.00     25.14
 74.77    695.00     26.36
 74.87    633.00     25.16
 74.97    645.00     25.40
 75.07    598.00     24.45
 75.17    580.00     24.08
 75.27    630.00     25.10
 75.37    538.00     23.19
 75.47    538.00     23.19
 75.57    540.52     23.25
 75.67    565.00     23.77
 75.77    578.00     24.04
 75.87    571.00     23.90
 75.97    559.72     23.66
 76.07    584.00     24.17
 76.17    614.00     24.78
 76.27    658.85     25.67
 76.37    705.52     26.56
 76.47    692.00     26.31
 76.57    688.84     26.25
 76.67    688.00     26.23
 76.77    679.00     26.06
 76.87    673.04     25.94
 76.97    655.00     25.59
 77.07    631.00     25.12
 77.17    591.00     24.31
 77.27    579.81     24.08
 77.37    601.00     24.52
 77.47    544.32     23.33
 77.57    540.00     23.24
 77.67    517.00     22.74
 77.77    529.00     23.00
 77.87    533.73     23.10
 77.97    518.96     22.78
 78.07    524.00     22.89
 78.17    474.00     21.77
 78.27    527.00     22.96
 78.37    501.72     22.40
 78.47    502.00     22.41
 78.57    542.00     23.28
 78.67    544.33     23.33
 78.77    550.91     23.47
 78.87    476.00     21.82
 78.97    527.34     22.96
 79.07    491.64     22.17
 79.17    535.00     23.13
 79.27    512.00     22.63
 79.37    532.00     23.07
 79.47    550.00     23.45
 79.57    567.00     23.81
 79.67    528.00     22.98
 79.77    552.00     23.49
 79.87    492.00     22.18
 79.97    558.21     23.63
 80.07    530.00     23.02
 80.17    531.00     23.04
 80.27    578.18     24.05
 80.37    593.00     24.35
 80.47    596.00     24.41
 80.57    606.00     24.62
 80.67    623.94     24.98
 80.77    689.44     26.26
 80.87    689.00     26.25
 80.97    674.00     25.96
 81.07    722.00     26.87
 81.17    743.00     27.26
 81.27    755.44     27.49
 81.37    743.00     27.26
 81.47    726.00     26.94
 81.57    764.58     27.65
 81.67    732.00     27.06
 81.77    765.15     27.66
 81.87    702.24     26.50
 81.97    698.00     26.42
 82.07    629.76     25.09
 82.17    644.00     25.38
 82.27    589.89     24.29
 82.37    629.00     25.08
 82.47    596.28     24.42
 82.57    638.00     25.26
 82.67    599.00     24.47
 82.77    580.07     24.08
 82.87    551.00     23.47
 82.97    530.88     23.04
 83.07    581.00     24.10
 83.17    555.00     23.56
 83.27    520.00     22.80
 83.37    536.00     23.15
 83.47    536.00     23.15
 83.57    539.00     23.22
 83.67    579.00     24.06
 83.77    538.00     23.19
 83.87    560.00     23.66
 83.97    600.00     24.49
 84.07    558.00     23.62
 84.17    554.00     23.54
 84.27    531.76     23.06
 84.37    603.33     24.56
 84.47    601.32     24.52
 84.57    513.48     22.66
 84.67    576.00     24.00
 84.77    516.00     22.72
 84.87    529.07     23.00
 84.97    535.00     23.13
 85.07    507.00     22.52
 85.17    525.00     22.91
 85.27    516.00     22.72
 85.37    548.00     23.41
 85.47    520.00     22.80
 85.57    537.00     23.17
 85.67    542.00     23.28
 85.77    514.00     22.67
 85.87    535.00     23.13
 85.97    517.96     22.76
 86.07    542.00     23.28
 86.17    503.00     22.43
 86.27    533.00     23.09
 86.37    534.00     23.11
 86.47    590.17     24.29
 86.57    536.00     23.15
 86.67    599.00     24.47
 86.77    560.59     23.68
 86.87    590.00     24.29
 86.97    585.07     24.19
 87.07    609.73     24.69
 87.17    546.00     23.37
 87.27    630.00     25.10
 87.37    664.15     25.77
 87.47    607.00     24.64
 87.57    642.00     25.34
 87.67    669.00     25.87
 87.77    656.74     25.63
 87.87    616.00     24.82
 87.97    553.70     23.53
 88.07    577.42     24.03
 88.17    619.00     24.88
 88.27    634.00     25.18
 88.37    582.00     24.12
 88.47    628.00     25.06
 88.57    592.00     24.33
 88.67    550.00     23.45
 88.77    571.00     23.90
 88.87    572.00     23.92
 88.97    589.00     24.27
 89.07    604.53     24.59
 89.17    551.40     23.48
 89.27    625.00     25.00
 89.37    648.00     25.46
 89.47    572.00     23.92
 89.57    610.00     24.70
 89.67    566.44     23.80
 89.77    593.00     24.35
 89.87    543.00     23.30
 89.97    568.25     23.84
 90.07    549.01     23.43
 90.17    521.00     22.83
 90.27    558.94     23.64
 90.37    544.00     23.32
 90.47    522.00     22.85
 90.57    520.93     22.82
 90.67    524.00     22.89
 90.77    531.00     23.04
 90.87    486.77     22.06
 90.97    529.00     23.00
 91.07    485.00     22.02
 91.17    505.00     22.47
 91.27    512.00     22.63
 91.37    514.00     22.67
 91.47    554.00     23.54
 91.57    519.00     22.78
 91.67    545.85     23.36
 91.77    499.51     22.35
 91.87    536.00     23.15
 91.97    527.00     22.96
 92.07    548.09     23.41
 92.17    525.12     22.92
 92.27    610.30     24.70
 92.37    606.00     24.62
 92.47    608.57     24.67
 92.57    634.01     25.18
 92.67    674.00     25.96
 92.77    701.15     26.48
 92.87    669.96     25.88
 92.97    769.00     27.73
 93.07    718.00     26.80
 93.17    727.15     26.97
 93.27    789.51     28.10
 93.37    746.00     27.31
 93.47    810.27     28.47
 93.57    757.25     27.52
 93.67    825.00     28.72
 93.77    825.00     28.72
 93.87    779.70     27.92
 93.97    854.00     29.22
 94.07    843.00     29.03
 94.17    835.00     28.90
 94.27    901.00     30.02
 94.37    918.00     30.30
 94.47    821.00     28.65
 94.57    866.12     29.43
 94.67    900.11     30.00
 94.77    860.04     29.33
 94.87    903.00     30.05
 94.97    925.37     30.42
 95.07    866.79     29.44
 95.17    825.41     28.73
 95.27    840.00     28.98
 95.37    819.00     28.62
 95.47    769.00     27.73
 95.57    684.32     26.16
 95.67    736.00     27.13
 95.77    684.23     26.16
 95.87    697.00     26.40
 95.97    680.44     26.09
 96.07    659.73     25.69
 96.17    690.00     26.27
 96.27    723.08     26.89
 96.37    714.00     26.72
 96.47    862.00     29.36
 96.57    823.90     28.70
 96.67    936.07     30.60
 96.77   1035.61     32.18
 96.87   1095.00     33.09
 96.97   1170.51     34.21
 97.07   1208.00     34.76
 97.17   1288.00     35.89
 97.27   1418.44     37.66
 97.37   1368.00     36.99
 97.47   1484.00     38.52
 97.57   1405.00     37.48
 97.67   1447.00     38.04
 97.77   1369.99     37.01
 97.87   1294.00     35.97
 97.97   1284.00     35.83
 98.07   1157.43     34.02
 98.17   1178.23     34.33
 98.27   1130.00     33.62
 98.37   1011.00     31.80
 98.47    964.44     31.06
 98.57    887.00     29.78
 98.67    860.61     29.34
 98.77    794.00     28.18
 98.87    829.93     28.81
 98.97    744.00     27.28
 99.07    850.00     29.15
 99.17    783.00     27.98
 99.27    863.00     29.38
 99.37    927.00     30.45
 99.47    955.15     30.91
 99.57   1129.00     33.60
 99.67   1185.15     34.43
 99.77   1313.00     36.24
 99.87   1404.00     37.47
 99.97   1569.00     39.61
100.07   1664.00     40.79
100.17   1816.00     42.61
100.27   1843.00     42.93
100.37   1931.34     43.95
100.47   2033.00     45.09
100.57   2005.00     44.78
100.67   2134.00     46.20
100.77   2129.45     46.15
100.87   2069.00     45.49
100.97   2077.00     45.57
101.07   1942.00     44.07
101.17   1956.00     44.23
101.27   1894.00     43.52
101.37   1737.22     41.68
101.47   1605.00     40.06
101.57   1478.00     38.44
101.67   1437.00     37.91
101.77   1332.00     36.50
101.87   1272.00     35.67
101.97   1216.00     34.87
102.07   1204.00     34.70
102.17   1189.00     34.48
102.27   1104.00     33.23
102.37   1101.00     33.18
102.47   1067.00     32.66
102.57   1075.00     32.79
102.67   1095.87     33.10
102.77   1041.00     32.26
102.87   1025.40     32.02
102.97    966.00     31.08
103.07    918.17     30.30
103.17    912.00     30.20
103.27    853.00     29.21
103.37    792.00     28.14
103.47    762.10     27.61
103.57    766.00     27.68
103.67    664.00     25.77
103.77    700.00     26.46
103.87    661.00     25.71
103.97    581.09     24.11
104.07    615.00     24.80
104.17    619.00     24.88
104.27    538.60     23.21
104.37    553.00     23.52
104.47    548.00     23.41
104.57    535.59     23.14
104.67    559.00     23.64
104.77    535.00     23.13
104.87    576.00     24.00
104.97    561.19     23.69
105.07    526.00     22.93
105.17    522.00     22.85
105.27    572.78     23.93
105.37    530.00     23.02
105.47    550.00     23.45
105.57    520.08     22.81
105.67    536.78     23.17
105.77    530.00     23.02
105.87    571.00     23.90
105.97    576.00     24.00
106.07    564.61     23.76
106.17    590.62     24.30
106.27    569.00     23.85
106.37    564.00     23.75
106.47    603.00     24.56
106.57    601.00     24.52
106.67    681.83     26.11
106.77    700.50     26.47
106.87    666.00     25.81
106.97    678.00     26.04
107.07    679.00     26.06
107.17    672.00     25.92
107.27    656.00     25.61
107.37    705.94     26.57
107.47    659.00     25.67
107.57    639.00     25.28
107.67    712.00     26.68
107.77    657.22     25.64
107.87    707.00     26.59
107.97    672.18     25.93
108.07    645.99     25.42
108.17    667.00     25.83
108.27    682.00     26.12
108.37    690.16     26.27
108.47    723.00     26.89
108.57    713.00     26.70
108.67    696.01     26.38
108.77    674.00     25.96
108.87    694.20     26.35
108.97    658.63     25.66
109.07    706.61     26.58
109.17    639.00     25.28
109.27    634.00     25.18
109.37    662.89     25.75
109.47    654.00     25.57
109.57    585.10     24.19
109.67    604.00     24.58
109.77    619.73     24.89
109.87    586.00     24.21
109.97    555.27     23.56
110.07    580.00     24.08
110.17    541.00     23.26
110.27    587.00     24.23
110.37    558.00     23.62
110.47    549.00     23.43
110.57    572.39     23.92
110.67    581.00     24.10
110.77    559.78     23.66
110.87    549.00     23.43
110.97    540.00     23.24
111.07    501.00     22.38
111.17    501.54     22.40
111.27    533.49     23.10
111.37    515.84     22.71
111.47    581.94     24.12
111.57    541.00     23.26
111.67    559.00     23.64
111.77    567.55     23.82
111.87    542.43     23.29
111.97    567.00     23.81
112.07    606.74     24.63
112.17    565.75     23.79
112.27    551.00     23.47
112.37    595.00     24.39
112.47    598.70     24.47
112.57    594.00     24.37
112.67    617.00     24.84
112.77    628.00     25.06
112.87    678.62     26.05
112.97    643.62     25.37
113.07    641.00     25.32
113.17    704.00     26.53
113.27    728.00     26.98
113.37    714.22     26.72
113.47    773.00     27.80
113.57    765.00     27.66
113.67    854.00     29.22
113.77    922.94     30.38
113.87    912.00     30.20
113.97    904.40     30.07
114.07    977.00     31.26
114.17   1093.00     33.06
114.27   1130.69     33.63
114.37   1268.81     35.62
114.47   1269.41     35.63
114.57   1356.34     36.83
114.67   1543.00     39.28
114.77   1710.00     41.35
114.87   1940.00     44.05
114.97   2168.00     46.56
115.07   2328.00     48.25
115.17   2518.00     50.18
115.27   2889.00     53.75
115.37   3146.45     56.09
115.47   3506.68     59.22
115.57   3904.83     62.49
115.67   4028.00     63.47
115.77   4565.00     67.56
115.87   4823.03     69.45
115.97   5253.00     72.48
116.07   5764.35     75.92
116.17   5834.00     76.38
116.27   6317.94     79.49
116.37   6657.00     81.59
116.47   6777.00     82.32
116.57   6949.03     83.36
116.67   6924.33     83.21
116.77   7013.87     83.75
116.87   6803.00     82.48
116.97   6797.00     82.44
117.07   6538.00     80.86
117.17   6138.00     78.35
117.27   5583.00     74.72
117.37   5269.00     72.59
117.47   5004.00     70.74
117.57   4731.58     68.79
117.67   4170.13     64.58
117.77   3980.26     63.09
117.87   3636.00     60.30
117.97   3237.00     56.89
118.07   2871.64     53.59
118.17   2567.39     50.67
118.27   2262.12     47.56
118.37   1993.03     44.64
118.47   1786.00     42.26
118.57   1580.00     39.75
118.67   1380.53     37.16
118.77   1230.00     35.07
118.87   1141.00     33.78
118.97   1002.00     31.65
119.07    994.00     31.53
119.17    955.00     30.90
119.27    881.00     29.68
119.37    813.00     28.51
119.47    692.00     26.31
119.57    701.00     26.48
119.67    659.00     25.67
119.77    711.21     26.67
119.87    600.00     24.49
119.97    637.00     25.24
120.07    629.04     25.08
120.17    575.00     23.98
120.27    638.00     25.26
120.37    594.78     24.39
120.47    577.00     24.02
120.57    560.53     23.68
120.67    596.00     24.41
120.77    608.62     24.67
120.87    590.61     24.30
120.97    573.00     23.94
121.07    591.00     24.31
121.17    581.00     24.10
121.27    622.43     24.95
121.37    576.00     24.00
121.47    559.01     23.64
121.57    564.00     23.75
121.67    578.00     24.04
121.77    612.00     24.74
121.87    584.00     24.17
121.97    635.00     25.20
122.07    648.00     25.46
122.17    674.00     25.96
122.27    618.00     24.86
122.37    603.88     24.57
122.47    612.00     24.74
122.57    636.00     25.22
122.67    674.00     25.96
122.77    658.00     25.65
122.87    719.00     26.81
122.97    658.00     25.65
123.07    672.00     25.92
123.17    656.32     25.62
123.27    633.00     25.16
123.37    643.00     25.36
123.47    622.00     24.94
123.57    660.77     25.71
123.67    681.00     26.10
123.77    676.00     26.00
123.87    630.00     25.10
123.97    650.00     25.50
124.07    598.00     24.45
124.17    629.00     25.08
124.27    664.07     25.77
124.37    649.02     25.48
124.47    585.00     24.19
124.57    624.00     24.98
124.67    588.00     24.25
124.77    603.00     24.56
124.87    591.00     24.31
124.97    568.15     23.84
