XYDATA



INTER 1.0 1.0 0 0
TEMP 817.758
  9.97    621.00     24.92
 10.07    643.00     25.36
 10.17    633.00     25.16
 10.27    629.00     25.08
 10.37    556.78     23.60
 10.47    592.71     24.35
 10.57    583.00     24.15
 10.67    523.88     22.89
 10.77    653.00     25.55
 10.87    595.79     24.41
 10.97    579.22     24.07
 11.07    617.44     24.85
 11.17    625.00     25.00
 11.27    584.00     24.17
 11.37    617.00     24.84
 11.47    619.00     24.88
 11.57    596.50     24.42
 11.67    618.00     24.86
 11.77    549.43     23.44
 11.87    666.00     25.81
 11.97    666.00     25.81
 12.07    646.50     25.43
 12.17    681.00     26.10
 12.27    717.00     26.78
 12.37    639.00     25.28
 12.47    607.00     24.64
 12.57    622.21     24.94
 12.67    613.00     24.76
 12.77    609.49     24.69
 12.87    564.00     23.75
 12.97    509.00     22.56
 13.07    555.00     23.56
 13.17    619.00     24.88
 13.27    567.00     23.81
 13.37    550.00     23.45
 13.47    576.00     24.00
 13.57    561.00     23.69
 13.67    623.28     24.97
 13.77    581.50     24.11
 13.87    575.00     23.98
 13.97    615.53     24.81
 14.07    610.78     24.71
 14.17    562.00     23.71
 14.27    571.00     23.90
 14.37    534.00     23.11
 14.47    583.00     24.15
 14.57    578.00     24.04
 14.67    565.60     23.78
 14.77    584.00     24.17
 14.87    574.00     23.96
 14.97    578.00     24.04
 15.07    569.00     23.85
 15.17    554.10     23.54
 15.27    566.00     23.79
 15.37    573.00     23.94
 15.47    559.00     23.64
 15.57    607.79     24.65
 15.67    565.71     23.78
 15.77    531.00     23.04
 15.87    587.85     24.25
 15.97    612.51     24.75
 16.07    521.00     22.83
 16.17    558.00     23.62
 16.27    607.43     24.65
 16.37    560.15     23.67
 16.47    596.00     24.41
 16.57    538.00     23.19
 16.67    554.00     23.54
 16.77    572.00     23.92
 16.87    562.04     23.71
 16.97    561.00     23.69
 17.07    621.05     24.92
 17.17    631.00     25.12
 17.27    563.00     23.73
 17.37    595.00     24.39
 17.47    583.00     24.15
 17.57    577.00     24.02
 17.67    567.00     23.81
 17.77    591.00     24.31
 17.87    572.00     23.92
 17.97    553.00     23.52
 18.07    625.83     25.02
 18.17    582.00     24.12
 18.27    570.00     23.87
 18.37    538.00     23.19
 18.47    585.00     24.19
 18.57    637.00     25.24
 18.67    509.00     22.56
 18.77    550.52     23.46
 18.87    539.00     23.22
 18.97    536.00     23.15
 19.07    627.49     25.05
 19.17    559.00     23.64
 19.27    577.66     24.03
 19.37    546.00     23.37
 19.47    633.74     25.17
 19.57    569.00     23.85
 19.67    532.00     23.07
 19.77    567.00     23.81
 19.87    613.32     24.77
 19.97    609.00     24.68
 20.07    565.00     23.77
 20.17    518.00     22.76
 20.27    594.89     24.39
 20.37    536.34     23.16
 20.47    596.00     24.41
 20.57    596.00     24.41
 20.67    565.00     23.77
 20.77    555.00     23.56
 20.87    545.98     23.37
 20.97    551.00     23.47
 21.07    593.25     24.36
 21.17    571.00     23.90
 21.27    585.00     24.19
 21.37    587.00     24.23
 21.47    545.18     23.35
 21.57    582.00     24.12
 21.67    634.00     25.18
 21.77    568.00     23.83
 21.87    560.00     23.66
 21.97    621.11     24.92
 22.07    617.00     24.84
 22.17    593.00     24.35
 22.27    613.93     24.78
 22.37    542.00     23.28
 22.47    592.25     24.34
 22.57    629.00     25.08
 22.67    564.00     23.75
 22.77    532.00     23.07
 22.87    577.00     24.02
 22.97    598.20     24.46
 23.07    586.00     24.21
 23.17    611.96     24.74
 23.27    573.00     23.94
 23.37    561.00     23.69
 23.47    569.00     23.85
 23.57    575.00     23.98
 23.67    584.00     24.17
 23.77    591.00     24.31
 23.87    566.00     23.79
 23.97    550.00     23.45
 24.07    581.42     24.11
 24.17    635.00     25.20
 24.27    595.00     24.39
 24.37    607.00     24.64
 24.47    622.00     24.94
 24.57    658.00     25.65
 24.67    645.00     25.40
 24.77    638.00     25.26
 24.87    714.00     26.72
 24.97    662.00     25.73
 25.07    597.40     24.44
 25.17    680.00     26.08
 25.27    595.00     24.39
 25.37    585.00     24.19
 25.47    580.36     24.09
 25.57    595.00     24.39
 25.67    617.00     24.84
 25.77    546.76     23.38
 25.87    561.11     23.69
 25.97    574.00     23.96
 26.07    629.00     25.08
 26.17    626.00     25.02
 26.27    594.26     24.38
 26.37    525.99     22.93
 26.47    608.00     24.66
 26.57    580.00     24.08
 26.67    599.00     24.47
 26.77    548.04     23.41
 26.87    528.41     22.99
 26.97    620.00     24.90
 27.07    624.00     24.98
 27.17    598.00     24.45
 27.27    549.23     23.44
 27.37    656.00     25.61
 27.47    532.12     23.07
 27.57    654.00     25.57
 27.67    587.74     24.24
 27.77    613.00     24.76
 27.87    647.92     25.45
 27.97    663.42     25.76
 28.07    716.00     26.76
 28.17    835.90     28.91
 28.27    947.00     30.77
 28.37    937.23     30.61
 28.47    936.00     30.59
 28.57    843.00     29.03
 28.67    751.00     27.40
 28.77    804.00     28.35
 28.87    778.00     27.89
 28.97    796.72     28.23
 29.07    782.52     27.97
 29.17    834.00     28.88
 29.27    766.84     27.69
 29.37    657.60     25.64
 29.47    645.00     25.40
 29.57    588.00     24.25
 29.67    603.00     24.56
 29.77    631.00     25.12
 29.87    645.00     25.40
 29.97    649.00     25.48
 30.07    661.00     25.71
 30.17    523.17     22.87
 30.27    622.00     24.94
 30.37    580.00     24.08
 30.47    601.00     24.52
 30.57    576.00     24.00
 30.67    524.81     22.91
 30.77    603.83     24.57
 30.87    651.00     25.51
 30.97    660.00     25.69
 31.07    624.06     24.98
 31.17    609.36     24.69
 31.27    616.66     24.83
 31.37    633.00     25.16
 31.47    546.96     23.39
 31.57    611.96     24.74
 31.67    519.77     22.80
 31.77    606.00     24.62
 31.87    592.00     24.33
 31.97    577.14     24.02
 32.07    516.77     22.73
 32.17    544.00     23.32
 32.27    575.00     23.98
 32.37    592.00     24.33
 32.47    594.00     24.37
 32.57    606.00     24.62
 32.67    582.00     24.12
 32.77    569.00     23.85
 32.87    504.79     22.47
 32.97    555.58     23.57
 33.07    618.00     24.86
 33.17    543.52     23.31
 33.27    585.48     24.20
 33.37    532.72     23.08
 33.47    542.46     23.29
 33.57    593.65     24.36
 33.67    682.00     26.12
 33.77    676.00     26.00
 33.87    727.00     26.96
 33.97    833.00     28.86
 34.07    932.19     30.53
 34.17    964.76     31.06
 34.27    954.00     30.89
 34.37    959.19     30.97
 34.47    748.00     27.35
 34.57    759.22     27.55
 34.67    658.00     25.65
 34.77    590.00     24.29
 34.87    590.77     24.31
 34.97    566.00     23.79
 35.07    562.00     23.71
 35.17    571.00     23.90
 35.27    541.00     23.26
 35.37    531.00     23.04
 35.47    528.76     22.99
 35.57    522.41     22.86
 35.67    559.27     23.65
 35.77    515.00     22.69
 35.87    544.89     23.34
 35.97    489.00     22.11
 36.07    484.48     22.01
 36.17    479.00     21.89
 36.27    513.00     22.65
 36.37    496.08     22.27
 36.47    513.81     22.67
 36.57    507.00     22.52
 36.67    507.52     22.53
 36.77    525.05     22.91
 36.87    558.22     23.63
 36.97    566.83     23.81
 37.07    548.00     23.41
 37.17    503.00     22.43
 37.27    491.38     22.17
 37.37    525.00     22.91
 37.47    545.00     23.35
 37.57    518.46     22.77
 37.67    514.00     22.67
 37.77    553.25     23.52
 37.87    459.00     21.42
 37.97    526.00     22.93
 38.07    518.62     22.77
 38.17    514.00     22.67
 38.27    505.00     22.47
 38.37    522.00     22.85
 38.47    455.00     21.33
 38.57    494.00     22.23
 38.67    472.40     21.73
 38.77    493.00     22.20
 38.87    489.00     22.11
 38.97    541.12     23.26
 39.07    504.22     22.45
 39.17    482.00     21.95
 39.27    489.00     22.11
 39.37    489.00     22.11
 39.47    527.39     22.97
 39.57    519.00     22.78
 39.67    471.00     21.70
 39.77    496.00     22.27
 39.87    497.00     22.29
 39.97    489.00     22.11
 40.07    504.00     22.45
 40.17    516.00     22.72
 40.27    480.00     21.91
 40.37    510.00     22.58
 40.47    544.00     23.32
 40.57    477.00     21.84
 40.67    498.00     22.32
 40.77    531.00     23.04
 40.87    531.36     23.05
 40.97    471.87     21.72
 41.07    479.00     21.89
 41.17    486.00     22.05
 41.27    558.37     23.63
 41.37    513.00     22.65
 41.47    495.11     22.25
 41.57    476.50     21.83
 41.67    520.00     22.80
 41.77    480.00     21.91
 41.87    556.00     23.58
 41.97    518.00     22.76
 42.07    481.00     21.93
 42.17    518.00     22.76
 42.27    469.00     21.66
 42.37    545.00     23.35
 42.47    571.16     23.90
 42.57    615.45     24.81
 42.67    564.00     23.75
 42.77    591.00     24.31
 42.87    566.00     23.79
 42.97    660.92     25.71
 43.07    590.57     24.30
 43.17    550.00     23.45
 43.27    529.70     23.02
 43.37    555.00     23.56
 43.47    557.00     23.60
 43.57    491.00     22.16
 43.67    550.22     23.46
 43.77    543.79     23.32
 43.87    483.00     21.98
 43.97    487.00     22.07
 44.07    550.01     23.45
 44.17    544.65     23.34
 44.27    495.00     22.25
 44.37    461.00     21.47
 44.47    549.83     23.45
 44.57    489.00     22.11
 44.67    507.00     22.52
 44.77    494.00     22.23
 44.87    502.00     22.41
 44.97    525.00     22.91
 45.07    513.72     22.67
 45.17    535.00     23.13
 45.27    490.00     22.14
 45.37    517.00     22.74
 45.47    537.00     23.17
 45.57    460.44     21.46
 45.67    459.61     21.44
 45.77    515.92     22.71
 45.87    496.00     22.27
 45.97    568.00     23.83
 46.07    503.57     22.44
 46.17    530.00     23.02
 46.27    479.00     21.89
 46.37    513.00     22.65
 46.47    481.95     21.95
 46.57    506.00     22.49
 46.67    482.56     21.97
 46.77    526.00     22.93
 46.87    495.00     22.25
 46.97    486.00     22.05
 47.07    462.52     21.51
 47.17    485.00     22.02
 47.27    537.00     23.17
 47.37    497.00     22.29
 47.47    515.80     22.71
 47.57    530.00     23.02
 47.67    524.00     22.89
 47.77    601.84     24.53
 47.87    567.00     23.81
 47.97    599.00     24.47
 48.07    535.84     23.15
 48.17    645.00     25.40
 48.27    545.00     23.35
 48.37    518.27     22.77
 48.47    508.21     22.54
 48.57    553.00     23.52
 48.67    554.51     23.55
 48.77    579.39     24.07
 48.87    544.00     23.32
 48.97    514.66     22.69
 49.07    509.00     22.56
 49.17    507.00     22.52
 49.27    613.15     24.76
 49.37    553.18     23.52
 49.47    554.19     23.54
 49.57    630.00     25.10
 49.67    701.00     26.48
 49.77    895.16     29.92
 49.87   1090.94     33.03
 49.97   1293.29     35.96
 50.07   1552.51     39.40
 50.17   1956.00     44.23
 50.27   2221.66     47.13
 50.37   2381.00     48.80
 50.47   2296.00     47.92
 50.57   1941.96     44.07
 50.67   1602.78     40.03
 50.77   1263.00     35.54
 50.87    987.00     31.42
 50.97    825.00     28.72
 51.07    775.37     27.85
 51.17    665.00     25.79
 51.27    661.00     25.71
 51.37    665.09     25.79
 51.47    664.74     25.78
 51.57    627.90     25.06
 51.67    546.94     23.39
 51.77    544.00     23.32
 51.87    573.00     23.94
 51.97    571.00     23.90
 52.07    596.00     24.41
 52.17    576.00     24.00
 52.27    562.83     23.72
 52.37    550.87     23.47
 52.47    572.00     23.92
 52.57    577.00     24.02
 52.67    596.00     24.41
 52.77    561.89     23.70
 52.87    616.07     24.82
 52.97    643.00     25.36
 53.07    668.30     25.85
 53.17    744.34     27.28
 53.27    792.00     28.14
 53.37    913.00     30.22
 53.47   1048.00     32.37
 53.57   1170.00     34.21
 53.67   1242.00     35.24
 53.77   1214.00     34.84
 53.87   1089.93     33.01
 53.97   1033.00     32.14
 54.07    951.00     30.84
 54.17    833.00     28.86
 54.27    755.00     27.48
 54.37    676.00     26.00
 54.47    596.00     24.41
 54.57    602.00     24.54
 54.67    574.00     23.96
 54.77    539.00     23.22
 54.87    564.22     23.75
 54.97    580.00     24.08
 55.07    558.76     23.64
 55.17    562.33     23.71
 55.27    616.00     24.82
 55.37    549.00     23.43
 55.47    516.62     22.73
 55.57    602.30     24.54
 55.67    575.16     23.98
 55.77    615.82     24.82
 55.87    590.00     24.29
 55.97    604.65     24.59
 56.07    616.46     24.83
 56.17    686.34     26.20
 56.27    778.00     27.89
 56.37    974.74     31.22
 56.47    988.00     31.43
 56.57   1248.00     35.33
 56.67   1473.00     38.38
 56.77   1805.00     42.49
 56.87   2207.00     46.98
 56.97   2373.38     48.72
 57.07   2464.48     49.64
 57.17   2482.00     49.82
 57.27   2235.00     47.28
 57.37   1979.00     44.49
 57.47   1678.00     40.96
 57.57   1275.00     35.71
 57.67   1147.00     33.87
 57.77    897.00     29.95
 57.87    884.18     29.74
 57.97    787.00     28.05
 58.07    713.91     26.72
 58.17    684.32     26.16
 58.27    716.00     26.76
 58.37    761.00     27.59
 58.47    811.00     28.48
 58.57    815.00     28.55
 58.67    847.90     29.12
 58.77    966.00     31.08
 58.87   1058.00     32.53
 58.97   1138.00     33.73
 59.07   1087.22     32.97
 59.17   1272.00     35.67
 59.27   1155.32     33.99
 59.37   1289.00     35.90
 59.47   1232.00     35.10
 59.57   1133.01     33.66
 59.67   1131.00     33.63
 59.77   1053.17     32.45
 59.87   1192.22     34.53
 59.97   1276.00     35.72
 60.07   1364.00     36.93
 60.17   1302.28     36.09
 60.27   1501.00     38.74
 60.37   1526.65     39.07
 60.47   1584.00     39.80
 60.57   1491.21     38.62
 60.67   1443.78     38.00
 60.77   1166.67     34.16
 60.87   1154.00     33.97
 60.97    929.00     30.48
 61.07    860.84     29.34
 61.17    801.00     28.30
 61.27    791.00     28.12
 61.37    681.00     26.10
 61.47    728.23     26.99
 61.57    759.98     27.57
 61.67    689.00     26.25
 61.77    812.13     28.50
 61.87    856.00     29.26
 61.97    970.00     31.14
 62.07   1136.71     33.72
 62.17   1186.65     34.45
 62.27   1307.13     36.15
 62.37   1328.01     36.44
 62.47   1320.87     36.34
 62.57   1264.13     35.55
 62.67   1198.00     34.61
 62.77   1043.00     32.30
 62.87    862.00     29.36
 62.97    782.00     27.96
 63.07    807.46     28.42
 63.17    637.00     25.24
 63.27    650.22     25.50
 63.37    597.53     24.44
 63.47    616.00     24.82
 63.57    631.00     25.12
 63.67    539.63     23.23
 63.77    626.00     25.02
 63.87    631.00     25.12
 63.97    587.34     24.24
 64.07    671.00     25.90
 64.17    695.00     26.36
 64.27    761.00     27.59
 64.37    745.77     27.31
 64.47    784.01     28.00
 64.57    932.36     30.53
 64.67    937.00     30.61
 64.77   1053.84     32.46
 64.87   1060.41     32.56
 64.97    979.00     31.29
 65.07    960.29     30.99
 65.17    943.08     30.71
 65.27    838.27     28.95
 65.37    810.44     28.47
 65.47    728.00     26.98
 65.57    694.00     26.34
 65.67    656.00     25.61
 65.77    673.00     25.94
 65.87    611.00     24.72
 65.97    672.00     25.92
 66.07    595.00     24.39
 66.17    583.00     24.15
 66.27    583.00     24.15
 66.37    558.00     23.62
 66.47    528.00     22.98
 66.57    555.00     23.56
 66.67    534.00     23.11
 66.77    569.00     23.85
 66.87    615.62     24.81
 66.97    599.00     24.47
 67.07    641.00     25.32
 67.17    619.00     24.88
 67.27    654.00     25.57
 67.37    725.00     26.93
 67.47    806.00     28.39
 67.57    911.00     30.18
 67.67   1043.00     32.30
 67.77   1256.78     35.45
 67.87   1473.00     38.38
 67.97   1737.00     41.68
 68.07   2067.00     45.46
 68.17   2211.85     47.03
 68.27   2384.04     48.83
 68.37   2305.00     48.01
 68.47   2368.54     48.67
 68.57   2172.00     46.60
 68.67   1924.00     43.86
 68.77   1695.00     41.17
 68.87   1455.37     38.15
 68.97   1235.00     35.14
 69.07    986.05     31.40
 69.17    871.00     29.51
 69.27    812.00     28.50
 69.37    687.00     26.21
 69.47    721.00     26.85
 69.57    691.00     26.29
 69.67    587.75     24.24
 69.77    611.00     24.72
 69.87    639.00     25.28
 69.97    577.00     24.02
 70.07    611.00     24.72
 70.17    625.02     25.00
 70.27    597.00     24.43
 70.37    578.00     24.04
 70.47    532.05     23.07
 70.57    611.00     24.72
 70.67    556.31     23.59
 70.77    582.29     24.13
 70.87    644.00     25.38
 70.97    567.27     23.82
 71.07    653.00     25.55
 71.17    638.80     25.27
 71.27    739.00     27.18
 71.37    761.00     27.59
 71.47    821.00     28.65
 71.57   1011.30     31.80
 71.67   1021.00     31.95
 71.77   1147.00     33.87
 71.87   1346.00     36.69
 71.97   1555.00     39.43
 72.07   1657.57     40.71
 72.17   1767.97     42.05
 72.27   1888.00     43.45
 72.37   1859.00     43.12
 72.47   1767.00     42.04
 72.57   1753.00     41.87
 72.67   1574.00     39.67
 72.77   1262.04     35.53
 72.87   1084.26     32.93
 72.97   1006.94     31.73
 73.07    976.00     31.24
 73.17    859.00     29.31
 73.27    713.27     26.71
 73.37    749.00     27.37
 73.47    649.65     25.49
 73.57    655.00     25.59
 73.67    677.00     26.02
 73.77    604.00     24.58
 73.87    534.82     23.13
 73.97    573.00     23.94
 74.07    632.00     25.14
 74.17    572.00     23.92
 74.27    600.90     24.51
 74.37    595.00     24.39
 74.47    570.00     23.87
 74.57    564.00     23.75
 74.67    597.00     24.43
 74.77    624.00     24.98
 74.87    580.03     24.08
 74.97    620.00     24.90
 75.07    631.00     25.12
 75.17    619.00     24.88
 75.27    657.00     25.63
 75.37    627.00     25.04
 75.47    602.00     24.54
 75.57    552.92     23.51
 75.67    519.00     22.78
 75.77    558.00     23.62
 75.87    602.41     24.54
 75.97    538.67     23.21
 76.07    597.00     24.43
 76.17    621.00     24.92
 76.27    602.34     24.54
 76.37    607.42     24.65
 76.47    648.00     25.46
 76.57    621.00     24.92
 76.67    722.93     26.89
 76.77    714.00     26.72
 76.87    705.10     26.55
 76.97    634.17     25.18
 77.07    637.77     25.25
 77.17    691.00     26.29
 77.27    614.00     24.78
 77.37    650.15     25.50
 77.47    560.00     23.66
 77.57    571.00     23.90
 77.67    577.00     24.02
 77.77    566.00     23.79
 77.87    500.70     22.38
 77.97    544.00     23.32
 78.07    486.00     22.05
 78.17    535.00     23.13
 78.27    539.00     23.22
 78.37    546.68     23.38
 78.47    540.00     23.24
 78.57    533.12     23.09
 78.67    470.00     21.68
 78.77    544.17     23.33
 78.87    501.35     22.39
 78.97    539.81     23.23
 79.07    518.07     22.76
 79.17    535.99     23.15
 79.27    542.00     23.28
 79.37    487.00     22.07
 79.47    534.27     23.11
 79.57    482.00     21.95
 79.67    487.00     22.07
 79.77    518.00     22.76
 79.87    494.96     22.25
 79.97    530.00     23.02
 80.07    530.35     23.03
 80.17    498.97     22.34
 80.27    516.00     22.72
 80.37    555.00     23.56
 80.47    588.00     24.25
 80.57    538.00     23.19
 80.67    561.78     23.70
 80.77    646.81     25.43
 80.87    578.36     24.05
 80.97    646.00     25.42
 81.07    677.00     26.02
 81.17    671.41     25.91
 81.27    659.00     25.67
 81.37    679.00     26.06
 81.47    744.00     27.28
 81.57    707.00     26.59
 81.67    714.12     26.72
 81.77    734.00     27.09
 81.87    719.94     26.83
 81.97    704.53     26.54
 82.07    704.00     26.53
 82.17    693.90     26.34
 82.27    683.00     26.13
 82.37    629.00     25.08
 82.47    613.00     24.76
 82.57    607.00     24.64
 82.67    584.00     24.17
 82.77    565.11     23.77
 82.87    597.00     24.43
 82.97    556.00     23.58
 83.07    536.98     23.17
 83.17    525.30     22.92
 83.27    529.36     23.01
 83.37    529.00     23.00
 83.47    520.38     22.81
 83.57    522.00     22.85
 83.67    544.00     23.32
 83.77    496.00     22.27
 83.87    563.00     23.73
 83.97    520.34     22.81
 84.07    578.00     24.04
 84.17    581.00     24.10
 84.27    538.42     23.20
 84.37    567.00     23.81
 84.47    579.00     24.06
 84.57    548.00     23.41
 84.67    514.00     22.67
 84.77    529.36     23.01
 84.87    521.22     22.83
 84.97    512.99     22.65
 85.07    523.00     22.87
 85.17    499.79     22.36
 85.27    527.00     22.96
 85.37    522.00     22.85
 85.47    485.00     22.02
 85.57    508.00     22.54
 85.67    500.00     22.36
 85.77    495.00     22.25
 85.87    519.00     22.78
 85.97    519.00     22.78
 86.07    541.43     23.27
 86.17    518.00     22.76
 86.27    532.65     23.08
 86.37    521.96     22.85
 86.47    490.00     22.14
 86.57    523.28     22.88
 86.67    537.00     23.17
 86.77    526.36     22.94
 86.87    552.00     23.49
 86.97    501.00     22.38
 87.07    601.09     24.52
 87.17    561.00     23.69
 87.27    559.00     23.64
 87.37    597.00     24.43
 87.47    648.00     25.46
 87.57    621.00     24.92
 87.67    640.00     25.30
 87.77    641.00     25.32
 87.87    662.00     25.73
 87.97    590.63     24.30
 88.07    615.51     24.81
 88.17    614.00     24.78
 88.27    578.20     24.05
 88.37    635.00     25.20
 88.47    540.25     23.24
 88.57    564.00     23.75
 88.67    538.00     23.19
 88.77    562.00     23.71
 88.87    529.00     23.00
 88.97    618.48     24.87
 89.07    580.00     24.08
 89.17    582.00     24.12
 89.27    546.83     23.38
 89.37    603.00     24.56
 89.47    622.00     24.94
 89.57    559.61     23.66
 89.67    571.64     23.91
 89.77    573.00     23.94
 89.87    549.62     23.44
 89.97    582.82     24.14
 90.07    547.00     23.39
 90.17    524.00     22.89
 90.27    563.00     23.73
 90.37    550.00     23.45
 90.47    541.00     23.26
 90.57    545.00     23.35
 90.67    507.50     22.53
 90.77    533.00     23.09
 90.87    557.00     23.60
 90.97    502.00     22.41
 91.07    477.00     21.84
 91.17    486.70     22.06
 91.27    480.00     21.91
 91.37    511.67     22.62
 91.47    507.00     22.52
 91.57    548.00     23.41
 91.67    499.44     22.35
 91.77    532.00     23.07
 91.87    548.00     23.41
 91.97    487.27     22.07
 92.07    563.45     23.74
 92.17    544.00     23.32
 92.27    524.00     22.89
 92.37    545.49     23.36
 92.47    532.00     23.07
 92.57    560.90     23.68
 92.67    555.00     23.56
 92.77    593.31     24.36
 92.87    609.00     24.68
 92.97    617.00     24.84
 93.07    643.00     25.36
 93.17    675.00     25.98
 93.27    706.00     26.57
 93.37    741.00     27.22
 93.47    729.00     27.00
 93.57    746.65     27.32
 93.67    808.34     28.43
 93.77    772.03     27.79
 93.87    823.00     28.69
 93.97    793.00     28.16
 94.07    853.73     29.22
 94.17    768.35     27.72
 94.27    877.46     29.62
 94.37    849.00     29.14
 94.47    897.68     29.96
 94.57    818.97     28.62
 94.67    881.00     29.68
 94.77    895.09     29.92
 94.87    880.00     29.66
 94.97    897.00     29.95
 95.07    973.00     31.19
 95.17    899.00     29.98
 95.27    875.00     29.58
 95.37    929.32     30.48
 95.47    818.27     28.61
 95.57    869.00     29.48
 95.67    777.00     27.87
 95.77    805.00     28.37
 95.87    813.46     28.52
 95.97    733.00     27.07
 96.07    679.00     26.06
 96.17    660.06     25.69
 96.27    731.20     27.04
 96.37    738.83     27.18
 96.47    688.40     26.24
 96.57    764.00     27.64
 96.67    786.00     28.04
 96.77    761.00     27.59
 96.87    919.28     30.32
 96.97    878.54     29.64
 97.07    985.00     31.38
 97.17   1099.00     33.15
 97.27   1094.00     33.08
 97.37   1181.00     34.37
 97.47   1181.36     34.37
 97.57   1281.00     35.79
 97.67   1362.00     36.91
 97.77   1420.00     37.68
 97.87   1442.00     37.97
 97.97   1436.08     37.90
 98.07   1434.18     37.87
 98.17   1424.52     37.74
 98.27   1352.00     36.77
 98.37   1340.00     36.61
 98.47   1260.87     35.51
 98.57   1232.00     35.10
 98.67   1200.00     34.64
 98.77   1045.00     32.33
 98.87   1006.00     31.72
 98.97    958.00     30.95
 99.07    895.00     29.92
 99.17    882.27     29.70
 99.27    866.00     29.43
 99.37    819.00     28.62
 99.47    930.55     30.50
 99.57    890.05     29.83
 99.67   1022.00     31.97
 99.77   1010.00     31.78
 99.87   1073.00     32.76
 99.97   1132.00     33.65
100.07   1230.64     35.08
100.17   1356.00     36.82
100.27   1335.12     36.54
100.37   1521.00     39.00
100.47   1644.58     40.55
100.57   1626.00     40.32
100.67   1786.00     42.26
100.77   1815.00     42.60
100.87   1924.04     43.86
100.97   1906.04     43.66
101.07   1900.00     43.59
101.17   1983.00     44.53
101.27   1966.81     44.35
101.37   1921.00     43.83
101.47   1814.67     42.60
101.57   1903.53     43.63
101.67   1851.00     43.02
101.77   1664.00     40.79
101.87   1710.00     41.35
101.97   1545.00     39.31
102.07   1494.04     38.65
102.17   1388.38     37.26
102.27   1431.00     37.83
102.37   1264.00     35.55
102.47   1191.98     34.53
102.57   1183.71     34.41
102.67   1276.18     35.72
102.77   1220.00     34.93
102.87   1107.48     33.28
102.97   1116.00     33.41
103.07   1046.67     32.35
103.17   1100.00     33.17
103.27   1038.00     32.22
103.37    997.48     31.58
103.47    983.00     31.35
103.57    930.90     30.51
103.67    928.00     30.46
103.77    824.04     28.71
103.87    794.47     28.19
103.97    797.00     28.23
104.07    800.00     28.28
104.17    658.67     25.66
104.27    726.00     26.94
104.37    626.25     25.03
104.47    657.00     25.63
104.57    650.00     25.50
104.67    590.64     24.30
104.77    566.33     23.80
104.87    622.00     24.94
104.97    595.00     24.39
105.07    564.00     23.75
105.17    557.21     23.61
105.27    582.66     24.14
105.37    562.00     23.71
105.47    592.92     24.35
105.57    521.00     22.83
105.67    556.00     23.58
105.77    546.00     23.37
105.87    543.57     23.31
105.97    580.00     24.08
106.07    602.00     24.54
106.17    566.27     23.80
106.27    579.00     24.06
106.37    578.00     24.04
106.47    564.00     23.75
106.57    534.00     23.11
106.67    618.00     24.86
106.77    565.00     23.77
106.87    643.21     25.36
106.97    663.21     25.75
107.07    644.00     25.38
107.17    633.00     25.16
107.27    717.29     26.78
107.37    696.00     26.38
107.47    672.00     25.92
107.57    728.56     26.99
107.67    661.00     25.71
107.77    767.49     27.70
107.87    701.00     26.48
107.97    742.33     27.25
108.07    747.59     27.34
108.17    688.10     26.23
108.27    664.49     25.78
108.37    729.17     27.00
108.47    684.00     26.15
108.57    689.00     26.25
108.67    661.00     25.71
108.77    686.00     26.19
108.87    746.88     27.33
108.97    656.00     25.61
109.07    670.00     25.88
109.17    698.80     26.43
109.27    734.95     27.11
109.37    696.00     26.38
109.47    709.87     26.64
109.57    668.00     25.85
109.67    693.00     26.32
109.77    715.33     26.75
109.87    683.00     26.13
109.97    680.00     26.08
110.07    648.23     25.46
110.17    658.00     25.65
110.27    598.37     24.46
110.37    666.00     25.81
110.47    641.30     25.32
110.57    589.00     24.27
110.67    588.00     24.25
110.77    556.88     23.60
110.87    602.00     24.54
110.97    569.00     23.85
111.07    525.84     22.93
111.17    507.44     22.53
111.27    516.13     22.72
111.37    559.00     23.64
111.47    581.00     24.10
111.57    569.00     23.85
111.67    548.00     23.41
111.77    517.85     22.76
111.87    548.00     23.41
111.97    543.00     23.30
112.07    578.00     24.04
112.17    549.00     23.43
112.27    539.54     23.23
112.37    582.95     24.14
112.47    529.00     23.00
112.57    575.03     23.98
112.67    570.00     23.87
112.77    614.12     24.78
112.87    559.00     23.64
112.97    613.79     24.77
113.07    585.00     24.19
113.17    596.00     24.41
113.27    597.00     24.43
113.37    614.00     24.78
113.47    609.00     24.68
113.57    632.00     25.14
113.67    609.00     24.68
113.77    628.00     25.06
113.87    689.00     26.25
113.97    672.00     25.92
114.07    675.00     25.98
114.17    735.00     27.11
114.27    705.00     26.55
114.37    756.89     27.51
114.47    841.00     29.00
114.57    857.00     29.27
114.67    867.65     29.46
114.77   1035.00     32.17
114.87   1109.00     33.30
114.97   1281.00     35.79
115.07   1262.29     35.53
115.17   1524.00     39.04
115.27   1703.00     41.27
115.37   1925.00     43.87
115.47   2163.00     46.51
115.57   2465.00     49.65
115.67   2616.82     51.15
115.77   2854.84     53.43
115.87   3246.00     56.97
115.97   3558.00     59.65
116.07   3932.00     62.71
116.17   4154.31     64.45
116.27   4623.37     68.00
116.37   5125.73     71.59
116.47   5454.97     73.86
116.57   5926.00     76.98
116.67   6191.81     78.69
116.77   6373.00     79.83
116.87   6774.04     82.30
116.97   6765.79     82.25
117.07   6909.00     83.12
117.17   6796.03     82.44
117.27   6836.00     82.68
117.37   6821.00     82.59
117.47   6588.00     81.17
117.57   6273.00     79.20
117.67   6388.67     79.93
117.77   5901.00     76.82
117.87   5435.00     73.72
117.97   5145.84     71.73
118.07   4970.00     70.50
118.17   4594.00     67.78
118.27   4100.00     64.03
118.37   3868.04     62.19
118.47   3397.00     58.28
118.57   3201.02     56.58
118.67   2820.00     53.10
118.77   2564.17     50.64
118.87   2362.55     48.61
118.97   2030.00     45.06
119.07   1952.49     44.19
119.17   1677.58     40.96
119.27   1499.00     38.72
119.37   1357.00     36.84
119.47   1310.34     36.20
119.57   1212.00     34.81
119.67   1087.00     32.97
119.77   1023.00     31.98
119.87    887.02     29.78
119.97    843.29     29.04
120.07    842.00     29.02
120.17    802.76     28.33
120.27    710.64     26.66
120.37    721.00     26.85
120.47    679.00     26.06
120.57    669.01     25.87
120.67    636.00     25.22
120.77    643.29     25.36
120.87    654.63     25.59
120.97    673.00     25.94
121.07    627.00     25.04
121.17    586.00     24.21
121.27    571.00     23.90
121.37    601.00     24.52
121.47    572.00     23.92
121.57    605.00     24.60
121.67    601.00     24.52
121.77    623.00     24.96
121.87    579.00     24.06
121.97    618.00     24.86
122.07    620.32     24.91
122.17    593.46     24.36
122.27    595.00     24.39
122.37    588.51     24.26
122.47    602.00     24.54
122.57    590.00     24.29
122.67    649.00     25.48
122.77    644.00     25.38
122.87    688.22     26.23
122.97    675.00     25.98
123.07    589.89     24.29
123.17    652.00     25.53
123.27    636.00     25.22
123.37    636.92     25.24
123.47    619.40     24.89
123.57    677.00     26.02
123.67    615.15     24.80
123.77    681.24     26.10
123.87    662.00     25.73
123.97    670.30     25.89
124.07    638.00     25.26
124.17    623.00     24.96
124.27    596.25     24.42
124.37    583.41     24.15
124.47    616.00     24.82
124.57    609.00     24.68
124.67    560.97     23.68
124.77    626.00     25.02
124.87    587.00     24.23
124.97    582.00     24.12
