XYDATA



INTER 1.0 1.0 0 0
TEMP 788.812
  9.97    619.00     24.88
 10.07    579.33     24.07
 10.17    579.39     24.07
 10.27    614.00     24.78
 10.37    639.43     25.29
 10.47    593.90     24.37
 10.57    600.00     24.49
 10.67    622.65     24.95
 10.77    594.00     24.37
 10.87    625.00     25.00
 10.97    644.00     25.38
 11.07    603.00     24.56
 11.17    640.00     25.30
 11.27    547.07     23.39
 11.37    643.00     25.36
 11.47    594.00     24.37
 11.57    600.12     24.50
 11.67    618.00     24.86
 11.77    625.00     25.00
 11.87    679.00     26.06
 11.97    634.78     25.19
 12.07    726.26     26.95
 12.17    768.00     27.71
 12.27    739.00     27.18
 12.37    679.83     26.07
 12.47    672.00     25.92
 12.57    681.63     26.11
 12.67    636.00     25.22
 12.77    661.34     25.72
 12.87    572.00     23.92
 12.97    584.86     24.18
 13.07    658.26     25.66
 13.17    593.00     24.35
 13.27    648.44     25.46
 13.37    594.82     24.39
 13.47    558.67     23.64
 13.57    593.00     24.35
 13.67    614.00     24.78
 13.77    595.00     24.39
 13.87    638.22     25.26
 13.97    583.00     24.15
 14.07    588.00     24.25
 14.17    592.75     24.35
 14.27    587.00     24.23
 14.37    556.00     23.58
 14.47    557.93     23.62
 14.57    593.41     24.36
 14.67    634.87     25.20
 14.77    577.00     24.02
 14.87    641.89     25.34
 14.97    586.00     24.21
 15.07    578.00     24.04
 15.17    605.00     24.60
 15.27    591.00     24.31
 15.37    611.04     24.72
 15.47    587.00     24.23
 15.57    597.00     24.43
 15.67    588.76     24.26
 15.77    555.00     23.56
 15.87    576.63     24.01
 15.97    573.00     23.94
 16.07    546.00     23.37
 16.17    550.00     23.45
 16.27    638.86     25.28
 16.37    593.00     24.35
 16.47    605.00     24.60
 16.57    523.00     22.87
 16.67    543.00     23.30
 16.77    596.68     24.43
 16.87    587.00     24.23
 16.97    596.00     24.41
 17.07    629.75     25.09
 17.17    548.00     23.41
 17.27    620.10     24.90
 17.37    590.16     24.29
 17.47    611.00     24.72
 17.57    560.00     23.66
 17.67    592.78     24.35
 17.77    602.92     24.55
 17.87    606.91     24.64
 17.97    592.00     24.33
 18.07    574.00     23.96
 18.17    590.00     24.29
 18.27    555.37     23.57
 18.37    563.70     23.74
 18.47    578.00     24.04
 18.57    593.00     24.35
 18.67    648.30     25.46
 18.77    596.00     24.41
 18.87    570.00     23.87
 18.97    601.00     24.52
 19.07    604.00     24.58
 19.17    593.00     24.35
 19.27    590.00     24.29
 19.37    567.64     23.83
 19.47    565.00     23.77
 19.57    615.66     24.81
 19.67    566.00     23.79
 19.77    593.35     24.36
 19.87    592.00     24.33
 19.97    595.00     24.39
 20.07    600.00     24.49
 20.17    616.95     24.84
 20.27    531.00     23.04
 20.37    621.42     24.93
 20.47    574.00     23.96
 20.57    532.00     23.07
 20.67    562.53     23.72
 20.77    593.00     24.35
 20.87    565.00     23.77
 20.97    555.00     23.56
 21.07    583.00     24.15
 21.17    589.00     24.27
 21.27    592.00     24.33
 21.37    629.46     25.09
 21.47    598.00     24.45
 21.57    524.00     22.89
 21.67    614.00     24.78
 21.77    558.00     23.62
 21.87    644.13     25.38
 21.97    610.00     24.70
 22.07    582.00     24.12
 22.17    552.00     23.49
 22.27    569.00     23.85
 22.37    588.00     24.25
 22.47    624.00     24.98
 22.57    587.84     24.25
 22.67    565.10     23.77
 22.77    596.00     24.41
 22.87    576.00     24.00
 22.97    648.00     25.46
 23.07    558.00     23.62
 23.17    584.00     24.17
 23.27    635.00     25.20
 23.37    567.00     23.81
 23.47    576.14     24.00
 23.57    551.31     23.48
 23.67    559.00     23.64
 23.77    589.00     24.27
 23.87    581.20     24.11
 23.97    570.14     23.88
 24.07    596.00     24.41
 24.17    580.00     24.08
 24.27    594.89     24.39
 24.37    628.05     25.06
 24.47    636.00     25.22
 24.57    642.05     25.34
 24.67    629.00     25.08
 24.77    655.00     25.59
 24.87    726.00     26.94
 24.97    633.35     25.17
 25.07    672.62     25.93
 25.17    620.63     24.91
 25.27    593.50     24.36
 25.37    662.07     25.73
 25.47    590.19     24.29
 25.57    587.41     24.24
 25.67    626.00     25.02
 25.77    602.91     24.55
 25.87    547.41     23.40
 25.97    642.77     25.35
 26.07    634.00     25.18
 26.17    589.00     24.27
 26.27    638.00     25.26
 26.37    575.00     23.98
 26.47    614.00     24.78
 26.57    636.00     25.22
 26.67    632.00     25.14
 26.77    587.82     24.24
 26.87    614.05     24.78
 26.97    650.00     25.50
 27.07    609.00     24.68
 27.17    669.00     25.87
 27.27    637.00     25.24
 27.37    612.50     24.75
 27.47    649.00     25.48
 27.57    656.00     25.61
 27.67    712.00     26.68
 27.77    668.00     25.85
 27.87    606.11     24.62
 27.97    694.00     26.34
 28.07    752.00     27.42
 28.17    817.00     28.58
 28.27    962.00     31.02
 28.37    886.66     29.78
 28.47    945.00     30.74
 28.57    868.44     29.47
 28.67    864.00     29.39
 28.77    747.00     27.33
 28.87    769.63     27.74
 28.97    851.00     29.17
 29.07    916.00     30.27
 29.17    787.24     28.06
 29.27    780.00     27.93
 29.37    724.00     26.91
 29.47    731.00     27.04
 29.57    681.00     26.10
 29.67    683.00     26.13
 29.77    639.00     25.28
 29.87    678.00     26.04
 29.97    672.00     25.92
 30.07    692.00     26.31
 30.17    630.06     25.10
 30.27    653.00     25.55
 30.37    630.00     25.10
 30.47    642.00     25.34
 30.57    688.00     26.23
 30.67    639.00     25.28
 30.77    587.93     24.25
 30.87    667.00     25.83
 30.97    673.00     25.94
 31.07    710.00     26.65
 31.17    692.00     26.31
 31.27    642.00     25.34
 31.37    619.60     24.89
 31.47    677.00     26.02
 31.57    609.00     24.68
 31.67    585.00     24.19
 31.77    596.00     24.41
 31.87    613.53     24.77
 31.97    586.18     24.21
 32.07    629.00     25.08
 32.17    569.00     23.85
 32.27    605.00     24.60
 32.37    609.86     24.70
 32.47    602.00     24.54
 32.57    531.80     23.06
 32.67    571.00     23.90
 32.77    563.00     23.73
 32.87    572.00     23.92
 32.97    535.00     23.13
 33.07    571.19     23.90
 33.17    504.00     22.45
 33.27    545.00     23.35
 33.37    570.97     23.89
 33.47    625.00     25.00
 33.57    582.64     24.14
 33.67    663.00     25.75
 33.77    706.66     26.58
 33.87    784.53     28.01
 33.97    880.36     29.67
 34.07    916.89     30.28
 34.17   1100.75     33.18
 34.27   1045.00     32.33
 34.37    884.93     29.75
 34.47    816.00     28.57
 34.57    747.00     27.33
 34.67    626.00     25.02
 34.77    634.00     25.18
 34.87    603.00     24.56
 34.97    568.00     23.83
 35.07    582.00     24.12
 35.17    558.00     23.62
 35.27    582.00     24.12
 35.37    539.87     23.24
 35.47    532.00     23.07
 35.57    587.00     24.23
 35.67    568.00     23.83
 35.77    556.00     23.58
 35.87    541.00     23.26
 35.97    538.00     23.19
 36.07    540.00     23.24
 36.17    559.00     23.64
 36.27    581.68     24.12
 36.37    541.59     23.27
 36.47    544.38     23.33
 36.57    518.00     22.76
 36.67    522.00     22.85
 36.77    548.54     23.42
 36.87    557.00     23.60
 36.97    525.15     22.92
 37.07    552.02     23.50
 37.17    509.00     22.56
 37.27    509.02     22.56
 37.37    523.00     22.87
 37.47    567.00     23.81
 37.57    529.00     23.00
 37.67    551.00     23.47
 37.77    536.00     23.15
 37.87    550.00     23.45
 37.97    553.17     23.52
 38.07    598.09     24.46
 38.17    513.10     22.65
 38.27    542.00     23.28
 38.37    520.22     22.81
 38.47    494.00     22.23
 38.57    518.00     22.76
 38.67    502.00     22.41
 38.77    547.79     23.40
 38.87    543.65     23.32
 38.97    552.00     23.49
 39.07    578.78     24.06
 39.17    506.25     22.50
 39.27    524.00     22.89
 39.37    485.55     22.04
 39.47    555.00     23.56
 39.57    551.00     23.47
 39.67    523.00     22.87
 39.77    537.30     23.18
 39.87    487.09     22.07
 39.97    535.13     23.13
 40.07    550.26     23.46
 40.17    509.93     22.58
 40.27    567.24     23.82
 40.37    541.81     23.28
 40.47    507.00     22.52
 40.57    537.90     23.19
 40.67    549.00     23.43
 40.77    523.00     22.87
 40.87    507.00     22.52
 40.97    554.04     23.54
 41.07    532.00     23.07
 41.17    463.00     21.52
 41.27    526.00     22.93
 41.37    514.00     22.67
 41.47    547.00     23.39
 41.57    478.00     21.86
 41.67    520.00     22.80
 41.77    534.00     23.11
 41.87    530.00     23.02
 41.97    542.51     23.29
 42.07    525.00     22.91
 42.17    500.00     22.36
 42.27    477.00     21.84
 42.37    510.27     22.59
 42.47    605.75     24.61
 42.57    550.00     23.45
 42.67    550.00     23.45
 42.77    584.61     24.18
 42.87    590.00     24.29
 42.97    587.00     24.23
 43.07    584.34     24.17
 43.17    582.00     24.12
 43.27    551.84     23.49
 43.37    512.43     22.64
 43.47    532.00     23.07
 43.57    475.00     21.79
 43.67    516.00     22.72
 43.77    521.00     22.83
 43.87    518.00     22.76
 43.97    512.00     22.63
 44.07    531.39     23.05
 44.17    550.69     23.47
 44.27    478.00     21.86
 44.37    472.20     21.73
 44.47    473.00     21.75
 44.57    527.96     22.98
 44.67    508.82     22.56
 44.77    499.00     22.34
 44.87    556.63     23.59
 44.97    478.37     21.87
 45.07    493.00     22.20
 45.17    556.90     23.60
 45.27    517.00     22.74
 45.37    520.14     22.81
 45.47    518.00     22.76
 45.57    484.00     22.00
 45.67    535.00     23.13
 45.77    501.85     22.40
 45.87    547.00     23.39
 45.97    524.29     22.90
 46.07    574.00     23.96
 46.17    520.00     22.80
 46.27    494.84     22.25
 46.37    503.15     22.43
 46.47    509.00     22.56
 46.57    537.21     23.18
 46.67    528.16     22.98
 46.77    489.00     22.11
 46.87    518.00     22.76
 46.97    556.62     23.59
 47.07    549.00     23.43
 47.17    475.77     21.81
 47.27    553.00     23.52
 47.37    540.00     23.24
 47.47    506.30     22.50
 47.57    497.00     22.29
 47.67    584.00     24.17
 47.77    581.76     24.12
 47.87    610.00     24.70
 47.97    588.00     24.25
 48.07    602.00     24.54
 48.17    582.00     24.12
 48.27    565.06     23.77
 48.37    544.14     23.33
 48.47    604.00     24.58
 48.57    549.00     23.43
 48.67    592.00     24.33
 48.77    547.00     23.39
 48.87    567.00     23.81
 48.97    571.00     23.90
 49.07    569.00     23.85
 49.17    535.14     23.13
 49.27    550.00     23.45
 49.37    559.00     23.64
 49.47    624.00     24.98
 49.57    601.00     24.52
 49.67    644.00     25.38
 49.77    874.14     29.57
 49.87    974.00     31.21
 49.97   1157.00     34.01
 50.07   1573.00     39.66
 50.17   1830.00     42.78
 50.27   2240.28     47.33
 50.37   2325.00     48.22
 50.47   2306.28     48.02
 50.57   2107.00     45.90
 50.67   1725.00     41.53
 50.77   1344.18     36.66
 50.87   1049.00     32.39
 50.97    960.06     30.98
 51.07    753.00     27.44
 51.17    707.00     26.59
 51.27    633.00     25.16
 51.37    642.40     25.35
 51.47    678.00     26.04
 51.57    594.21     24.38
 51.67    588.00     24.25
 51.77    606.00     24.62
 51.87    636.00     25.22
 51.97    560.72     23.68
 52.07    590.00     24.29
 52.17    589.00     24.27
 52.27    568.00     23.83
 52.37    596.42     24.42
 52.47    590.58     24.30
 52.57    597.48     24.44
 52.67    610.25     24.70
 52.77    586.84     24.22
 52.87    633.00     25.16
 52.97    609.53     24.69
 53.07    683.60     26.15
 53.17    688.18     26.23
 53.27    819.00     28.62
 53.37    930.00     30.50
 53.47    975.54     31.23
 53.57   1098.00     33.14
 53.67   1175.00     34.28
 53.77   1156.00     34.00
 53.87   1176.50     34.30
 53.97   1113.05     33.36
 54.07    943.00     30.71
 54.17    870.00     29.50
 54.27    765.00     27.66
 54.37    700.00     26.46
 54.47    643.00     25.36
 54.57    677.70     26.03
 54.67    655.90     25.61
 54.77    604.00     24.58
 54.87    575.00     23.98
 54.97    609.84     24.69
 55.07    617.02     24.84
 55.17    611.00     24.72
 55.27    554.00     23.54
 55.37    600.71     24.51
 55.47    548.00     23.41
 55.57    632.32     25.15
 55.67    577.00     24.02
 55.77    553.99     23.54
 55.87    647.00     25.44
 55.97    644.00     25.38
 56.07    663.00     25.75
 56.17    708.00     26.61
 56.27    724.00     26.91
 56.37    819.00     28.62
 56.47   1011.98     31.81
 56.57   1160.00     34.06
 56.67   1532.80     39.15
 56.77   1778.88     42.18
 56.87   2086.00     45.67
 56.97   2458.24     49.58
 57.07   2500.13     50.00
 57.17   2496.00     49.96
 57.27   2391.16     48.90
 57.37   2040.00     45.17
 57.47   1784.00     42.24
 57.57   1428.00     37.79
 57.67   1222.00     34.96
 57.77    932.00     30.53
 57.87    868.00     29.46
 57.97    798.00     28.25
 58.07    695.00     26.36
 58.17    701.76     26.49
 58.27    665.63     25.80
 58.37    671.00     25.90
 58.47    806.08     28.39
 58.57    775.00     27.84
 58.67    863.00     29.38
 58.77    985.00     31.38
 58.87   1038.00     32.22
 58.97   1119.00     33.45
 59.07   1254.00     35.41
 59.17   1265.00     35.57
 59.27   1232.00     35.10
 59.37   1320.00     36.33
 59.47   1312.00     36.22
 59.57   1235.13     35.14
 59.67   1174.00     34.26
 59.77   1221.00     34.94
 59.87   1224.00     34.99
 59.97   1217.00     34.89
 60.07   1298.00     36.03
 60.17   1280.83     35.79
 60.27   1544.00     39.29
 60.37   1420.24     37.69
 60.47   1567.00     39.59
 60.57   1496.00     38.68
 60.67   1415.00     37.62
 60.77   1329.00     36.46
 60.87   1198.00     34.61
 60.97   1036.16     32.19
 61.07    919.00     30.32
 61.17    849.45     29.15
 61.27    792.66     28.15
 61.37    718.00     26.80
 61.47    702.80     26.51
 61.57    686.69     26.20
 61.67    736.65     27.14
 61.77    803.49     28.35
 61.87    832.61     28.85
 61.97   1009.33     31.77
 62.07   1170.75     34.22
 62.17   1167.00     34.16
 62.27   1353.40     36.79
 62.37   1308.16     36.17
 62.47   1284.00     35.83
 62.57   1294.00     35.97
 62.67   1176.00     34.29
 62.77   1056.91     32.51
 62.87    936.87     30.61
 62.97    778.00     27.89
 63.07    784.00     28.00
 63.17    679.82     26.07
 63.27    601.00     24.52
 63.37    628.00     25.06
 63.47    647.00     25.44
 63.57    559.49     23.65
 63.67    607.00     24.64
 63.77    595.15     24.40
 63.87    660.47     25.70
 63.97    676.00     26.00
 64.07    644.00     25.38
 64.17    690.00     26.27
 64.27    722.59     26.88
 64.37    759.47     27.56
 64.47    875.00     29.58
 64.57    890.00     29.83
 64.67    957.00     30.94
 64.77   1032.00     32.12
 64.87    978.67     31.28
 64.97   1004.00     31.69
 65.07   1041.00     32.26
 65.17    948.00     30.79
 65.27    901.81     30.03
 65.37    812.00     28.50
 65.47    816.00     28.57
 65.57    738.93     27.18
 65.67    726.13     26.95
 65.77    670.00     25.88
 65.87    651.00     25.51
 65.97    636.00     25.22
 66.07    647.00     25.44
 66.17    613.00     24.76
 66.27    600.49     24.50
 66.37    554.68     23.55
 66.47    552.09     23.50
 66.57    622.44     24.95
 66.67    625.22     25.00
 66.77    555.70     23.57
 66.87    641.00     25.32
 66.97    625.00     25.00
 67.07    683.98     26.15
 67.17    636.49     25.23
 67.27    686.00     26.19
 67.37    759.00     27.55
 67.47    831.00     28.83
 67.57    897.00     29.95
 67.67   1056.00     32.50
 67.77   1224.02     34.99
 67.87   1454.00     38.13
 67.97   1699.82     41.23
 68.07   1909.00     43.69
 68.17   2150.47     46.37
 68.27   2326.00     48.23
 68.37   2434.00     49.34
 68.47   2226.51     47.19
 68.57   2231.00     47.23
 68.67   2011.00     44.84
 68.77   1872.00     43.27
 68.87   1451.00     38.09
 68.97   1243.00     35.26
 69.07   1112.00     33.35
 69.17    933.86     30.56
 69.27    850.28     29.16
 69.37    739.00     27.18
 69.47    723.62     26.90
 69.57    652.00     25.53
 69.67    627.02     25.04
 69.77    648.00     25.46
 69.87    579.00     24.06
 69.97    652.75     25.55
 70.07    633.00     25.16
 70.17    600.00     24.49
 70.27    638.18     25.26
 70.37    595.00     24.39
 70.47    587.00     24.23
 70.57    574.09     23.96
 70.67    614.88     24.80
 70.77    569.41     23.86
 70.87    653.00     25.55
 70.97    672.00     25.92
 71.07    605.13     24.60
 71.17    679.00     26.06
 71.27    709.00     26.63
 71.37    744.00     27.28
 71.47    828.09     28.78
 71.57    953.00     30.87
 71.67    981.00     31.32
 71.77   1235.07     35.14
 71.87   1304.00     36.11
 71.97   1542.00     39.27
 72.07   1629.00     40.36
 72.17   1731.00     41.61
 72.27   1750.11     41.83
 72.37   1844.00     42.94
 72.47   1811.00     42.56
 72.57   1692.05     41.13
 72.67   1451.82     38.10
 72.77   1449.00     38.07
 72.87   1254.00     35.41
 72.97   1120.59     33.48
 73.07    958.74     30.96
 73.17    913.00     30.22
 73.27    838.17     28.95
 73.37    792.00     28.14
 73.47    754.00     27.46
 73.57    702.00     26.50
 73.67    697.00     26.40
 73.77    661.00     25.71
 73.87    575.62     23.99
 73.97    632.00     25.14
 74.07    583.00     24.15
 74.17    603.00     24.56
 74.27    556.00     23.58
 74.37    558.27     23.63
 74.47    575.97     24.00
 74.57    571.00     23.90
 74.67    649.00     25.48
 74.77    606.16     24.62
 74.87    669.00     25.87
 74.97    548.48     23.42
 75.07    625.00     25.00
 75.17    654.00     25.57
 75.27    562.76     23.72
 75.37    589.55     24.28
 75.47    596.00     24.41
 75.57    583.00     24.15
 75.67    593.00     24.35
 75.77    572.00     23.92
 75.87    581.00     24.10
 75.97    619.89     24.90
 76.07    612.00     24.74
 76.17    644.00     25.38
 76.27    630.52     25.11
 76.37    637.00     25.24
 76.47    667.00     25.83
 76.57    650.02     25.50
 76.67    689.71     26.26
 76.77    715.91     26.76
 76.87    767.10     27.70
 76.97    704.00     26.53
 77.07    711.00     26.66
 77.17    677.00     26.02
 77.27    656.00     25.61
 77.37    595.17     24.40
 77.47    668.66     25.86
 77.57    579.00     24.06
 77.67    570.00     23.87
 77.77    535.93     23.15
 77.87    552.00     23.49
 77.97    597.18     24.44
 78.07    501.30     22.39
 78.17    539.00     23.22
 78.27    551.00     23.47
 78.37    557.00     23.60
 78.47    530.26     23.03
 78.57    515.00     22.69
 78.67    513.00     22.65
 78.77    555.00     23.56
 78.87    500.00     22.36
 78.97    544.00     23.32
 79.07    544.00     23.32
 79.17    521.56     22.84
 79.27    549.00     23.43
 79.37    483.00     21.98
 79.47    479.74     21.90
 79.57    492.53     22.19
 79.67    550.00     23.45
 79.77    527.00     22.96
 79.87    494.00     22.23
 79.97    517.00     22.74
 80.07    520.61     22.82
 80.17    538.00     23.19
 80.27    574.00     23.96
 80.37    577.00     24.02
 80.47    611.00     24.72
 80.57    570.00     23.87
 80.67    592.00     24.33
 80.77    609.00     24.68
 80.87    636.00     25.22
 80.97    596.00     24.41
 81.07    615.00     24.80
 81.17    622.00     24.94
 81.27    681.00     26.10
 81.37    711.00     26.66
 81.47    712.00     26.68
 81.57    794.17     28.18
 81.67    763.00     27.62
 81.77    737.00     27.15
 81.87    779.45     27.92
 81.97    788.00     28.07
 82.07    744.00     27.28
 82.17    761.88     27.60
 82.27    702.00     26.50
 82.37    760.00     27.57
 82.47    646.00     25.42
 82.57    634.00     25.18
 82.67    654.35     25.58
 82.77    615.00     24.80
 82.87    584.07     24.17
 82.97    632.59     25.15
 83.07    615.36     24.81
 83.17    598.00     24.45
 83.27    575.00     23.98
 83.37    549.02     23.43
 83.47    526.00     22.93
 83.57    543.00     23.30
 83.67    549.49     23.44
 83.77    544.00     23.32
 83.87    545.79     23.36
 83.97    607.58     24.65
 84.07    573.00     23.94
 84.17    554.46     23.55
 84.27    554.00     23.54
 84.37    536.00     23.15
 84.47    589.00     24.27
 84.57    551.00     23.47
 84.67    596.97     24.43
 84.77    575.74     23.99
 84.87    573.28     23.94
 84.97    567.00     23.81
 85.07    521.00     22.83
 85.17    497.00     22.29
 85.27    559.00     23.64
 85.37    510.38     22.59
 85.47    539.63     23.23
 85.57    526.00     22.93
 85.67    506.00     22.49
 85.77    524.12     22.89
 85.87    535.00     23.13
 85.97    557.00     23.60
 86.07    575.32     23.99
 86.17    514.38     22.68
 86.27    513.00     22.65
 86.37    535.00     23.13
 86.47    539.60     23.23
 86.57    531.00     23.04
 86.67    541.00     23.26
 86.77    545.00     23.35
 86.87    550.94     23.47
 86.97    542.00     23.28
 87.07    573.00     23.94
 87.17    605.78     24.61
 87.27    550.74     23.47
 87.37    560.06     23.67
 87.47    584.00     24.17
 87.57    666.57     25.82
 87.67    638.00     25.26
 87.77    643.00     25.36
 87.87    593.01     24.35
 87.97    655.00     25.59
 88.07    689.00     26.25
 88.17    668.52     25.86
 88.27    623.00     24.96
 88.37    570.30     23.88
 88.47    581.00     24.10
 88.57    565.00     23.77
 88.67    606.00     24.62
 88.77    556.00     23.58
 88.87    565.00     23.77
 88.97    540.00     23.24
 89.07    570.00     23.87
 89.17    601.13     24.52
 89.27    611.25     24.72
 89.37    585.35     24.19
 89.47    607.00     24.64
 89.57    630.00     25.10
 89.67    616.71     24.83
 89.77    619.00     24.88
 89.87    603.00     24.56
 89.97    573.00     23.94
 90.07    636.32     25.23
 90.17    581.82     24.12
 90.27    519.00     22.78
 90.37    604.00     24.58
 90.47    570.00     23.87
 90.57    529.00     23.00
 90.67    595.41     24.40
 90.77    547.84     23.41
 90.87    571.98     23.92
 90.97    515.00     22.69
 91.07    521.00     22.83
 91.17    509.00     22.56
 91.27    502.58     22.42
 91.37    511.86     22.62
 91.47    540.14     23.24
 91.57    504.00     22.45
 91.67    497.55     22.31
 91.77    512.00     22.63
 91.87    543.00     23.30
 91.97    468.00     21.63
 92.07    561.00     23.69
 92.17    520.00     22.80
 92.27    514.61     22.68
 92.37    530.00     23.02
 92.47    534.00     23.11
 92.57    566.00     23.79
 92.67    558.73     23.64
 92.77    604.00     24.58
 92.87    634.18     25.18
 92.97    686.87     26.21
 93.07    681.97     26.11
 93.17    702.28     26.50
 93.27    638.70     25.27
 93.37    691.24     26.29
 93.47    744.00     27.28
 93.57    712.00     26.68
 93.67    740.00     27.20
 93.77    758.00     27.53
 93.87    713.00     26.70
 93.97    810.18     28.46
 94.07    838.00     28.95
 94.17    843.00     29.03
 94.27    843.00     29.03
 94.37    832.00     28.84
 94.47    867.56     29.45
 94.57    885.00     29.75
 94.67    890.00     29.83
 94.77    821.71     28.67
 94.87    868.00     29.46
 94.97    936.00     30.59
 95.07    946.00     30.76
 95.17    901.24     30.02
 95.27    868.00     29.46
 95.37    906.00     30.10
 95.47    837.96     28.95
 95.57    902.00     30.03
 95.67    892.00     29.87
 95.77    861.34     29.35
 95.87    806.00     28.39
 95.97    786.00     28.04
 96.07    773.00     27.80
 96.17    736.00     27.13
 96.27    749.00     27.37
 96.37    710.00     26.65
 96.47    698.00     26.42
 96.57    706.70     26.58
 96.67    797.00     28.23
 96.77    791.97     28.14
 96.87    843.00     29.03
 96.97    911.00     30.18
 97.07    966.00     31.08
 97.17   1012.00     31.81
 97.27   1047.52     32.37
 97.37   1176.00     34.29
 97.47   1229.00     35.06
 97.57   1263.00     35.54
 97.67   1416.67     37.64
 97.77   1410.00     37.55
 97.87   1464.00     38.26
 97.97   1444.00     38.00
 98.07   1434.26     37.87
 98.17   1461.00     38.22
 98.27   1383.00     37.19
 98.37   1438.00     37.92
 98.47   1292.57     35.95
 98.57   1198.30     34.62
 98.67   1243.74     35.27
 98.77   1126.42     33.56
 98.87   1095.88     33.10
 98.97   1012.85     31.83
 99.07    994.00     31.53
 99.17    951.72     30.85
 99.27    873.26     29.55
 99.37    926.61     30.44
 99.47    943.00     30.71
 99.57    934.00     30.56
 99.67    984.00     31.37
 99.77    939.00     30.64
 99.87   1097.95     33.14
 99.97   1117.60     33.43
100.07   1190.10     34.50
100.17   1238.59     35.19
100.27   1350.00     36.74
100.37   1533.00     39.15
100.47   1532.99     39.15
100.57   1665.00     40.80
100.67   1764.79     42.01
100.77   1832.00     42.80
100.87   1849.29     43.00
100.97   1888.47     43.46
101.07   1931.33     43.95
101.17   1965.00     44.33
101.27   1873.39     43.28
101.37   1980.00     44.50
101.47   1924.00     43.86
101.57   1813.17     42.58
101.67   1888.73     43.46
101.77   1801.67     42.45
101.87   1687.00     41.07
101.97   1554.87     39.43
102.07   1509.15     38.85
102.17   1513.00     38.90
102.27   1438.29     37.92
102.37   1317.17     36.29
102.47   1278.00     35.75
102.57   1286.00     35.86
102.67   1168.00     34.18
102.77   1138.00     33.73
102.87   1222.86     34.97
102.97   1190.48     34.50
103.07   1155.00     33.99
103.17   1110.83     33.33
103.27   1027.49     32.05
103.37   1007.00     31.73
103.47   1011.00     31.80
103.57   1015.00     31.86
103.67    907.00     30.12
103.77    915.04     30.25
103.87    895.00     29.92
103.97    862.00     29.36
104.07    846.00     29.09
104.17    816.00     28.57
104.27    687.19     26.21
104.37    717.29     26.78
104.47    637.00     25.24
104.57    645.00     25.40
104.67    590.34     24.30
104.77    644.00     25.38
104.87    542.45     23.29
104.97    619.54     24.89
105.07    598.00     24.45
105.17    583.00     24.15
105.27    606.00     24.62
105.37    566.00     23.79
105.47    564.00     23.75
105.57    517.00     22.74
105.67    542.57     23.29
105.77    494.56     22.24
105.87    569.00     23.85
105.97    576.00     24.00
106.07    587.00     24.23
106.17    523.00     22.87
106.27    562.00     23.71
106.37    566.00     23.79
106.47    525.68     22.93
106.57    556.80     23.60
106.67    549.92     23.45
106.77    576.00     24.00
106.87    618.13     24.86
106.97    645.00     25.40
107.07    654.00     25.57
107.17    684.00     26.15
107.27    631.00     25.12
107.37    673.00     25.94
107.47    664.24     25.77
107.57    739.42     27.19
107.67    667.75     25.84
107.77    742.32     27.25
107.87    753.95     27.46
107.97    648.00     25.46
108.07    664.03     25.77
108.17    697.00     26.40
108.27    703.33     26.52
108.37    708.05     26.61
108.47    764.61     27.65
108.57    709.77     26.64
108.67    663.00     25.75
108.77    671.00     25.90
108.87    683.34     26.14
108.97    697.00     26.40
109.07    656.00     25.61
109.17    732.00     27.06
109.27    701.00     26.48
109.37    695.00     26.36
109.47    760.23     27.57
109.57    694.00     26.34
109.67    692.00     26.31
109.77    665.92     25.81
109.87    688.71     26.24
109.97    666.00     25.81
110.07    678.00     26.04
110.17    701.21     26.48
110.27    664.00     25.77
110.37    653.77     25.57
110.47    661.53     25.72
110.57    661.00     25.71
110.67    598.00     24.45
110.77    566.00     23.79
110.87    621.00     24.92
110.97    546.84     23.38
111.07    558.40     23.63
111.17    558.00     23.62
111.27    505.52     22.48
111.37    558.00     23.62
111.47    539.05     23.22
111.57    531.49     23.05
111.67    547.00     23.39
111.77    573.41     23.95
111.87    561.00     23.69
111.97    575.00     23.98
112.07    561.00     23.69
112.17    533.00     23.09
112.27    568.00     23.83
112.37    558.00     23.62
112.47    519.00     22.78
112.57    588.71     24.26
112.67    617.00     24.84
112.77    540.46     23.25
112.87    555.00     23.56
112.97    580.00     24.08
113.07    539.26     23.22
113.17    608.00     24.66
113.27    590.00     24.29
113.37    538.80     23.21
113.47    567.15     23.81
113.57    595.00     24.39
113.67    624.00     24.98
113.77    634.00     25.18
113.87    639.00     25.28
113.97    680.00     26.08
114.07    684.00     26.15
114.17    713.00     26.70
114.27    695.01     26.36
114.37    752.00     27.42
114.47    823.00     28.69
114.57    798.55     28.26
114.67    842.00     29.02
114.77   1002.21     31.66
114.87   1029.00     32.08
114.97   1152.30     33.95
115.07   1334.00     36.52
115.17   1331.40     36.49
115.27   1684.00     41.04
115.37   1844.00     42.94
115.47   2027.00     45.02
115.57   2244.00     47.37
115.67   2559.00     50.59
115.77   2845.00     53.34
115.87   3094.39     55.63
115.97   3430.00     58.57
116.07   3710.55     60.91
116.17   4078.00     63.86
116.27   4454.00     66.74
116.37   4906.99     70.05
116.47   5306.32     72.84
116.57   5457.14     73.87
116.67   6039.03     77.71
116.77   6237.00     78.97
116.87   6464.00     80.40
116.97   6559.62     80.99
117.07   6895.00     83.04
117.17   6854.30     82.79
117.27   7080.00     84.14
117.37   7086.00     84.18
117.47   7031.00     83.85
117.57   6897.13     83.05
117.67   6465.81     80.41
117.77   6072.00     77.92
117.87   5715.00     75.60
117.97   5378.00     73.33
118.07   5094.00     71.37
118.17   4744.00     68.88
118.27   4399.00     66.32
118.37   4073.00     63.82
118.47   3886.00     62.34
118.57   3400.00     58.31
118.67   3002.30     54.79
118.77   2721.32     52.17
118.87   2619.00     51.18
118.97   2313.72     48.10
119.07   1990.00     44.61
119.17   1866.00     43.20
119.27   1651.00     40.63
119.37   1480.00     38.47
119.47   1458.00     38.18
119.57   1263.00     35.54
119.67   1195.00     34.57
119.77   1075.00     32.79
119.87    990.86     31.48
119.97    966.47     31.09
120.07    882.00     29.70
120.17    800.00     28.28
120.27    849.96     29.15
120.37    757.00     27.51
120.47    759.00     27.55
120.57    735.00     27.11
120.67    678.00     26.04
120.77    665.00     25.79
120.87    638.00     25.26
120.97    634.63     25.19
121.07    614.00     24.78
121.17    617.00     24.84
121.27    678.00     26.04
121.37    582.82     24.14
121.47    586.00     24.21
121.57    637.00     25.24
121.67    582.00     24.12
121.77    648.59     25.47
121.87    560.00     23.66
121.97    603.83     24.57
122.07    638.95     25.28
122.17    586.43     24.22
122.27    588.50     24.26
122.37    607.00     24.64
122.47    652.58     25.55
122.57    659.00     25.67
122.67    616.00     24.82
122.77    675.00     25.98
122.87    646.05     25.42
122.97    646.00     25.42
123.07    671.00     25.90
123.17    643.00     25.36
123.27    693.00     26.32
123.37    675.00     25.98
123.47    698.57     26.43
123.57    661.00     25.71
123.67    616.00     24.82
123.77    669.45     25.87
123.87    657.00     25.63
123.97    647.00     25.44
124.07    675.00     25.98
124.17    598.88     24.47
124.27    687.58     26.22
124.37    607.66     24.65
124.47    655.00     25.59
124.57    614.00     24.78
124.67    620.00     24.90
124.77    627.00     25.04
124.87    585.00     24.19
124.97    597.00     24.43
