XYDATA



INTER 1.0 1.0 0 0
TEMP 1074.0
  9.97    607.08     24.64
 10.07    594.00     24.37
 10.17    596.55     24.42
 10.27    591.00     24.31
 10.37    634.00     25.18
 10.47    615.00     24.80
 10.57    605.00     24.60
 10.67    580.00     24.08
 10.77    567.00     23.81
 10.87    555.00     23.56
 10.97    539.23     23.22
 11.07    568.23     23.84
 11.17    579.00     24.06
 11.27    612.00     24.74
 11.37    620.00     24.90
 11.47    595.00     24.39
 11.57    596.03     24.41
 11.67    576.68     24.01
 11.77    605.86     24.61
 11.87    617.00     24.84
 11.97    659.00     25.67
 12.07    706.00     26.57
 12.17    747.00     27.33
 12.27    679.00     26.06
 12.37    707.34     26.60
 12.47    584.00     24.17
 12.57    563.00     23.73
 12.67    577.78     24.04
 12.77    635.00     25.20
 12.87    552.00     23.49
 12.97    578.00     24.04
 13.07    546.12     23.37
 13.17    600.00     24.49
 13.27    581.00     24.10
 13.37    560.00     23.66
 13.47    572.00     23.92
 13.57    614.20     24.78
 13.67    567.00     23.81
 13.77    561.00     23.69
 13.87    593.00     24.35
 13.97    579.00     24.06
 14.07    593.00     24.35
 14.17    559.38     23.65
 14.27    566.00     23.79
 14.37    523.00     22.87
 14.47    584.00     24.17
 14.57    555.00     23.56
 14.67    525.00     22.91
 14.77    526.00     22.93
 14.87    553.00     23.52
 14.97    563.43     23.74
 15.07    550.00     23.45
 15.17    579.92     24.08
 15.27    581.00     24.10
 15.37    585.37     24.19
 15.47    593.29     24.36
 15.57    582.00     24.12
 15.67    599.00     24.47
 15.77    552.00     23.49
 15.87    560.00     23.66
 15.97    557.00     23.60
 16.07    597.53     24.44
 16.17    586.94     24.23
 16.27    528.12     22.98
 16.37    532.00     23.07
 16.47    542.00     23.28
 16.57    559.00     23.64
 16.67    579.00     24.06
 16.77    550.00     23.45
 16.87    535.38     23.14
 16.97    608.45     24.67
 17.07    542.00     23.28
 17.17    588.36     24.26
 17.27    523.48     22.88
 17.37    529.52     23.01
 17.47    578.00     24.04
 17.57    571.00     23.90
 17.67    549.00     23.43
 17.77    577.23     24.03
 17.87    560.00     23.66
 17.97    586.51     24.22
 18.07    523.00     22.87
 18.17    556.00     23.58
 18.27    539.00     23.22
 18.37    523.93     22.89
 18.47    539.00     23.22
 18.57    604.92     24.60
 18.67    490.00     22.14
 18.77    559.00     23.64
 18.87    524.00     22.89
 18.97    563.00     23.73
 19.07    574.00     23.96
 19.17    563.00     23.73
 19.27    545.00     23.35
 19.37    567.88     23.83
 19.47    556.00     23.58
 19.57    532.48     23.08
 19.67    550.00     23.45
 19.77    531.00     23.04
 19.87    526.03     22.94
 19.97    546.00     23.37
 20.07    563.00     23.73
 20.17    520.39     22.81
 20.27    552.00     23.49
 20.37    582.00     24.12
 20.47    567.73     23.83
 20.57    562.00     23.71
 20.67    531.00     23.04
 20.77    576.98     24.02
 20.87    563.71     23.74
 20.97    545.00     23.35
 21.07    594.00     24.37
 21.17    546.09     23.37
 21.27    543.48     23.31
 21.37    539.38     23.22
 21.47    563.42     23.74
 21.57    565.14     23.77
 21.67    599.09     24.48
 21.77    568.00     23.83
 21.87    573.00     23.94
 21.97    522.41     22.86
 22.07    546.00     23.37
 22.17    531.00     23.04
 22.27    532.58     23.08
 22.37    587.88     24.25
 22.47    553.00     23.52
 22.57    507.42     22.53
 22.67    547.00     23.39
 22.77    562.00     23.71
 22.87    534.00     23.11
 22.97    529.09     23.00
 23.07    528.41     22.99
 23.17    593.85     24.37
 23.27    502.00     22.41
 23.37    571.00     23.90
 23.47    570.67     23.89
 23.57    575.00     23.98
 23.67    560.29     23.67
 23.77    543.53     23.31
 23.87    549.00     23.43
 23.97    587.53     24.24
 24.07    524.69     22.91
 24.17    565.00     23.77
 24.27    553.00     23.52
 24.37    562.00     23.71
 24.47    634.00     25.18
 24.57    611.00     24.72
 24.67    614.00     24.78
 24.77    637.17     25.24
 24.87    625.00     25.00
 24.97    637.46     25.25
 25.07    596.30     24.42
 25.17    552.55     23.51
 25.27    554.00     23.54
 25.37    559.00     23.64
 25.47    556.00     23.58
 25.57    515.00     22.69
 25.67    543.00     23.30
 25.77    635.00     25.20
 25.87    585.00     24.19
 25.97    588.00     24.25
 26.07    535.00     23.13
 26.17    551.87     23.49
 26.27    532.00     23.07
 26.37    499.42     22.35
 26.47    500.43     22.37
 26.57    555.39     23.57
 26.67    525.35     22.92
 26.77    581.00     24.10
 26.87    564.00     23.75
 26.97    536.00     23.15
 27.07    557.00     23.60
 27.17    553.00     23.52
 27.27    581.00     24.10
 27.37    582.00     24.12
 27.47    590.00     24.29
 27.57    552.00     23.49
 27.67    555.32     23.57
 27.77    540.36     23.25
 27.87    595.85     24.41
 27.97    642.00     25.34
 28.07    763.00     27.62
 28.17    919.00     30.32
 28.27    975.00     31.22
 28.37    943.13     30.71
 28.47    801.00     28.30
 28.57    751.84     27.42
 28.67    659.17     25.67
 28.77    722.00     26.87
 28.87    818.00     28.60
 28.97    842.00     29.02
 29.07    753.00     27.44
 29.17    694.00     26.34
 29.27    570.00     23.87
 29.37    628.96     25.08
 29.47    585.68     24.20
 29.57    582.00     24.12
 29.67    608.00     24.66
 29.77    601.99     24.54
 29.87    577.00     24.02
 29.97    541.00     23.26
 30.07    518.00     22.76
 30.17    505.00     22.47
 30.27    586.08     24.21
 30.37    544.29     23.33
 30.47    592.00     24.33
 30.57    509.29     22.57
 30.67    577.00     24.02
 30.77    615.00     24.80
 30.87    583.00     24.15
 30.97    633.00     25.16
 31.07    625.32     25.01
 31.17    595.00     24.39
 31.27    550.00     23.45
 31.37    530.98     23.04
 31.47    543.00     23.30
 31.57    576.00     24.00
 31.67    534.00     23.11
 31.77    594.00     24.37
 31.87    543.00     23.30
 31.97    525.44     22.92
 32.07    562.00     23.71
 32.17    576.00     24.00
 32.27    568.00     23.83
 32.37    542.00     23.28
 32.47    545.00     23.35
 32.57    569.00     23.85
 32.67    545.37     23.35
 32.77    527.00     22.96
 32.87    546.00     23.37
 32.97    527.00     22.96
 33.07    562.00     23.71
 33.17    535.17     23.13
 33.27    512.24     22.63
 33.37    549.00     23.43
 33.47    576.00     24.00
 33.57    650.00     25.50
 33.67    643.00     25.36
 33.77    727.22     26.97
 33.87    904.00     30.07
 33.97   1033.94     32.15
 34.07   1105.00     33.24
 34.17   1048.00     32.37
 34.27    950.02     30.82
 34.37    716.00     26.76
 34.47    666.00     25.81
 34.57    555.35     23.57
 34.67    551.00     23.47
 34.77    558.00     23.62
 34.87    555.00     23.56
 34.97    576.52     24.01
 35.07    543.00     23.30
 35.17    481.00     21.93
 35.27    550.19     23.46
 35.37    523.00     22.87
 35.47    506.00     22.49
 35.57    489.00     22.11
 35.67    537.00     23.17
 35.77    507.62     22.53
 35.87    525.00     22.91
 35.97    496.81     22.29
 36.07    511.00     22.61
 36.17    504.00     22.45
 36.27    487.00     22.07
 36.37    474.00     21.77
 36.47    492.00     22.18
 36.57    482.00     21.95
 36.67    536.00     23.15
 36.77    489.70     22.13
 36.87    506.00     22.49
 36.97    554.12     23.54
 37.07    530.00     23.02
 37.17    517.62     22.75
 37.27    522.00     22.85
 37.37    509.00     22.56
 37.47    552.72     23.51
 37.57    513.00     22.65
 37.67    510.00     22.58
 37.77    531.00     23.04
 37.87    512.00     22.63
 37.97    487.99     22.09
 38.07    547.20     23.39
 38.17    541.02     23.26
 38.27    484.00     22.00
 38.37    510.00     22.58
 38.47    506.00     22.49
 38.57    462.00     21.49
 38.67    551.00     23.47
 38.77    507.96     22.54
 38.87    550.98     23.47
 38.97    506.33     22.50
 39.07    512.00     22.63
 39.17    537.00     23.17
 39.27    503.00     22.43
 39.37    527.00     22.96
 39.47    507.12     22.52
 39.57    496.78     22.29
 39.67    514.00     22.67
 39.77    471.00     21.70
 39.87    477.00     21.84
 39.97    512.00     22.63
 40.07    531.00     23.04
 40.17    540.85     23.26
 40.27    529.00     23.00
 40.37    509.51     22.57
 40.47    536.00     23.15
 40.57    499.00     22.34
 40.67    526.81     22.95
 40.77    490.04     22.14
 40.87    531.24     23.05
 40.97    515.00     22.69
 41.07    481.09     21.93
 41.17    517.00     22.74
 41.27    513.00     22.65
 41.37    541.84     23.28
 41.47    538.32     23.20
 41.57    556.00     23.58
 41.67    518.00     22.76
 41.77    475.60     21.81
 41.87    470.00     21.68
 41.97    480.00     21.91
 42.07    490.07     22.14
 42.17    504.00     22.45
 42.27    541.00     23.26
 42.37    554.64     23.55
 42.47    580.07     24.08
 42.57    576.00     24.00
 42.67    613.00     24.76
 42.77    613.00     24.76
 42.87    576.00     24.00
 42.97    550.16     23.46
 43.07    520.00     22.80
 43.17    506.00     22.49
 43.27    519.00     22.78
 43.37    498.00     22.32
 43.47    514.36     22.68
 43.57    497.00     22.29
 43.67    502.00     22.41
 43.77    530.00     23.02
 43.87    519.42     22.79
 43.97    483.98     22.00
 44.07    526.20     22.94
 44.17    548.26     23.42
 44.27    507.00     22.52
 44.37    528.00     22.98
 44.47    548.16     23.41
 44.57    523.73     22.89
 44.67    529.50     23.01
 44.77    538.01     23.19
 44.87    483.04     21.98
 44.97    514.00     22.67
 45.07    503.00     22.43
 45.17    464.73     21.56
 45.27    465.02     21.56
 45.37    476.00     21.82
 45.47    497.87     22.31
 45.57    467.00     21.61
 45.67    462.97     21.52
 45.77    486.62     22.06
 45.87    488.00     22.09
 45.97    525.92     22.93
 46.07    496.25     22.28
 46.17    484.00     22.00
 46.27    543.00     23.30
 46.37    482.45     21.96
 46.47    491.13     22.16
 46.57    488.00     22.09
 46.67    497.00     22.29
 46.77    495.07     22.25
 46.87    492.00     22.18
 46.97    523.00     22.87
 47.07    490.00     22.14
 47.17    537.00     23.17
 47.27    517.00     22.74
 47.37    511.00     22.61
 47.47    571.00     23.90
 47.57    585.00     24.19
 47.67    573.72     23.95
 47.77    588.00     24.25
 47.87    595.00     24.39
 47.97    590.00     24.29
 48.07    605.22     24.60
 48.17    566.11     23.79
 48.27    611.00     24.72
 48.37    572.77     23.93
 48.47    526.00     22.93
 48.57    550.00     23.45
 48.67    500.00     22.36
 48.77    528.23     22.98
 48.87    530.00     23.02
 48.97    573.02     23.94
 49.07    543.00     23.30
 49.17    589.00     24.27
 49.27    616.00     24.82
 49.37    670.59     25.90
 49.47    632.80     25.16
 49.57    783.00     27.98
 49.67    856.00     29.26
 49.77   1152.00     33.94
 49.87   1374.38     37.07
 49.97   1799.19     42.42
 50.07   2263.00     47.57
 50.17   2492.15     49.92
 50.27   2506.86     50.07
 50.37   2252.36     47.46
 50.47   1873.00     43.28
 50.57   1453.00     38.12
 50.67   1053.00     32.45
 50.77    844.00     29.05
 50.87    730.00     27.02
 50.97    649.93     25.49
 51.07    625.46     25.01
 51.17    651.39     25.52
 51.27    590.00     24.29
 51.37    593.00     24.35
 51.47    567.00     23.81
 51.57    561.00     23.69
 51.67    572.39     23.92
 51.77    568.00     23.83
 51.87    551.00     23.47
 51.97    564.19     23.75
 52.07    519.00     22.78
 52.17    523.00     22.87
 52.27    502.01     22.41
 52.37    554.00     23.54
 52.47    597.00     24.43
 52.57    537.00     23.17
 52.67    645.00     25.40
 52.77    563.18     23.73
 52.87    641.00     25.32
 52.97    750.00     27.39
 53.07    796.00     28.21
 53.17    942.00     30.69
 53.27   1059.00     32.54
 53.37   1151.00     33.93
 53.47   1197.00     34.60
 53.57   1167.00     34.16
 53.67   1116.00     33.41
 53.77   1075.47     32.79
 53.87    932.16     30.53
 53.97    742.00     27.24
 54.07    640.80     25.31
 54.17    624.00     24.98
 54.27    599.14     24.48
 54.37    571.00     23.90
 54.47    599.00     24.47
 54.57    579.00     24.06
 54.67    510.76     22.60
 54.77    553.00     23.52
 54.87    519.50     22.79
 54.97    502.84     22.42
 55.07    566.00     23.79
 55.17    577.00     24.02
 55.27    580.40     24.09
 55.37    526.79     22.95
 55.47    568.00     23.83
 55.57    573.00     23.94
 55.67    609.46     24.69
 55.77    553.45     23.53
 55.87    559.16     23.65
 55.97    586.00     24.21
 56.07    650.00     25.50
 56.17    751.00     27.40
 56.27    946.54     30.77
 56.37   1088.00     32.98
 56.47   1393.00     37.32
 56.57   1715.00     41.41
 56.67   2274.62     47.69
 56.77   2428.00     49.27
 56.87   2632.35     51.31
 56.97   2640.00     51.38
 57.07   2344.26     48.42
 57.17   2072.00     45.52
 57.27   1692.01     41.13
 57.37   1333.00     36.51
 57.47   1105.00     33.24
 57.57    860.05     29.33
 57.67    785.00     28.02
 57.77    720.00     26.83
 57.87    654.00     25.57
 57.97    645.00     25.40
 58.07    694.00     26.34
 58.17    765.31     27.66
 58.27    777.00     27.87
 58.37    872.00     29.53
 58.47    894.00     29.90
 58.57   1037.00     32.20
 58.67   1218.00     34.90
 58.77   1322.00     36.36
 58.87   1401.00     37.43
 58.97   1475.18     38.41
 59.07   1563.00     39.53
 59.17   1461.00     38.22
 59.27   1432.00     37.84
 59.37   1268.00     35.61
 59.47   1260.00     35.50
 59.57   1130.59     33.62
 59.67   1134.00     33.67
 59.77   1157.00     34.01
 59.87   1283.00     35.82
 59.97   1352.00     36.77
 60.07   1496.15     38.68
 60.17   1536.00     39.19
 60.27   1589.69     39.87
 60.37   1574.00     39.67
 60.47   1435.67     37.89
 60.57   1299.67     36.05
 60.67   1121.49     33.49
 60.77    877.57     29.62
 60.87    785.00     28.02
 60.97    714.00     26.72
 61.07    634.00     25.18
 61.17    664.25     25.77
 61.27    649.00     25.48
 61.37    645.14     25.40
 61.47    698.39     26.43
 61.57    776.11     27.86
 61.67    805.00     28.37
 61.77    966.09     31.08
 61.87   1117.00     33.42
 61.97   1258.00     35.47
 62.07   1341.64     36.63
 62.17   1383.86     37.20
 62.27   1399.00     37.40
 62.37   1377.97     37.12
 62.47   1128.00     33.59
 62.57   1049.00     32.39
 62.67    894.13     29.90
 62.77    826.67     28.75
 62.87    705.00     26.55
 62.97    661.00     25.71
 63.07    634.54     25.19
 63.17    585.00     24.19
 63.27    593.00     24.35
 63.37    511.00     22.61
 63.47    576.00     24.00
 63.57    591.74     24.33
 63.67    623.00     24.96
 63.77    548.26     23.41
 63.87    634.00     25.18
 63.97    626.02     25.02
 64.07    675.02     25.98
 64.17    795.00     28.20
 64.27    854.00     29.22
 64.37    905.00     30.08
 64.47    954.00     30.89
 64.57   1031.73     32.12
 64.67   1053.37     32.46
 64.77   1055.39     32.49
 64.87    949.48     30.81
 64.97    958.00     30.95
 65.07    893.82     29.90
 65.17    836.45     28.92
 65.27    769.55     27.74
 65.37    685.00     26.17
 65.47    583.00     24.15
 65.57    590.00     24.29
 65.67    621.00     24.92
 65.77    617.13     24.84
 65.87    571.24     23.90
 65.97    627.00     25.04
 66.07    561.00     23.69
 66.17    549.13     23.43
 66.27    549.00     23.43
 66.37    546.00     23.37
 66.47    556.00     23.58
 66.57    587.00     24.23
 66.67    571.64     23.91
 66.77    590.00     24.29
 66.87    583.00     24.15
 66.97    579.00     24.06
 67.07    630.00     25.10
 67.17    731.08     27.04
 67.27    728.52     26.99
 67.37    905.00     30.08
 67.47   1125.85     33.55
 67.57   1277.00     35.74
 67.67   1501.00     38.74
 67.77   1764.00     42.00
 67.87   2009.00     44.82
 67.97   2370.00     48.68
 68.07   2493.00     49.93
 68.17   2362.00     48.60
 68.27   2277.00     47.72
 68.37   2088.00     45.69
 68.47   1741.00     41.73
 68.57   1584.00     39.80
 68.67   1175.00     34.28
 68.77   1030.57     32.10
 68.87    895.00     29.92
 68.97    812.00     28.50
 69.07    733.00     27.07
 69.17    688.52     26.24
 69.27    662.34     25.74
 69.37    576.91     24.02
 69.47    598.00     24.45
 69.57    547.63     23.40
 69.67    625.00     25.00
 69.77    546.76     23.38
 69.87    608.00     24.66
 69.97    591.41     24.32
 70.07    524.00     22.89
 70.17    575.00     23.98
 70.27    594.63     24.38
 70.37    606.69     24.63
 70.47    577.95     24.04
 70.57    635.00     25.20
 70.67    539.00     23.22
 70.77    602.00     24.54
 70.87    616.84     24.84
 70.97    604.54     24.59
 71.07    674.00     25.96
 71.17    706.00     26.57
 71.27    878.79     29.64
 71.37    904.00     30.07
 71.47   1033.45     32.15
 71.57   1238.00     35.19
 71.67   1441.49     37.97
 71.77   1705.00     41.29
 71.87   1807.26     42.51
 71.97   1903.00     43.62
 72.07   1966.00     44.34
 72.17   1975.00     44.44
 72.27   1792.00     42.33
 72.37   1696.00     41.18
 72.47   1467.03     38.30
 72.57   1342.00     36.63
 72.67   1165.00     34.13
 72.77   1041.00     32.26
 72.87    921.00     30.35
 72.97    867.56     29.45
 73.07    838.98     28.97
 73.17    706.00     26.57
 73.27    757.06     27.51
 73.37    670.17     25.89
 73.47    662.83     25.75
 73.57    615.00     24.80
 73.67    622.00     24.94
 73.77    628.00     25.06
 73.87    633.00     25.16
 73.97    632.02     25.14
 74.07    594.62     24.38
 74.17    625.00     25.00
 74.27    537.09     23.18
 74.37    624.00     24.98
 74.47    566.29     23.80
 74.57    658.00     25.65
 74.67    580.20     24.09
 74.77    524.73     22.91
 74.87    609.87     24.70
 74.97    583.64     24.16
 75.07    565.98     23.79
 75.17    549.88     23.45
 75.27    593.00     24.35
 75.37    524.41     22.90
 75.47    542.00     23.28
 75.57    518.68     22.77
 75.67    558.00     23.62
 75.77    531.47     23.05
 75.87    527.00     22.96
 75.97    584.11     24.17
 76.07    674.49     25.97
 76.17    625.00     25.00
 76.27    661.00     25.71
 76.37    722.04     26.87
 76.47    683.00     26.13
 76.57    724.00     26.91
 76.67    687.00     26.21
 76.77    646.00     25.42
 76.87    640.62     25.31
 76.97    637.00     25.24
 77.07    602.00     24.54
 77.17    564.06     23.75
 77.27    586.00     24.21
 77.37    537.43     23.18
 77.47    539.00     23.22
 77.57    538.69     23.21
 77.67    553.25     23.52
 77.77    575.52     23.99
 77.87    566.36     23.80
 77.97    488.00     22.09
 78.07    516.91     22.74
 78.17    550.00     23.45
 78.27    560.05     23.67
 78.37    489.27     22.12
 78.47    528.00     22.98
 78.57    512.00     22.63
 78.67    525.34     22.92
 78.77    543.00     23.30
 78.87    508.00     22.54
 78.97    494.00     22.23
 79.07    528.00     22.98
 79.17    510.00     22.58
 79.27    532.00     23.07
 79.37    482.00     21.95
 79.47    501.00     22.38
 79.57    532.47     23.08
 79.67    521.14     22.83
 79.77    559.00     23.64
 79.87    531.00     23.04
 79.97    532.00     23.07
 80.07    570.00     23.87
 80.17    515.64     22.71
 80.27    549.23     23.44
 80.37    550.00     23.45
 80.47    551.00     23.47
 80.57    574.00     23.96
 80.67    596.62     24.43
 80.77    674.38     25.97
 80.87    709.22     26.63
 80.97    693.88     26.34
 81.07    666.59     25.82
 81.17    752.00     27.42
 81.27    706.00     26.57
 81.37    721.00     26.85
 81.47    757.00     27.51
 81.57    792.00     28.14
 81.67    787.00     28.05
 81.77    720.04     26.83
 81.87    755.00     27.48
 81.97    675.22     25.99
 82.07    625.75     25.01
 82.17    618.71     24.87
 82.27    585.53     24.20
 82.37    630.00     25.10
 82.47    587.00     24.23
 82.57    575.76     24.00
 82.67    585.12     24.19
 82.77    559.00     23.64
 82.87    559.00     23.64
 82.97    540.00     23.24
 83.07    510.87     22.60
 83.17    532.00     23.07
 83.27    518.00     22.76
 83.37    536.00     23.15
 83.47    544.00     23.32
 83.57    566.00     23.79
 83.67    613.56     24.77
 83.77    581.00     24.10
 83.87    533.00     23.09
 83.97    548.00     23.41
 84.07    552.88     23.51
 84.17    573.00     23.94
 84.27    560.00     23.66
 84.37    526.12     22.94
 84.47    546.00     23.37
 84.57    506.00     22.49
 84.67    556.00     23.58
 84.77    557.85     23.62
 84.87    553.00     23.52
 84.97    560.00     23.66
 85.07    547.03     23.39
 85.17    547.00     23.39
 85.27    534.00     23.11
 85.37    521.00     22.83
 85.47    536.00     23.15
 85.57    492.00     22.18
 85.67    547.00     23.39
 85.77    547.00     23.39
 85.87    519.00     22.78
 85.97    581.00     24.10
 86.07    523.00     22.87
 86.17    491.97     22.18
 86.27    484.00     22.00
 86.37    482.00     21.95
 86.47    516.04     22.72
 86.57    545.31     23.35
 86.67    575.00     23.98
 86.77    589.32     24.28
 86.87    595.00     24.39
 86.97    592.00     24.33
 87.07    649.59     25.49
 87.17    647.00     25.44
 87.27    655.65     25.61
 87.37    625.00     25.00
 87.47    649.20     25.48
 87.57    624.00     24.98
 87.67    661.00     25.71
 87.77    647.00     25.44
 87.87    650.72     25.51
 87.97    603.00     24.56
 88.07    591.38     24.32
 88.17    556.00     23.58
 88.27    623.00     24.96
 88.37    574.00     23.96
 88.47    594.00     24.37
 88.57    561.49     23.70
 88.67    513.00     22.65
 88.77    572.00     23.92
 88.87    533.83     23.10
 88.97    539.62     23.23
 89.07    560.13     23.67
 89.17    582.00     24.12
 89.27    566.13     23.79
 89.37    597.00     24.43
 89.47    647.00     25.44
 89.57    574.00     23.96
 89.67    566.00     23.79
 89.77    614.00     24.78
 89.87    564.72     23.76
 89.97    571.00     23.90
 90.07    495.00     22.25
 90.17    552.85     23.51
 90.27    586.00     24.21
 90.37    546.00     23.37
 90.47    543.32     23.31
 90.57    543.00     23.30
 90.67    536.22     23.16
 90.77    513.00     22.65
 90.87    528.00     22.98
 90.97    498.59     22.33
 91.07    517.00     22.74
 91.17    510.00     22.58
 91.27    495.00     22.25
 91.37    501.00     22.38
 91.47    547.00     23.39
 91.57    545.00     23.35
 91.67    477.00     21.84
 91.77    547.80     23.41
 91.87    525.89     22.93
 91.97    597.92     24.45
 92.07    519.02     22.78
 92.17    572.00     23.92
 92.27    552.12     23.50
 92.37    561.00     23.69
 92.47    654.09     25.58
 92.57    669.09     25.87
 92.67    629.90     25.10
 92.77    668.72     25.86
 92.87    683.00     26.13
 92.97    715.00     26.74
 93.07    743.00     27.26
 93.17    722.72     26.88
 93.27    770.00     27.75
 93.37    792.00     28.14
 93.47    774.00     27.82
 93.57    800.00     28.28
 93.67    869.00     29.48
 93.77    815.33     28.55
 93.87    765.30     27.66
 93.97    843.00     29.03
 94.07    841.00     29.00
 94.17    853.10     29.21
 94.27    884.00     29.73
 94.37    854.00     29.22
 94.47    893.00     29.88
 94.57    964.00     31.05
 94.67    898.72     29.98
 94.77    907.00     30.12
 94.87    889.35     29.82
 94.97   1002.00     31.65
 95.07    907.00     30.12
 95.17    925.00     30.41
 95.27    831.00     28.83
 95.37    840.89     29.00
 95.47    771.29     27.77
 95.57    795.00     28.20
 95.67    762.00     27.60
 95.77    723.21     26.89
 95.87    666.47     25.82
 95.97    679.00     26.06
 96.07    649.11     25.48
 96.17    687.00     26.21
 96.27    688.50     26.24
 96.37    769.00     27.73
 96.47    762.40     27.61
 96.57    910.00     30.17
 96.67    890.00     29.83
 96.77   1008.00     31.75
 96.87   1075.00     32.79
 96.97   1150.27     33.92
 97.07   1154.00     33.97
 97.17   1235.50     35.15
 97.27   1358.00     36.85
 97.37   1431.92     37.84
 97.47   1386.00     37.23
 97.57   1405.00     37.48
 97.67   1432.00     37.84
 97.77   1441.41     37.97
 97.87   1380.00     37.15
 97.97   1306.10     36.14
 98.07   1272.50     35.67
 98.17   1182.03     34.38
 98.27   1137.49     33.73
 98.37   1042.00     32.28
 98.47    943.00     30.71
 98.57    883.00     29.72
 98.67    820.00     28.64
 98.77    804.00     28.35
 98.87    803.12     28.34
 98.97    756.75     27.51
 99.07    837.41     28.94
 99.17    853.00     29.21
 99.27    908.12     30.14
 99.37    900.00     30.00
 99.47    955.00     30.90
 99.57   1073.99     32.77
 99.67   1188.00     34.47
 99.77   1294.00     35.97
 99.87   1447.00     38.04
 99.97   1552.00     39.40
100.07   1628.00     40.35
100.17   1786.00     42.26
100.27   1799.13     42.42
100.37   1932.00     43.95
100.47   2045.02     45.22
100.57   2084.25     45.65
100.67   2128.00     46.13
100.77   2042.95     45.20
100.87   2079.00     45.60
100.97   2069.00     45.49
101.07   2021.16     44.96
101.17   1917.00     43.78
101.27   1831.00     42.79
101.37   1636.04     40.45
101.47   1580.00     39.75
101.57   1496.00     38.68
101.67   1473.00     38.38
101.77   1387.00     37.24
101.87   1276.00     35.72
101.97   1304.42     36.12
102.07   1230.00     35.07
102.17   1122.92     33.51
102.27   1200.00     34.64
102.37   1121.00     33.48
102.47   1060.00     32.56
102.57   1053.12     32.45
102.67   1037.00     32.20
102.77   1052.00     32.43
102.87    957.00     30.94
102.97   1030.20     32.10
103.07    933.16     30.55
103.17    834.00     28.88
103.27    872.00     29.53
103.37    801.40     28.31
103.47    830.00     28.81
103.57    780.00     27.93
103.67    657.12     25.63
103.77    718.00     26.80
103.87    628.00     25.06
103.97    613.75     24.77
104.07    611.00     24.72
104.17    588.00     24.25
104.27    535.75     23.15
104.37    587.00     24.23
104.47    560.00     23.66
104.57    523.00     22.87
104.67    580.00     24.08
104.77    555.00     23.56
104.87    556.00     23.58
104.97    599.00     24.47
105.07    568.00     23.83
105.17    580.00     24.08
105.27    558.00     23.62
105.37    530.00     23.02
105.47    497.33     22.30
105.57    554.00     23.54
105.67    563.00     23.73
105.77    543.00     23.30
105.87    569.00     23.85
105.97    580.97     24.10
106.07    616.39     24.83
106.17    551.00     23.47
106.27    611.90     24.74
106.37    602.00     24.54
106.47    555.00     23.56
106.57    678.69     26.05
106.67    608.15     24.66
106.77    617.00     24.84
106.87    636.24     25.22
106.97    662.00     25.73
107.07    709.00     26.63
107.17    650.00     25.50
107.27    706.00     26.57
107.37    659.00     25.67
107.47    716.00     26.76
107.57    744.00     27.28
107.67    664.48     25.78
107.77    730.79     27.03
107.87    724.86     26.92
107.97    665.13     25.79
108.07    684.00     26.15
108.17    701.00     26.48
108.27    683.00     26.13
108.37    656.21     25.62
108.47    695.00     26.36
108.57    643.00     25.36
108.67    668.64     25.86
108.77    702.00     26.50
108.87    703.00     26.51
108.97    740.36     27.21
109.07    649.00     25.48
109.17    645.00     25.40
109.27    634.00     25.18
109.37    687.00     26.21
109.47    661.00     25.71
109.57    606.00     24.62
109.67    698.00     26.42
109.77    595.67     24.41
109.87    608.00     24.66
109.97    643.00     25.36
110.07    608.00     24.66
110.17    557.00     23.60
110.27    560.00     23.66
110.37    553.00     23.52
110.47    530.00     23.02
110.57    540.00     23.24
110.67    545.00     23.35
110.77    550.00     23.45
110.87    588.18     24.25
110.97    571.61     23.91
111.07    567.00     23.81
111.17    518.59     22.77
111.27    560.00     23.66
111.37    545.20     23.35
111.47    531.00     23.04
111.57    547.11     23.39
111.67    536.27     23.16
111.77    528.00     22.98
111.87    523.01     22.87
111.97    597.31     24.44
112.07    605.00     24.60
112.17    587.40     24.24
112.27    580.00     24.08
112.37    586.00     24.21
112.47    609.00     24.68
112.57    572.44     23.93
112.67    576.00     24.00
112.77    614.00     24.78
112.87    604.55     24.59
112.97    647.00     25.44
113.07    679.00     26.06
113.17    697.90     26.42
113.27    705.00     26.55
113.37    758.00     27.53
113.47    790.88     28.12
113.57    788.00     28.07
113.67    823.09     28.69
113.77    873.00     29.55
113.87    882.00     29.70
113.97    931.00     30.51
114.07   1000.43     31.63
114.17   1013.66     31.84
114.27   1107.00     33.27
114.37   1201.57     34.66
114.47   1276.81     35.73
114.57   1349.47     36.74
114.67   1471.18     38.36
114.77   1637.17     40.46
114.87   1822.00     42.68
114.97   2066.00     45.45
115.07   2203.45     46.94
115.17   2434.07     49.34
115.27   2799.05     52.91
115.37   3177.00     56.36
115.47   3505.00     59.20
115.57   3746.51     61.21
115.67   4098.00     64.02
115.77   4441.00     66.64
115.87   4687.00     68.46
115.97   5171.00     71.91
116.07   5606.00     74.87
116.17   5925.00     76.97
116.27   6212.00     78.82
116.37   6562.00     81.01
116.47   6840.73     82.71
116.57   6968.00     83.47
116.67   6913.38     83.15
116.77   7097.00     84.24
116.87   7024.00     83.81
116.97   6613.00     81.32
117.07   6267.00     79.16
117.17   6052.00     77.79
117.27   5776.93     76.01
117.37   5389.58     73.41
117.47   4936.94     70.26
117.57   4617.00     67.95
117.67   4292.00     65.51
117.77   3946.87     62.82
117.87   3388.92     58.21
117.97   3295.00     57.40
118.07   3053.00     55.25
118.17   2631.00     51.29
118.27   2205.00     46.96
118.37   2012.00     44.86
118.47   1822.67     42.69
118.57   1579.00     39.74
118.67   1407.00     37.51
118.77   1291.34     35.94
118.87   1085.00     32.94
118.97   1100.80     33.18
119.07    970.00     31.14
119.17    891.00     29.85
119.27    827.34     28.76
119.37    849.00     29.14
119.47    759.00     27.55
119.57    702.00     26.50
119.67    702.70     26.51
119.77    640.73     25.31
119.87    676.92     26.02
119.97    609.00     24.68
120.07    615.00     24.80
120.17    590.00     24.29
120.27    559.00     23.64
120.37    580.00     24.08
120.47    573.00     23.94
120.57    613.00     24.76
120.67    627.29     25.05
120.77    574.00     23.96
120.87    596.00     24.41
120.97    572.00     23.92
121.07    619.69     24.89
121.17    566.00     23.79
121.27    557.00     23.60
121.37    596.07     24.41
121.47    555.82     23.58
121.57    593.00     24.35
121.67    637.00     25.24
121.77    590.00     24.29
121.87    563.00     23.73
121.97    555.00     23.56
122.07    650.28     25.50
122.17    622.81     24.96
122.27    611.00     24.72
122.37    623.00     24.96
122.47    625.00     25.00
122.57    678.40     26.05
122.67    666.77     25.82
122.77    638.15     25.26
122.87    658.44     25.66
122.97    667.00     25.83
123.07    654.52     25.58
123.17    648.00     25.46
123.27    619.44     24.89
123.37    675.00     25.98
123.47    650.14     25.50
123.57    659.00     25.67
123.67    638.00     25.26
123.77    674.00     25.96
123.87    626.00     25.02
123.97    583.43     24.15
124.07    570.14     23.88
124.17    626.00     25.02
124.27    642.04     25.34
124.37    587.46     24.24
124.47    550.55     23.46
124.57    561.00     23.69
124.67    600.07     24.50
124.77    567.00     23.81
124.87    546.31     23.37
124.97    553.00     23.52
