XYDATA



INTER 1.0 1.0 0 0
TEMP 1011.849
  9.97    590.00     24.29
 10.07    579.00     24.06
 10.17    578.78     24.06
 10.27    582.00     24.12
 10.37    570.52     23.89
 10.47    589.00     24.27
 10.57    628.00     25.06
 10.67    553.00     23.52
 10.77    571.43     23.90
 10.87    554.32     23.54
 10.97    576.00     24.00
 11.07    597.00     24.43
 11.17    535.00     23.13
 11.27    597.00     24.43
 11.37    540.55     23.25
 11.47    569.43     23.86
 11.57    608.68     24.67
 11.67    571.00     23.90
 11.77    560.84     23.68
 11.87    648.00     25.46
 11.97    589.87     24.29
 12.07    680.00     26.08
 12.17    678.95     26.06
 12.27    653.00     25.55
 12.37    665.00     25.79
 12.47    603.00     24.56
 12.57    633.17     25.16
 12.67    591.00     24.31
 12.77    584.00     24.17
 12.87    589.80     24.29
 12.97    600.06     24.50
 13.07    550.00     23.45
 13.17    544.97     23.34
 13.27    605.52     24.61
 13.37    574.53     23.97
 13.47    548.00     23.41
 13.57    575.00     23.98
 13.67    571.77     23.91
 13.77    542.00     23.28
 13.87    561.00     23.69
 13.97    577.70     24.04
 14.07    563.46     23.74
 14.17    570.00     23.87
 14.27    594.00     24.37
 14.37    571.00     23.90
 14.47    530.00     23.02
 14.57    569.41     23.86
 14.67    584.42     24.17
 14.77    594.61     24.38
 14.87    531.00     23.04
 14.97    608.00     24.66
 15.07    533.00     23.09
 15.17    527.14     22.96
 15.27    546.00     23.37
 15.37    560.77     23.68
 15.47    549.00     23.43
 15.57    551.53     23.48
 15.67    569.57     23.87
 15.77    562.53     23.72
 15.87    510.00     22.58
 15.97    536.00     23.15
 16.07    571.98     23.92
 16.17    553.28     23.52
 16.27    592.00     24.33
 16.37    592.00     24.33
 16.47    609.00     24.68
 16.57    538.00     23.19
 16.67    565.00     23.77
 16.77    578.00     24.04
 16.87    543.00     23.30
 16.97    577.98     24.04
 17.07    577.00     24.02
 17.17    539.00     23.22
 17.27    571.00     23.90
 17.37    536.31     23.16
 17.47    577.00     24.02
 17.57    557.00     23.60
 17.67    598.65     24.47
 17.77    559.00     23.64
 17.87    524.99     22.91
 17.97    586.03     24.21
 18.07    522.00     22.85
 18.17    564.80     23.77
 18.27    531.13     23.05
 18.37    605.75     24.61
 18.47    553.00     23.52
 18.57    580.65     24.10
 18.67    603.11     24.56
 18.77    553.00     23.52
 18.87    586.00     24.21
 18.97    545.00     23.35
 19.07    550.00     23.45
 19.17    572.62     23.93
 19.27    596.08     24.41
 19.37    527.00     22.96
 19.47    537.00     23.17
 19.57    497.00     22.29
 19.67    585.00     24.19
 19.77    560.00     23.66
 19.87    572.00     23.92
 19.97    521.00     22.83
 20.07    566.00     23.79
 20.17    593.48     24.36
 20.27    599.00     24.47
 20.37    523.48     22.88
 20.47    547.65     23.40
 20.57    551.00     23.47
 20.67    544.00     23.32
 20.77    521.79     22.84
 20.87    588.00     24.25
 20.97    585.29     24.19
 21.07    574.00     23.96
 21.17    575.00     23.98
 21.27    581.46     24.11
 21.37    571.76     23.91
 21.47    594.00     24.37
 21.57    525.16     22.92
 21.67    532.00     23.07
 21.77    552.64     23.51
 21.87    561.11     23.69
 21.97    554.11     23.54
 22.07    566.00     23.79
 22.17    551.18     23.48
 22.27    569.00     23.85
 22.37    572.00     23.92
 22.47    539.00     23.22
 22.57    597.00     24.43
 22.67    555.00     23.56
 22.77    542.66     23.30
 22.87    554.00     23.54
 22.97    573.00     23.94
 23.07    516.30     22.72
 23.17    522.00     22.85
 23.27    592.14     24.33
 23.37    569.00     23.85
 23.47    551.00     23.47
 23.57    548.00     23.41
 23.67    562.00     23.71
 23.77    574.00     23.96
 23.87    533.10     23.09
 23.97    562.00     23.71
 24.07    529.00     23.00
 24.17    599.18     24.48
 24.27    581.00     24.10
 24.37    596.00     24.41
 24.47    628.00     25.06
 24.57    629.00     25.08
 24.67    618.00     24.86
 24.77    601.00     24.52
 24.87    634.00     25.18
 24.97    584.00     24.17
 25.07    640.47     25.31
 25.17    564.00     23.75
 25.27    592.00     24.33
 25.37    565.00     23.77
 25.47    572.00     23.92
 25.57    543.00     23.30
 25.67    558.72     23.64
 25.77    597.00     24.43
 25.87    646.00     25.42
 25.97    507.41     22.53
 26.07    551.00     23.47
 26.17    535.00     23.13
 26.27    567.61     23.82
 26.37    539.00     23.22
 26.47    582.72     24.14
 26.57    504.00     22.45
 26.67    553.00     23.52
 26.77    544.00     23.32
 26.87    530.00     23.02
 26.97    551.00     23.47
 27.07    552.00     23.49
 27.17    527.48     22.97
 27.27    602.00     24.54
 27.37    549.00     23.43
 27.47    605.00     24.60
 27.57    551.00     23.47
 27.67    540.31     23.24
 27.77    595.00     24.39
 27.87    595.00     24.39
 27.97    622.54     24.95
 28.07    805.24     28.38
 28.17    897.00     29.95
 28.27    953.00     30.87
 28.37    890.00     29.83
 28.47    774.11     27.82
 28.57    761.71     27.60
 28.67    708.00     26.61
 28.77    745.00     27.29
 28.87    794.00     28.18
 28.97    785.72     28.03
 29.07    803.36     28.34
 29.17    700.00     26.46
 29.27    631.62     25.13
 29.37    639.78     25.29
 29.47    550.00     23.45
 29.57    577.00     24.02
 29.67    563.74     23.74
 29.77    520.62     22.82
 29.87    579.00     24.06
 29.97    581.00     24.10
 30.07    562.00     23.71
 30.17    537.00     23.17
 30.27    563.00     23.73
 30.37    547.00     23.39
 30.47    602.00     24.54
 30.57    571.00     23.90
 30.67    564.00     23.75
 30.77    558.00     23.62
 30.87    605.00     24.60
 30.97    636.00     25.22
 31.07    590.00     24.29
 31.17    597.15     24.44
 31.27    608.27     24.66
 31.37    534.87     23.13
 31.47    548.00     23.41
 31.57    544.00     23.32
 31.67    534.00     23.11
 31.77    524.00     22.89
 31.87    494.58     22.24
 31.97    510.00     22.58
 32.07    488.73     22.11
 32.17    550.00     23.45
 32.27    518.00     22.76
 32.37    519.00     22.78
 32.47    539.00     23.22
 32.57    536.00     23.15
 32.67    537.00     23.17
 32.77    542.00     23.28
 32.87    573.34     23.94
 32.97    546.00     23.37
 33.07    558.53     23.63
 33.17    591.00     24.31
 33.27    603.00     24.56
 33.37    535.00     23.13
 33.47    586.00     24.21
 33.57    601.71     24.53
 33.67    646.00     25.42
 33.77    683.00     26.13
 33.87    810.00     28.46
 33.97   1002.00     31.65
 34.07   1086.02     32.95
 34.17   1056.81     32.51
 34.27    901.00     30.02
 34.37    823.00     28.69
 34.47    653.00     25.55
 34.57    585.00     24.19
 34.67    613.05     24.76
 34.77    557.00     23.60
 34.87    564.00     23.75
 34.97    562.00     23.71
 35.07    545.00     23.35
 35.17    560.68     23.68
 35.27    524.62     22.90
 35.37    542.00     23.28
 35.47    529.00     23.00
 35.57    513.00     22.65
 35.67    516.00     22.72
 35.77    510.00     22.58
 35.87    509.00     22.56
 35.97    473.00     21.75
 36.07    490.78     22.15
 36.17    495.78     22.27
 36.27    490.10     22.14
 36.37    502.00     22.41
 36.47    510.00     22.58
 36.57    511.11     22.61
 36.67    498.00     22.32
 36.77    514.00     22.67
 36.87    509.00     22.56
 36.97    514.00     22.67
 37.07    503.42     22.44
 37.17    471.00     21.70
 37.27    506.00     22.49
 37.37    478.07     21.86
 37.47    474.00     21.77
 37.57    517.00     22.74
 37.67    503.00     22.43
 37.77    543.00     23.30
 37.87    537.91     23.19
 37.97    499.00     22.34
 38.07    537.00     23.17
 38.17    513.00     22.65
 38.27    507.94     22.54
 38.37    533.00     23.09
 38.47    497.67     22.31
 38.57    478.31     21.87
 38.67    564.00     23.75
 38.77    507.00     22.52
 38.87    481.69     21.95
 38.97    535.48     23.14
 39.07    513.29     22.66
 39.17    501.00     22.38
 39.27    531.72     23.06
 39.37    477.00     21.84
 39.47    511.11     22.61
 39.57    455.00     21.33
 39.67    532.86     23.08
 39.77    524.04     22.89
 39.87    504.00     22.45
 39.97    499.00     22.34
 40.07    492.38     22.19
 40.17    498.00     22.32
 40.27    480.00     21.91
 40.37    492.00     22.18
 40.47    514.71     22.69
 40.57    476.00     21.82
 40.67    488.00     22.09
 40.77    464.00     21.54
 40.87    490.00     22.14
 40.97    467.00     21.61
 41.07    502.00     22.41
 41.17    487.00     22.07
 41.27    470.00     21.68
 41.37    501.00     22.38
 41.47    487.60     22.08
 41.57    493.00     22.20
 41.67    490.14     22.14
 41.77    482.70     21.97
 41.87    468.64     21.65
 41.97    488.00     22.09
 42.07    509.00     22.56
 42.17    535.00     23.13
 42.27    508.00     22.54
 42.37    533.26     23.09
 42.47    533.68     23.10
 42.57    579.40     24.07
 42.67    550.00     23.45
 42.77    590.00     24.29
 42.87    641.18     25.32
 42.97    610.00     24.70
 43.07    565.82     23.79
 43.17    554.25     23.54
 43.27    524.00     22.89
 43.37    499.00     22.34
 43.47    521.00     22.83
 43.57    532.00     23.07
 43.67    509.00     22.56
 43.77    522.13     22.85
 43.87    535.92     23.15
 43.97    493.00     22.20
 44.07    494.00     22.23
 44.17    471.00     21.70
 44.27    511.99     22.63
 44.37    504.00     22.45
 44.47    495.81     22.27
 44.57    531.28     23.05
 44.67    507.00     22.52
 44.77    500.00     22.36
 44.87    495.65     22.26
 44.97    500.00     22.36
 45.07    498.00     22.32
 45.17    518.00     22.76
 45.27    535.00     23.13
 45.37    541.00     23.26
 45.47    492.24     22.19
 45.57    493.00     22.20
 45.67    486.00     22.05
 45.77    499.78     22.36
 45.87    508.00     22.54
 45.97    506.00     22.49
 46.07    439.00     20.95
 46.17    506.00     22.49
 46.27    500.00     22.36
 46.37    466.38     21.60
 46.47    492.63     22.20
 46.57    470.22     21.68
 46.67    500.37     22.37
 46.77    496.00     22.27
 46.87    465.00     21.56
 46.97    490.00     22.14
 47.07    487.30     22.07
 47.17    516.00     22.72
 47.27    525.00     22.91
 47.37    520.00     22.80
 47.47    543.00     23.30
 47.57    553.00     23.52
 47.67    553.09     23.52
 47.77    598.00     24.45
 47.87    547.00     23.39
 47.97    611.00     24.72
 48.07    628.00     25.06
 48.17    604.31     24.58
 48.27    549.00     23.43
 48.37    554.52     23.55
 48.47    572.01     23.92
 48.57    528.00     22.98
 48.67    555.00     23.56
 48.77    497.07     22.30
 48.87    527.00     22.96
 48.97    548.00     23.41
 49.07    544.00     23.32
 49.17    543.44     23.31
 49.27    578.00     24.04
 49.37    614.00     24.78
 49.47    639.68     25.29
 49.57    688.97     26.25
 49.67    853.00     29.21
 49.77   1036.00     32.19
 49.87   1343.00     36.65
 49.97   1719.00     41.46
 50.07   2050.15     45.28
 50.17   2373.00     48.71
 50.27   2372.00     48.70
 50.37   2307.93     48.04
 50.47   1893.38     43.51
 50.57   1506.78     38.82
 50.67   1180.20     34.35
 50.77    922.58     30.37
 50.87    795.90     28.21
 50.97    691.00     26.29
 51.07    624.00     24.98
 51.17    623.85     24.98
 51.27    561.98     23.71
 51.37    599.00     24.47
 51.47    631.00     25.12
 51.57    581.00     24.10
 51.67    577.00     24.02
 51.77    551.00     23.47
 51.87    564.50     23.76
 51.97    564.00     23.75
 52.07    492.08     22.18
 52.17    566.89     23.81
 52.27    552.85     23.51
 52.37    498.42     22.33
 52.47    587.00     24.23
 52.57    578.00     24.04
 52.67    563.00     23.73
 52.77    615.85     24.82
 52.87    607.00     24.64
 52.97    713.46     26.71
 53.07    829.00     28.79
 53.17    824.07     28.71
 53.27    998.61     31.60
 53.37   1095.64     33.10
 53.47   1187.00     34.45
 53.57   1162.41     34.09
 53.67   1086.00     32.95
 53.77    980.00     31.30
 53.87    903.42     30.06
 53.97    778.06     27.89
 54.07    725.00     26.93
 54.17    649.00     25.48
 54.27    595.00     24.39
 54.37    595.34     24.40
 54.47    604.36     24.58
 54.57    521.00     22.83
 54.67    511.58     22.62
 54.77    579.00     24.06
 54.87    576.00     24.00
 54.97    570.23     23.88
 55.07    536.90     23.17
 55.17    598.00     24.45
 55.27    573.00     23.94
 55.37    560.00     23.66
 55.47    582.00     24.12
 55.57    602.62     24.55
 55.67    611.00     24.72
 55.77    543.00     23.30
 55.87    576.00     24.00
 55.97    666.00     25.81
 56.07    710.43     26.65
 56.17    778.42     27.90
 56.27    850.00     29.15
 56.37   1078.00     32.83
 56.47   1316.00     36.28
 56.57   1688.00     41.09
 56.67   2022.95     44.98
 56.77   2276.00     47.71
 56.87   2483.00     49.83
 56.97   2596.00     50.95
 57.07   2488.00     49.88
 57.17   2094.00     45.76
 57.27   1815.00     42.60
 57.37   1479.54     38.46
 57.47   1211.00     34.80
 57.57   1055.00     32.48
 57.67    831.00     28.83
 57.77    759.00     27.55
 57.87    735.00     27.11
 57.97    680.00     26.08
 58.07    702.00     26.50
 58.17    719.06     26.82
 58.27    731.03     27.04
 58.37    768.65     27.72
 58.47    848.00     29.12
 58.57    921.09     30.35
 58.67   1061.34     32.58
 58.77   1134.00     33.67
 58.87   1183.00     34.39
 58.97   1316.00     36.28
 59.07   1272.73     35.68
 59.17   1324.48     36.39
 59.27   1328.00     36.44
 59.37   1312.00     36.22
 59.47   1185.00     34.42
 59.57   1220.00     34.93
 59.67   1155.00     33.99
 59.77   1150.49     33.92
 59.87   1172.00     34.23
 59.97   1314.00     36.25
 60.07   1369.00     37.00
 60.17   1487.00     38.56
 60.27   1537.26     39.21
 60.37   1556.42     39.45
 60.47   1424.00     37.74
 60.57   1262.29     35.53
 60.67   1181.99     34.38
 60.77    971.79     31.17
 60.87    813.00     28.51
 60.97    726.00     26.94
 61.07    639.00     25.28
 61.17    630.00     25.10
 61.27    721.00     26.85
 61.37    692.96     26.32
 61.47    656.00     25.61
 61.57    739.00     27.18
 61.67    810.00     28.46
 61.77    948.69     30.80
 61.87   1074.00     32.77
 61.97   1262.56     35.53
 62.07   1344.00     36.66
 62.17   1375.00     37.08
 62.27   1274.00     35.69
 62.37   1411.68     37.57
 62.47   1163.00     34.10
 62.57   1035.00     32.17
 62.67    962.00     31.02
 62.77    799.00     28.27
 62.87    759.28     27.55
 62.97    646.00     25.42
 63.07    613.00     24.76
 63.17    603.00     24.56
 63.27    605.40     24.60
 63.37    618.00     24.86
 63.47    591.00     24.31
 63.57    588.00     24.25
 63.67    563.00     23.73
 63.77    578.00     24.04
 63.87    640.68     25.31
 63.97    699.00     26.44
 64.07    697.41     26.41
 64.17    730.00     27.02
 64.27    823.00     28.69
 64.37    870.00     29.50
 64.47    902.95     30.05
 64.57    996.39     31.57
 64.67   1053.00     32.45
 64.77   1020.00     31.94
 64.87    949.00     30.81
 64.97    900.20     30.00
 65.07    838.00     28.95
 65.17    827.00     28.76
 65.27    732.00     27.06
 65.37    689.00     26.25
 65.47    665.07     25.79
 65.57    612.00     24.74
 65.67    630.25     25.10
 65.77    601.00     24.52
 65.87    545.67     23.36
 65.97    551.92     23.49
 66.07    526.00     22.93
 66.17    538.00     23.19
 66.27    518.00     22.76
 66.37    534.00     23.11
 66.47    535.84     23.15
 66.57    580.00     24.08
 66.67    563.21     23.73
 66.77    559.27     23.65
 66.87    586.00     24.21
 66.97    566.63     23.80
 67.07    634.60     25.19
 67.17    723.30     26.89
 67.27    808.39     28.43
 67.37    872.00     29.53
 67.47    958.00     30.95
 67.57   1180.11     34.35
 67.67   1388.00     37.26
 67.77   1706.00     41.30
 67.87   1977.00     44.46
 67.97   2196.00     46.86
 68.07   2384.00     48.83
 68.17   2474.00     49.74
 68.27   2333.00     48.30
 68.37   2169.00     46.57
 68.47   2003.00     44.75
 68.57   1692.94     41.15
 68.67   1377.00     37.11
 68.77   1153.00     33.96
 68.87    944.00     30.72
 68.97    811.00     28.48
 69.07    698.54     26.43
 69.17    677.41     26.03
 69.27    675.00     25.98
 69.37    607.58     24.65
 69.47    608.00     24.66
 69.57    603.00     24.56
 69.67    580.00     24.08
 69.77    553.00     23.52
 69.87    587.37     24.24
 69.97    571.00     23.90
 70.07    588.97     24.27
 70.17    598.56     24.47
 70.27    575.00     23.98
 70.37    610.00     24.70
 70.47    552.00     23.49
 70.57    609.71     24.69
 70.67    539.00     23.22
 70.77    646.00     25.42
 70.87    596.55     24.42
 70.97    652.00     25.53
 71.07    679.00     26.06
 71.17    685.00     26.17
 71.27    854.00     29.22
 71.37    901.00     30.02
 71.47   1025.00     32.02
 71.57   1163.00     34.10
 71.67   1402.00     37.44
 71.77   1623.93     40.30
 71.87   1657.97     40.72
 71.97   1826.00     42.73
 72.07   1891.00     43.49
 72.17   1854.25     43.06
 72.27   1742.59     41.74
 72.37   1691.00     41.12
 72.47   1488.00     38.57
 72.57   1363.00     36.92
 72.67   1184.00     34.41
 72.77   1026.00     32.03
 72.87    909.01     30.15
 72.97    825.00     28.72
 73.07    802.09     28.32
 73.17    708.63     26.62
 73.27    674.60     25.97
 73.37    613.00     24.76
 73.47    680.65     26.09
 73.57    604.84     24.59
 73.67    664.00     25.77
 73.77    583.86     24.16
 73.87    599.74     24.49
 73.97    604.00     24.58
 74.07    611.32     24.72
 74.17    616.00     24.82
 74.27    597.00     24.43
 74.37    586.00     24.21
 74.47    589.00     24.27
 74.57    549.83     23.45
 74.67    576.66     24.01
 74.77    613.00     24.76
 74.87    613.00     24.76
 74.97    536.03     23.15
 75.07    581.00     24.10
 75.17    581.00     24.10
 75.27    591.00     24.31
 75.37    580.00     24.08
 75.47    571.00     23.90
 75.57    582.00     24.12
 75.67    565.57     23.78
 75.77    600.00     24.49
 75.87    611.00     24.72
 75.97    568.00     23.83
 76.07    611.00     24.72
 76.17    624.00     24.98
 76.27    614.79     24.79
 76.37    699.00     26.44
 76.47    668.52     25.86
 76.57    736.00     27.13
 76.67    700.00     26.46
 76.77    674.00     25.96
 76.87    692.00     26.31
 76.97    648.00     25.46
 77.07    668.88     25.86
 77.17    647.54     25.45
 77.27    619.00     24.88
 77.37    569.00     23.85
 77.47    529.00     23.00
 77.57    527.00     22.96
 77.67    490.00     22.14
 77.77    507.00     22.52
 77.87    536.00     23.15
 77.97    502.00     22.41
 78.07    516.95     22.74
 78.17    493.00     22.20
 78.27    501.00     22.38
 78.37    538.21     23.20
 78.47    535.49     23.14
 78.57    488.80     22.11
 78.67    496.53     22.28
 78.77    477.00     21.84
 78.87    507.00     22.52
 78.97    555.45     23.57
 79.07    507.00     22.52
 79.17    480.88     21.93
 79.27    497.00     22.29
 79.37    490.00     22.14
 79.47    558.15     23.63
 79.57    497.00     22.29
 79.67    525.07     22.91
 79.77    542.00     23.28
 79.87    512.00     22.63
 79.97    521.05     22.83
 80.07    527.00     22.96
 80.17    575.00     23.98
 80.27    588.04     24.25
 80.37    552.00     23.49
 80.47    600.00     24.49
 80.57    637.71     25.25
 80.67    637.00     25.24
 80.77    633.95     25.18
 80.87    648.00     25.46
 80.97    721.00     26.85
 81.07    694.00     26.34
 81.17    665.00     25.79
 81.27    718.00     26.80
 81.37    752.57     27.43
 81.47    749.05     27.37
 81.57    771.00     27.77
 81.67    707.00     26.59
 81.77    768.18     27.72
 81.87    696.59     26.39
 81.97    743.00     27.26
 82.07    681.00     26.10
 82.17    627.00     25.04
 82.27    647.00     25.44
 82.37    592.47     24.34
 82.47    581.46     24.11
 82.57    613.00     24.76
 82.67    555.00     23.56
 82.77    555.00     23.56
 82.87    598.50     24.46
 82.97    540.00     23.24
 83.07    580.40     24.09
 83.17    556.00     23.58
 83.27    507.53     22.53
 83.37    531.88     23.06
 83.47    576.12     24.00
 83.57    563.00     23.73
 83.67    531.63     23.06
 83.77    510.00     22.58
 83.87    560.00     23.66
 83.97    551.00     23.47
 84.07    569.20     23.86
 84.17    594.78     24.39
 84.27    543.00     23.30
 84.37    559.00     23.64
 84.47    517.64     22.75
 84.57    557.00     23.60
 84.67    547.00     23.39
 84.77    511.00     22.61
 84.87    538.00     23.19
 84.97    555.96     23.58
 85.07    531.00     23.04
 85.17    489.00     22.11
 85.27    520.70     22.82
 85.37    489.58     22.13
 85.47    476.85     21.84
 85.57    543.32     23.31
 85.67    486.00     22.05
 85.77    510.00     22.58
 85.87    539.00     23.22
 85.97    511.00     22.61
 86.07    528.00     22.98
 86.17    537.00     23.17
 86.27    540.00     23.24
 86.37    536.00     23.15
 86.47    563.00     23.73
 86.57    556.00     23.58
 86.67    566.00     23.79
 86.77    522.00     22.85
 86.87    543.00     23.30
 86.97    561.47     23.70
 87.07    593.26     24.36
 87.17    572.00     23.92
 87.27    669.00     25.87
 87.37    618.00     24.86
 87.47    628.00     25.06
 87.57    615.00     24.80
 87.67    647.00     25.44
 87.77    622.51     24.95
 87.87    658.00     25.65
 87.97    582.62     24.14
 88.07    616.00     24.82
 88.17    563.96     23.75
 88.27    621.00     24.92
 88.37    602.95     24.56
 88.47    520.78     22.82
 88.57    557.00     23.60
 88.67    602.00     24.54
 88.77    561.00     23.69
 88.87    643.00     25.36
 88.97    573.00     23.94
 89.07    568.02     23.83
 89.17    585.00     24.19
 89.27    605.95     24.62
 89.37    627.00     25.04
 89.47    603.04     24.56
 89.57    592.00     24.33
 89.67    548.00     23.41
 89.77    617.04     24.84
 89.87    560.00     23.66
 89.97    578.00     24.04
 90.07    559.00     23.64
 90.17    549.58     23.44
 90.27    576.84     24.02
 90.37    502.02     22.41
 90.47    533.00     23.09
 90.57    535.00     23.13
 90.67    508.00     22.54
 90.77    485.00     22.02
 90.87    552.00     23.49
 90.97    559.99     23.66
 91.07    529.98     23.02
 91.17    500.00     22.36
 91.27    481.68     21.95
 91.37    527.31     22.96
 91.47    551.00     23.47
 91.57    505.27     22.48
 91.67    520.00     22.80
 91.77    509.00     22.56
 91.87    509.61     22.57
 91.97    561.25     23.69
 92.07    561.00     23.69
 92.17    524.00     22.89
 92.27    633.00     25.16
 92.37    617.60     24.85
 92.47    622.42     24.95
 92.57    607.00     24.64
 92.67    694.00     26.34
 92.77    684.68     26.17
 92.87    674.00     25.96
 92.97    658.35     25.66
 93.07    723.00     26.89
 93.17    710.00     26.65
 93.27    754.00     27.46
 93.37    731.53     27.05
 93.47    724.92     26.92
 93.57    741.42     27.23
 93.67    762.00     27.60
 93.77    806.96     28.41
 93.87    768.00     27.71
 93.97    806.00     28.39
 94.07    878.00     29.63
 94.17    872.00     29.53
 94.27    853.50     29.21
 94.37    882.52     29.71
 94.47    869.78     29.49
 94.57    915.00     30.25
 94.67    906.00     30.10
 94.77    925.47     30.42
 94.87    934.00     30.56
 94.97    906.29     30.10
 95.07    895.00     29.92
 95.17    871.51     29.52
 95.27    860.00     29.33
 95.37    788.00     28.07
 95.47    781.00     27.95
 95.57    760.61     27.58
 95.67    792.00     28.14
 95.77    755.00     27.48
 95.87    723.28     26.89
 95.97    719.00     26.81
 96.07    666.00     25.81
 96.17    720.17     26.84
 96.27    754.00     27.46
 96.37    788.34     28.08
 96.47    818.00     28.60
 96.57    788.23     28.08
 96.67    948.20     30.79
 96.77    964.00     31.05
 96.87   1045.00     32.33
 96.97   1063.00     32.60
 97.07   1151.30     33.93
 97.17   1309.28     36.18
 97.27   1273.81     35.69
 97.37   1337.27     36.57
 97.47   1413.90     37.60
 97.57   1496.00     38.68
 97.67   1383.70     37.20
 97.77   1408.00     37.52
 97.87   1328.93     36.45
 97.97   1285.80     35.86
 98.07   1332.76     36.51
 98.17   1257.39     35.46
 98.27   1156.00     34.00
 98.37   1116.00     33.41
 98.47   1000.00     31.62
 98.57    932.54     30.54
 98.67    920.00     30.33
 98.77    851.00     29.17
 98.87    867.77     29.46
 98.97    817.00     28.58
 99.07    828.00     28.77
 99.17    807.00     28.41
 99.27    924.93     30.41
 99.37    966.34     31.09
 99.47    964.00     31.05
 99.57   1050.11     32.41
 99.67   1115.00     33.39
 99.77   1239.00     35.20
 99.87   1333.00     36.51
 99.97   1519.00     38.97
100.07   1610.00     40.12
100.17   1629.00     40.36
100.27   1748.00     41.81
100.37   1853.00     43.05
100.47   1814.00     42.59
100.57   1908.00     43.68
100.67   2007.88     44.81
100.77   1940.92     44.06
100.87   2035.00     45.11
100.97   1955.33     44.22
101.07   1953.65     44.20
101.17   1813.59     42.59
101.27   1836.44     42.85
101.37   1722.00     41.50
101.47   1634.00     40.42
101.57   1572.00     39.65
101.67   1471.62     38.36
101.77   1406.00     37.50
101.87   1329.20     36.46
101.97   1265.15     35.57
102.07   1220.00     34.93
102.17   1184.00     34.41
102.27   1164.00     34.12
102.37   1187.20     34.46
102.47   1088.00     32.98
102.57   1095.61     33.10
102.67   1111.00     33.33
102.77   1012.41     31.82
102.87   1060.07     32.56
102.97   1026.00     32.03
103.07   1014.40     31.85
103.17    896.00     29.93
103.27    910.19     30.17
103.37    846.00     29.09
103.47    778.30     27.90
103.57    781.58     27.96
103.67    723.00     26.89
103.77    652.00     25.53
103.87    697.76     26.42
103.97    663.00     25.75
104.07    623.97     24.98
104.17    587.23     24.23
104.27    544.13     23.33
104.37    598.00     24.45
104.47    577.00     24.02
104.57    508.83     22.56
104.67    568.47     23.84
104.77    563.00     23.73
104.87    585.00     24.19
104.97    574.00     23.96
105.07    502.60     22.42
105.17    524.07     22.89
105.27    490.00     22.14
105.37    588.00     24.25
105.47    576.00     24.00
105.57    562.00     23.71
105.67    548.00     23.41
105.77    528.00     22.98
105.87    537.60     23.19
105.97    574.00     23.96
106.07    554.91     23.56
106.17    602.14     24.54
106.27    584.00     24.17
106.37    606.00     24.62
106.47    632.00     25.14
106.57    639.68     25.29
106.67    605.00     24.60
106.77    612.00     24.74
106.87    666.09     25.81
106.97    644.00     25.38
107.07    700.88     26.47
107.17    649.00     25.48
107.27    662.00     25.73
107.37    665.00     25.79
107.47    748.00     27.35
107.57    635.00     25.20
107.67    708.61     26.62
107.77    740.28     27.21
107.87    669.71     25.88
107.97    674.00     25.96
108.07    664.72     25.78
108.17    645.00     25.40
108.27    661.00     25.71
108.37    653.00     25.55
108.47    663.00     25.75
108.57    658.00     25.65
108.67    670.00     25.88
108.77    665.91     25.81
108.87    715.00     26.74
108.97    680.00     26.08
109.07    734.00     27.09
109.17    689.00     26.25
109.27    696.25     26.39
109.37    612.00     24.74
109.47    652.00     25.53
109.57    606.41     24.63
109.67    601.00     24.52
109.77    653.00     25.55
109.87    643.00     25.36
109.97    621.37     24.93
110.07    622.00     24.94
110.17    602.34     24.54
110.27    597.00     24.43
110.37    587.61     24.24
110.47    536.58     23.16
110.57    573.35     23.94
110.67    583.00     24.15
110.77    538.00     23.19
110.87    593.00     24.35
110.97    496.64     22.29
111.07    567.04     23.81
111.17    534.00     23.11
111.27    505.43     22.48
111.37    501.80     22.40
111.47    513.00     22.65
111.57    520.41     22.81
111.67    551.00     23.47
111.77    530.00     23.02
111.87    572.65     23.93
111.97    544.46     23.33
112.07    546.00     23.37
112.17    595.00     24.39
112.27    545.00     23.35
112.37    571.00     23.90
112.47    575.00     23.98
112.57    580.00     24.08
112.67    627.00     25.04
112.77    628.68     25.07
112.87    576.59     24.01
112.97    583.00     24.15
113.07    575.00     23.98
113.17    636.09     25.22
113.27    681.95     26.11
113.37    626.00     25.02
113.47    658.00     25.65
113.57    713.00     26.70
113.67    671.00     25.90
113.77    742.03     27.24
113.87    767.81     27.71
113.97    714.00     26.72
114.07    852.17     29.19
114.17    852.00     29.19
114.27    925.00     30.41
114.37   1022.00     31.97
114.47   1113.00     33.36
114.57   1143.00     33.81
114.67   1353.82     36.79
114.77   1456.00     38.16
114.87   1704.00     41.28
114.97   1850.11     43.01
115.07   2103.00     45.86
115.17   2352.00     48.50
115.27   2638.00     51.36
115.37   2860.00     53.48
115.47   3218.84     56.73
115.57   3491.00     59.08
115.67   3806.00     61.69
115.77   4149.01     64.41
115.87   4499.72     67.08
115.97   4881.00     69.86
116.07   5262.39     72.54
116.17   5568.00     74.62
116.27   5924.00     76.97
116.37   6336.00     79.60
116.47   6577.00     81.10
116.57   6686.80     81.77
116.67   6651.66     81.56
116.77   6920.00     83.19
116.87   6825.06     82.61
116.97   6731.00     82.04
117.07   6603.56     81.26
117.17   6236.00     78.97
117.27   6097.56     78.09
117.37   5751.90     75.84
117.47   5252.00     72.47
117.57   5054.08     71.09
117.67   4689.00     68.48
117.77   4288.00     65.48
117.87   3896.30     62.42
117.97   3472.71     58.93
118.07   3156.00     56.18
118.17   2921.00     54.05
118.27   2724.00     52.19
118.37   2261.00     47.55
118.47   1975.00     44.44
118.57   1813.00     42.58
118.67   1640.00     40.50
118.77   1546.30     39.32
118.87   1339.82     36.60
118.97   1182.00     34.38
119.07   1114.00     33.38
119.17   1021.00     31.95
119.27    899.00     29.98
119.37    835.91     28.91
119.47    833.28     28.87
119.57    821.00     28.65
119.67    744.00     27.28
119.77    699.00     26.44
119.87    735.00     27.11
119.97    652.00     25.53
120.07    655.59     25.60
120.17    601.49     24.53
120.27    580.00     24.08
120.37    595.00     24.39
120.47    566.00     23.79
120.57    550.00     23.45
120.67    604.00     24.58
120.77    585.00     24.19
120.87    554.00     23.54
120.97    548.00     23.41
121.07    577.00     24.02
121.17    583.00     24.15
121.27    583.56     24.16
121.37    580.88     24.10
121.47    602.80     24.55
121.57    560.00     23.66
121.67    616.68     24.83
121.77    585.34     24.19
121.87    612.99     24.76
121.97    619.00     24.88
122.07    600.00     24.49
122.17    602.32     24.54
122.27    619.00     24.88
122.37    650.60     25.51
122.47    631.00     25.12
122.57    598.00     24.45
122.67    606.00     24.62
122.77    635.70     25.21
122.87    667.00     25.83
122.97    648.00     25.46
123.07    663.00     25.75
123.17    635.00     25.20
123.27    595.87     24.41
123.37    664.05     25.77
123.47    622.20     24.94
123.57    679.00     26.06
123.67    662.00     25.73
123.77    640.00     25.30
123.87    609.00     24.68
123.97    631.00     25.12
124.07    615.68     24.81
124.17    590.55     24.30
124.27    621.00     24.92
124.37    574.02     23.96
124.47    638.00     25.26
124.57    607.00     24.64
124.67    639.00     25.28
124.77    615.36     24.81
124.87    617.06     24.84
124.97    585.86     24.20
