XYDATA



INTER 1.0 1.0 0 0
TEMP 1074.0
  9.97    606.00     24.62
 10.07    616.00     24.82
 10.17    580.52     24.09
 10.27    616.00     24.82
 10.37    580.00     24.08
 10.47    535.00     23.13
 10.57    601.00     24.52
 10.67    572.84     23.93
 10.77    560.00     23.66
 10.87    532.10     23.07
 10.97    579.00     24.06
 11.07    605.00     24.60
 11.17    533.49     23.10
 11.27    593.00     24.35
 11.37    600.00     24.49
 11.47    555.00     23.56
 11.57    604.00     24.58
 11.67    569.14     23.86
 11.77    634.00     25.18
 11.87    655.00     25.59
 11.97    626.84     25.04
 12.07    659.00     25.67
 12.17    699.00     26.44
 12.27    683.52     26.14
 12.37    667.00     25.83
 12.47    644.00     25.38
 12.57    591.00     24.31
 12.67    531.00     23.04
 12.77    578.69     24.06
 12.87    552.00     23.49
 12.97    561.00     23.69
 13.07    596.00     24.41
 13.17    547.00     23.39
 13.27    618.22     24.86
 13.37    549.40     23.44
 13.47    527.33     22.96
 13.57    528.29     22.98
 13.67    566.00     23.79
 13.77    576.49     24.01
 13.87    533.66     23.10
 13.97    602.00     24.54
 14.07    579.00     24.06
 14.17    561.00     23.69
 14.27    524.00     22.89
 14.37    599.30     24.48
 14.47    552.00     23.49
 14.57    564.00     23.75
 14.67    537.00     23.17
 14.77    580.00     24.08
 14.87    517.00     22.74
 14.97    598.26     24.46
 15.07    595.88     24.41
 15.17    533.00     23.09
 15.27    548.22     23.41
 15.37    550.00     23.45
 15.47    561.86     23.70
 15.57    589.00     24.27
 15.67    521.59     22.84
 15.77    528.00     22.98
 15.87    591.00     24.31
 15.97    598.00     24.45
 16.07    566.01     23.79
 16.17    575.00     23.98
 16.27    556.00     23.58
 16.37    606.00     24.62
 16.47    542.00     23.28
 16.57    571.59     23.91
 16.67    532.00     23.07
 16.77    579.00     24.06
 16.87    563.00     23.73
 16.97    539.00     23.22
 17.07    603.00     24.56
 17.17    662.00     25.73
 17.27    566.45     23.80
 17.37    591.00     24.31
 17.47    534.00     23.11
 17.57    584.85     24.18
 17.67    555.00     23.56
 17.77    576.39     24.01
 17.87    535.00     23.13
 17.97    580.34     24.09
 18.07    563.00     23.73
 18.17    583.09     24.15
 18.27    539.00     23.22
 18.37    546.00     23.37
 18.47    573.00     23.94
 18.57    595.00     24.39
 18.67    575.00     23.98
 18.77    587.94     24.25
 18.87    602.00     24.54
 18.97    523.26     22.87
 19.07    536.37     23.16
 19.17    561.00     23.69
 19.27    536.00     23.15
 19.37    594.52     24.38
 19.47    590.00     24.29
 19.57    527.00     22.96
 19.67    558.00     23.62
 19.77    596.00     24.41
 19.87    541.00     23.26
 19.97    603.10     24.56
 20.07    577.83     24.04
 20.17    552.32     23.50
 20.27    584.75     24.18
 20.37    535.13     23.13
 20.47    568.47     23.84
 20.57    570.00     23.87
 20.67    560.00     23.66
 20.77    478.00     21.86
 20.87    542.00     23.28
 20.97    566.59     23.80
 21.07    548.04     23.41
 21.17    556.00     23.58
 21.27    535.00     23.13
 21.37    524.00     22.89
 21.47    540.04     23.24
 21.57    564.00     23.75
 21.67    591.78     24.33
 21.77    527.00     22.96
 21.87    575.00     23.98
 21.97    542.76     23.30
 22.07    519.00     22.78
 22.17    557.00     23.60
 22.27    548.00     23.41
 22.37    555.00     23.56
 22.47    564.00     23.75
 22.57    537.00     23.17
 22.67    576.96     24.02
 22.77    515.26     22.70
 22.87    561.00     23.69
 22.97    571.00     23.90
 23.07    541.00     23.26
 23.17    560.00     23.66
 23.27    525.65     22.93
 23.37    507.00     22.52
 23.47    563.00     23.73
 23.57    561.00     23.69
 23.67    555.17     23.56
 23.77    536.00     23.15
 23.87    508.51     22.55
 23.97    555.16     23.56
 24.07    551.00     23.47
 24.17    546.00     23.37
 24.27    537.00     23.17
 24.37    601.39     24.52
 24.47    561.00     23.69
 24.57    561.54     23.70
 24.67    648.28     25.46
 24.77    653.08     25.56
 24.87    673.92     25.96
 24.97    642.00     25.34
 25.07    583.00     24.15
 25.17    563.00     23.73
 25.27    602.62     24.55
 25.37    601.00     24.52
 25.47    498.00     22.32
 25.57    539.00     23.22
 25.67    555.00     23.56
 25.77    509.80     22.58
 25.87    507.31     22.52
 25.97    524.00     22.89
 26.07    577.00     24.02
 26.17    544.00     23.32
 26.27    556.00     23.58
 26.37    535.24     23.14
 26.47    511.59     22.62
 26.57    571.39     23.90
 26.67    567.01     23.81
 26.77    522.75     22.86
 26.87    534.00     23.11
 26.97    547.42     23.40
 27.07    571.94     23.92
 27.17    586.65     24.22
 27.27    522.97     22.87
 27.37    547.00     23.39
 27.47    569.00     23.85
 27.57    590.71     24.30
 27.67    574.00     23.96
 27.77    583.13     24.15
 27.87    626.92     25.04
 27.97    705.22     26.56
 28.07    832.00     28.84
 28.17    899.00     29.98
 28.27    971.00     31.16
 28.37    881.00     29.68
 28.47    763.70     27.64
 28.57    704.00     26.53
 28.67    710.67     26.66
 28.77    744.00     27.28
 28.87    844.43     29.06
 28.97    795.36     28.20
 29.07    763.00     27.62
 29.17    707.00     26.59
 29.27    690.95     26.29
 29.37    574.00     23.96
 29.47    594.00     24.37
 29.57    615.00     24.80
 29.67    629.00     25.08
 29.77    636.00     25.22
 29.87    618.00     24.86
 29.97    584.00     24.17
 30.07    572.00     23.92
 30.17    550.00     23.45
 30.27    573.00     23.94
 30.37    525.00     22.91
 30.47    567.00     23.81
 30.57    567.24     23.82
 30.67    592.15     24.33
 30.77    556.08     23.58
 30.87    591.00     24.31
 30.97    608.00     24.66
 31.07    620.00     24.90
 31.17    574.00     23.96
 31.27    528.32     22.99
 31.37    525.00     22.91
 31.47    552.00     23.49
 31.57    515.27     22.70
 31.67    528.00     22.98
 31.77    499.53     22.35
 31.87    484.00     22.00
 31.97    511.00     22.61
 32.07    532.99     23.09
 32.17    488.50     22.10
 32.27    504.00     22.45
 32.37    536.00     23.15
 32.47    574.00     23.96
 32.57    575.00     23.98
 32.67    494.37     22.23
 32.77    570.00     23.87
 32.87    539.00     23.22
 32.97    554.00     23.54
 33.07    563.86     23.75
 33.17    498.33     22.32
 33.27    562.31     23.71
 33.37    568.00     23.83
 33.47    545.31     23.35
 33.57    596.00     24.41
 33.67    603.61     24.57
 33.77    768.00     27.71
 33.87    904.25     30.07
 33.97    984.24     31.37
 34.07   1051.00     32.42
 34.17   1014.00     31.84
 34.27    911.00     30.18
 34.37    757.00     27.51
 34.47    637.00     25.24
 34.57    572.00     23.92
 34.67    567.00     23.81
 34.77    579.08     24.06
 34.87    564.00     23.75
 34.97    506.00     22.49
 35.07    550.00     23.45
 35.17    518.00     22.76
 35.27    504.00     22.45
 35.37    482.02     21.95
 35.47    544.00     23.32
 35.57    527.00     22.96
 35.67    494.63     22.24
 35.77    474.00     21.77
 35.87    522.00     22.85
 35.97    519.00     22.78
 36.07    504.00     22.45
 36.17    556.37     23.59
 36.27    543.00     23.30
 36.37    527.37     22.96
 36.47    530.00     23.02
 36.57    528.84     23.00
 36.67    529.52     23.01
 36.77    480.27     21.92
 36.87    518.00     22.76
 36.97    526.02     22.94
 37.07    502.08     22.41
 37.17    498.00     22.32
 37.27    520.00     22.80
 37.37    485.86     22.04
 37.47    521.00     22.83
 37.57    567.97     23.83
 37.67    526.00     22.93
 37.77    496.57     22.28
 37.87    504.00     22.45
 37.97    529.00     23.00
 38.07    559.49     23.65
 38.17    516.00     22.72
 38.27    493.00     22.20
 38.37    538.00     23.19
 38.47    502.00     22.41
 38.57    551.61     23.49
 38.67    503.00     22.43
 38.77    513.00     22.65
 38.87    473.00     21.75
 38.97    527.00     22.96
 39.07    481.00     21.93
 39.17    534.00     23.11
 39.27    483.00     21.98
 39.37    517.00     22.74
 39.47    524.00     22.89
 39.57    551.84     23.49
 39.67    532.00     23.07
 39.77    527.20     22.96
 39.87    492.26     22.19
 39.97    497.27     22.30
 40.07    532.69     23.08
 40.17    482.92     21.98
 40.27    505.00     22.47
 40.37    526.39     22.94
 40.47    509.45     22.57
 40.57    474.00     21.77
 40.67    506.00     22.49
 40.77    475.05     21.80
 40.87    469.83     21.68
 40.97    478.51     21.87
 41.07    507.23     22.52
 41.17    477.00     21.84
 41.27    549.00     23.43
 41.37    549.91     23.45
 41.47    507.97     22.54
 41.57    483.37     21.99
 41.67    518.00     22.76
 41.77    484.00     22.00
 41.87    502.00     22.41
 41.97    485.20     22.03
 42.07    507.00     22.52
 42.17    537.00     23.17
 42.27    548.00     23.41
 42.37    558.00     23.62
 42.47    634.82     25.20
 42.57    572.56     23.93
 42.67    579.00     24.06
 42.77    556.00     23.58
 42.87    550.00     23.45
 42.97    543.61     23.32
 43.07    535.00     23.13
 43.17    543.00     23.30
 43.27    512.00     22.63
 43.37    527.51     22.97
 43.47    535.00     23.13
 43.57    540.00     23.24
 43.67    535.00     23.13
 43.77    482.16     21.96
 43.87    515.00     22.69
 43.97    493.00     22.20
 44.07    495.00     22.25
 44.17    489.00     22.11
 44.27    542.68     23.30
 44.37    492.00     22.18
 44.47    507.45     22.53
 44.57    481.82     21.95
 44.67    499.67     22.35
 44.77    509.00     22.56
 44.87    533.63     23.10
 44.97    504.00     22.45
 45.07    491.00     22.16
 45.17    495.00     22.25
 45.27    528.00     22.98
 45.37    492.31     22.19
 45.47    495.00     22.25
 45.57    546.00     23.37
 45.67    517.92     22.76
 45.77    516.00     22.72
 45.87    508.63     22.55
 45.97    497.00     22.29
 46.07    521.00     22.83
 46.17    500.00     22.36
 46.27    482.00     21.95
 46.37    519.75     22.80
 46.47    521.00     22.83
 46.57    484.52     22.01
 46.67    531.00     23.04
 46.77    502.00     22.41
 46.87    502.00     22.41
 46.97    535.86     23.15
 47.07    526.00     22.93
 47.17    526.00     22.93
 47.27    534.00     23.11
 47.37    493.00     22.20
 47.47    537.00     23.17
 47.57    594.71     24.39
 47.67    576.00     24.00
 47.77    616.00     24.82
 47.87    596.36     24.42
 47.97    605.00     24.60
 48.07    557.00     23.60
 48.17    542.15     23.28
 48.27    585.89     24.21
 48.37    495.00     22.25
 48.47    559.60     23.66
 48.57    539.00     23.22
 48.67    580.27     24.09
 48.77    558.00     23.62
 48.87    538.10     23.20
 48.97    559.00     23.64
 49.07    616.63     24.83
 49.17    580.00     24.08
 49.27    625.00     25.00
 49.37    657.48     25.64
 49.47    735.78     27.13
 49.57    849.00     29.14
 49.67    888.54     29.81
 49.77   1078.21     32.84
 49.87   1458.00     38.18
 49.97   1807.49     42.51
 50.07   2177.00     46.66
 50.17   2442.00     49.42
 50.27   2514.74     50.15
 50.37   2292.00     47.87
 50.47   1836.26     42.85
 50.57   1366.00     36.96
 50.67   1077.00     32.82
 50.77    826.00     28.74
 50.87    748.59     27.36
 50.97    624.87     25.00
 51.07    634.13     25.18
 51.17    616.54     24.83
 51.27    629.00     25.08
 51.37    552.00     23.49
 51.47    584.00     24.17
 51.57    606.00     24.62
 51.67    576.00     24.00
 51.77    573.44     23.95
 51.87    570.00     23.87
 51.97    581.86     24.12
 52.07    497.75     22.31
 52.17    545.00     23.35
 52.27    572.00     23.92
 52.37    557.00     23.60
 52.47    564.29     23.75
 52.57    543.00     23.30
 52.67    610.00     24.70
 52.77    583.00     24.15
 52.87    631.00     25.12
 52.97    691.40     26.29
 53.07    813.61     28.52
 53.17    903.00     30.05
 53.27   1019.00     31.92
 53.37   1227.00     35.03
 53.47   1256.46     35.45
 53.57   1239.19     35.20
 53.67   1131.78     33.64
 53.77   1035.00     32.17
 53.87    880.00     29.66
 53.97    768.05     27.71
 54.07    716.00     26.76
 54.17    636.00     25.22
 54.27    585.00     24.19
 54.37    554.79     23.55
 54.47    535.06     23.13
 54.57    556.13     23.58
 54.67    543.10     23.30
 54.77    581.38     24.11
 54.87    512.61     22.64
 54.97    515.36     22.70
 55.07    553.00     23.52
 55.17    535.00     23.13
 55.27    540.80     23.26
 55.37    579.85     24.08
 55.47    599.11     24.48
 55.57    601.00     24.52
 55.67    571.00     23.90
 55.77    597.00     24.43
 55.87    575.00     23.98
 55.97    601.00     24.52
 56.07    703.00     26.51
 56.17    767.00     27.69
 56.27    927.00     30.45
 56.37   1123.00     33.51
 56.47   1354.00     36.80
 56.57   1717.00     41.44
 56.67   2134.00     46.20
 56.77   2554.00     50.54
 56.87   2535.00     50.35
 56.97   2559.24     50.59
 57.07   2415.69     49.15
 57.17   1927.16     43.90
 57.27   1565.22     39.56
 57.37   1350.00     36.74
 57.47   1042.00     32.28
 57.57    866.00     29.43
 57.67    771.78     27.78
 57.77    651.00     25.51
 57.87    679.00     26.06
 57.97    712.00     26.68
 58.07    672.00     25.92
 58.17    749.00     27.37
 58.27    781.00     27.95
 58.37    858.67     29.30
 58.47    940.00     30.66
 58.57   1080.00     32.86
 58.67   1149.01     33.90
 58.77   1287.26     35.88
 58.87   1365.00     36.95
 58.97   1440.43     37.95
 59.07   1550.00     39.37
 59.17   1546.00     39.32
 59.27   1464.00     38.26
 59.37   1403.00     37.46
 59.47   1195.76     34.58
 59.57   1188.00     34.47
 59.67   1080.37     32.87
 59.77   1117.00     33.42
 59.87   1165.36     34.14
 59.97   1331.79     36.49
 60.07   1410.00     37.55
 60.17   1545.00     39.31
 60.27   1550.00     39.37
 60.37   1566.00     39.57
 60.47   1351.44     36.76
 60.57   1303.00     36.10
 60.67   1085.76     32.95
 60.77    883.00     29.72
 60.87    810.00     28.46
 60.97    733.78     27.09
 61.07    683.00     26.13
 61.17    657.00     25.63
 61.27    606.00     24.62
 61.37    632.90     25.16
 61.47    683.00     26.13
 61.57    774.00     27.82
 61.67    877.00     29.61
 61.77    922.66     30.38
 61.87   1048.00     32.37
 61.97   1218.00     34.90
 62.07   1309.00     36.18
 62.17   1427.00     37.78
 62.27   1324.00     36.39
 62.37   1380.09     37.15
 62.47   1208.00     34.76
 62.57   1029.00     32.08
 62.67    882.00     29.70
 62.77    762.00     27.60
 62.87    661.91     25.73
 62.97    664.00     25.77
 63.07    652.16     25.54
 63.17    572.00     23.92
 63.27    546.00     23.37
 63.37    564.00     23.75
 63.47    560.72     23.68
 63.57    552.00     23.49
 63.67    600.12     24.50
 63.77    590.00     24.29
 63.87    634.00     25.18
 63.97    681.24     26.10
 64.07    686.98     26.21
 64.17    712.00     26.68
 64.27    816.00     28.57
 64.37    885.50     29.76
 64.47   1012.00     31.81
 64.57   1012.00     31.81
 64.67    975.16     31.23
 64.77   1034.00     32.16
 64.87    996.00     31.56
 64.97    862.01     29.36
 65.07    836.02     28.91
 65.17    799.00     28.27
 65.27    716.48     26.77
 65.37    716.00     26.76
 65.47    687.00     26.21
 65.57    581.00     24.10
 65.67    627.00     25.04
 65.77    574.45     23.97
 65.87    565.00     23.77
 65.97    569.00     23.85
 66.07    585.52     24.20
 66.17    598.52     24.46
 66.27    558.67     23.64
 66.37    598.10     24.46
 66.47    589.73     24.28
 66.57    555.00     23.56
 66.67    595.00     24.39
 66.77    621.28     24.93
 66.87    566.25     23.80
 66.97    573.48     23.95
 67.07    677.49     26.03
 67.17    637.00     25.24
 67.27    736.92     27.15
 67.37    865.00     29.41
 67.47   1028.81     32.08
 67.57   1313.00     36.24
 67.67   1574.00     39.67
 67.77   1848.22     42.99
 67.87   1982.00     44.52
 67.97   2406.00     49.05
 68.07   2371.00     48.69
 68.17   2414.00     49.13
 68.27   2272.41     47.67
 68.37   1995.13     44.67
 68.47   1876.00     43.31
 68.57   1519.00     38.97
 68.67   1239.00     35.20
 68.77   1050.00     32.40
 68.87    901.00     30.02
 68.97    744.00     27.28
 69.07    698.00     26.42
 69.17    663.00     25.75
 69.27    580.15     24.09
 69.37    632.00     25.14
 69.47    620.00     24.90
 69.57    550.70     23.47
 69.67    527.76     22.97
 69.77    536.25     23.16
 69.87    563.00     23.73
 69.97    576.00     24.00
 70.07    603.00     24.56
 70.17    564.00     23.75
 70.27    616.00     24.82
 70.37    548.00     23.41
 70.47    613.01     24.76
 70.57    550.22     23.46
 70.67    583.31     24.15
 70.77    569.00     23.85
 70.87    597.00     24.43
 70.97    608.00     24.66
 71.07    592.00     24.33
 71.17    771.12     27.77
 71.27    811.28     28.48
 71.37    898.16     29.97
 71.47   1054.30     32.47
 71.57   1312.00     36.22
 71.67   1476.00     38.42
 71.77   1607.00     40.09
 71.87   1830.00     42.78
 71.97   1968.96     44.37
 72.07   1942.00     44.07
 72.17   1951.00     44.17
 72.27   1856.00     43.08
 72.37   1640.00     40.50
 72.47   1479.76     38.47
 72.57   1321.61     36.35
 72.67   1141.48     33.79
 72.77   1109.00     33.30
 72.87   1013.57     31.84
 72.97    857.00     29.27
 73.07    830.38     28.82
 73.17    767.39     27.70
 73.27    684.00     26.15
 73.37    603.00     24.56
 73.47    672.35     25.93
 73.57    602.00     24.54
 73.67    592.00     24.33
 73.77    604.00     24.58
 73.87    611.00     24.72
 73.97    614.00     24.78
 74.07    585.00     24.19
 74.17    601.00     24.52
 74.27    594.00     24.37
 74.37    550.29     23.46
 74.47    611.11     24.72
 74.57    634.00     25.18
 74.67    602.59     24.55
 74.77    522.43     22.86
 74.87    655.00     25.59
 74.97    615.00     24.80
 75.07    527.24     22.96
 75.17    579.00     24.06
 75.27    575.00     23.98
 75.37    506.60     22.51
 75.47    580.00     24.08
 75.57    580.00     24.08
 75.67    593.00     24.35
 75.77    531.28     23.05
 75.87    584.00     24.17
 75.97    634.00     25.18
 76.07    644.00     25.38
 76.17    676.00     26.00
 76.27    696.00     26.38
 76.37    662.66     25.74
 76.47    723.38     26.90
 76.57    681.00     26.10
 76.67    654.00     25.57
 76.77    665.00     25.79
 76.87    658.00     25.65
 76.97    669.00     25.87
 77.07    626.00     25.02
 77.17    626.64     25.03
 77.27    549.00     23.43
 77.37    482.00     21.95
 77.47    514.00     22.67
 77.57    488.00     22.09
 77.67    520.64     22.82
 77.77    538.43     23.20
 77.87    508.00     22.54
 77.97    509.00     22.56
 78.07    550.26     23.46
 78.17    518.00     22.76
 78.27    522.00     22.85
 78.37    536.53     23.16
 78.47    525.16     22.92
 78.57    522.63     22.86
 78.67    513.00     22.65
 78.77    512.00     22.63
 78.87    564.00     23.75
 78.97    554.00     23.54
 79.07    535.00     23.13
 79.17    511.00     22.61
 79.27    529.00     23.00
 79.37    528.79     23.00
 79.47    489.00     22.11
 79.57    500.00     22.36
 79.67    564.08     23.75
 79.77    510.81     22.60
 79.87    558.00     23.62
 79.97    550.00     23.45
 80.07    576.07     24.00
 80.17    598.00     24.45
 80.27    513.00     22.65
 80.37    552.55     23.51
 80.47    580.00     24.08
 80.57    583.00     24.15
 80.67    662.36     25.74
 80.77    645.00     25.40
 80.87    644.00     25.38
 80.97    722.00     26.87
 81.07    718.00     26.80
 81.17    762.00     27.60
 81.27    698.95     26.44
 81.37    739.00     27.18
 81.47    772.08     27.79
 81.57    727.00     26.96
 81.67    762.00     27.60
 81.77    808.00     28.43
 81.87    737.12     27.15
 81.97    707.00     26.59
 82.07    640.07     25.30
 82.17    674.00     25.96
 82.27    653.00     25.55
 82.37    594.16     24.38
 82.47    635.00     25.20
 82.57    626.00     25.02
 82.67    619.23     24.88
 82.77    617.88     24.86
 82.87    545.00     23.35
 82.97    558.00     23.62
 83.07    547.00     23.39
 83.17    592.00     24.33
 83.27    592.58     24.34
 83.37    514.93     22.69
 83.47    518.00     22.76
 83.57    605.04     24.60
 83.67    573.00     23.94
 83.77    533.00     23.09
 83.87    558.00     23.62
 83.97    597.00     24.43
 84.07    559.00     23.64
 84.17    537.00     23.17
 84.27    554.00     23.54
 84.37    568.00     23.83
 84.47    565.00     23.77
 84.57    558.00     23.62
 84.67    551.15     23.48
 84.77    553.03     23.52
 84.87    535.74     23.15
 84.97    520.00     22.80
 85.07    499.00     22.34
 85.17    534.00     23.11
 85.27    500.71     22.38
 85.37    492.25     22.19
 85.47    526.00     22.93
 85.57    554.00     23.54
 85.67    552.00     23.49
 85.77    538.00     23.19
 85.87    524.00     22.89
 85.97    535.00     23.13
 86.07    512.52     22.64
 86.17    493.93     22.22
 86.27    587.00     24.23
 86.37    537.00     23.17
 86.47    563.00     23.73
 86.57    523.00     22.87
 86.67    545.00     23.35
 86.77    577.00     24.02
 86.87    551.66     23.49
 86.97    635.00     25.20
 87.07    643.00     25.36
 87.17    573.54     23.95
 87.27    685.00     26.17
 87.37    706.00     26.57
 87.47    635.00     25.20
 87.57    652.97     25.55
 87.67    646.00     25.42
 87.77    663.00     25.75
 87.87    641.40     25.33
 87.97    592.13     24.33
 88.07    565.62     23.78
 88.17    609.69     24.69
 88.27    595.60     24.40
 88.37    538.00     23.19
 88.47    580.00     24.08
 88.57    607.92     24.66
 88.67    551.13     23.48
 88.77    610.00     24.70
 88.87    593.00     24.35
 88.97    552.00     23.49
 89.07    603.00     24.56
 89.17    605.00     24.60
 89.27    638.00     25.26
 89.37    555.00     23.56
 89.47    563.65     23.74
 89.57    609.02     24.68
 89.67    581.00     24.10
 89.77    579.00     24.06
 89.87    574.99     23.98
 89.97    565.62     23.78
 90.07    599.06     24.48
 90.17    549.80     23.45
 90.27    478.00     21.86
 90.37    523.00     22.87
 90.47    572.00     23.92
 90.57    504.00     22.45
 90.67    550.68     23.47
 90.77    495.00     22.25
 90.87    557.51     23.61
 90.97    566.56     23.80
 91.07    489.77     22.13
 91.17    538.00     23.19
 91.27    551.00     23.47
 91.37    542.00     23.28
 91.47    560.00     23.66
 91.57    567.00     23.81
 91.67    527.40     22.97
 91.77    525.00     22.91
 91.87    556.88     23.60
 91.97    521.49     22.84
 92.07    593.57     24.36
 92.17    582.00     24.12
 92.27    629.12     25.08
 92.37    593.46     24.36
 92.47    625.00     25.00
 92.57    668.00     25.85
 92.67    653.00     25.55
 92.77    686.00     26.19
 92.87    697.87     26.42
 92.97    763.41     27.63
 93.07    732.02     27.06
 93.17    715.14     26.74
 93.27    813.00     28.51
 93.37    752.00     27.42
 93.47    819.00     28.62
 93.57    856.34     29.26
 93.67    801.00     28.30
 93.77    788.58     28.08
 93.87    852.00     29.19
 93.97    810.37     28.47
 94.07    884.00     29.73
 94.17    784.34     28.01
 94.27    869.00     29.48
 94.37    856.00     29.26
 94.47    835.04     28.90
 94.57    921.00     30.35
 94.67    911.26     30.19
 94.77    914.00     30.23
 94.87    970.00     31.14
 94.97    837.64     28.94
 95.07    814.15     28.53
 95.17    920.00     30.33
 95.27    760.21     27.57
 95.37    748.91     27.37
 95.47    747.00     27.33
 95.57    785.06     28.02
 95.67    740.00     27.20
 95.77    700.50     26.47
 95.87    669.28     25.87
 95.97    665.00     25.79
 96.07    687.00     26.21
 96.17    702.00     26.50
 96.27    732.00     27.06
 96.37    757.67     27.53
 96.47    769.66     27.74
 96.57    911.00     30.18
 96.67    865.82     29.42
 96.77    978.96     31.29
 96.87   1094.52     33.08
 96.97   1138.00     33.73
 97.07   1247.48     35.32
 97.17   1229.00     35.06
 97.27   1326.83     36.43
 97.37   1431.14     37.83
 97.47   1354.60     36.80
 97.57   1427.00     37.78
 97.67   1487.11     38.56
 97.77   1337.00     36.57
 97.87   1414.00     37.60
 97.97   1339.59     36.60
 98.07   1175.00     34.28
 98.17   1104.00     33.23
 98.27   1063.00     32.60
 98.37    983.00     31.35
 98.47    977.00     31.26
 98.57    900.57     30.01
 98.67    841.00     29.00
 98.77    792.00     28.14
 98.87    773.00     27.80
 98.97    771.10     27.77
 99.07    836.84     28.93
 99.17    891.00     29.85
 99.27    866.00     29.43
 99.37    950.00     30.82
 99.47    983.00     31.35
 99.57   1036.61     32.20
 99.67   1219.92     34.93
 99.77   1337.48     36.57
 99.87   1385.93     37.23
 99.97   1499.00     38.72
100.07   1603.00     40.04
100.17   1764.83     42.01
100.27   1823.00     42.70
100.37   1878.39     43.34
100.47   2033.00     45.09
100.57   2053.14     45.31
100.67   2082.56     45.64
100.77   2055.00     45.33
100.87   1951.00     44.17
100.97   2073.01     45.53
101.07   1952.00     44.18
101.17   1921.00     43.83
101.27   1805.83     42.50
101.37   1709.00     41.34
101.47   1601.00     40.01
101.57   1555.00     39.43
101.67   1431.97     37.84
101.77   1304.88     36.12
101.87   1328.00     36.44
101.97   1185.00     34.42
102.07   1166.71     34.16
102.17   1116.40     33.41
102.27   1178.00     34.32
102.37   1121.00     33.48
102.47   1109.00     33.30
102.57   1071.00     32.73
102.67   1049.24     32.39
102.77   1029.00     32.08
102.87   1011.00     31.80
102.97   1038.00     32.22
103.07    877.52     29.62
103.17    918.00     30.30
103.27    859.00     29.31
103.37    759.85     27.57
103.47    807.11     28.41
103.57    733.19     27.08
103.67    727.00     26.96
103.77    642.34     25.34
103.87    625.11     25.00
103.97    646.00     25.42
104.07    594.00     24.37
104.17    570.00     23.87
104.27    617.00     24.84
104.37    561.00     23.69
104.47    555.00     23.56
104.57    515.00     22.69
104.67    570.00     23.87
104.77    515.00     22.69
104.87    503.11     22.43
104.97    516.84     22.73
105.07    574.00     23.96
105.17    537.00     23.17
105.27    542.00     23.28
105.37    522.00     22.85
105.47    525.00     22.91
105.57    535.00     23.13
105.67    513.78     22.67
105.77    525.00     22.91
105.87    586.26     24.21
105.97    562.60     23.72
106.07    536.59     23.16
106.17    620.00     24.90
106.27    595.00     24.39
106.37    601.00     24.52
106.47    569.00     23.85
106.57    645.53     25.41
106.67    668.00     25.85
106.77    636.79     25.23
106.87    647.00     25.44
106.97    652.00     25.53
107.07    640.00     25.30
107.17    714.68     26.73
107.27    694.00     26.34
107.37    693.00     26.32
107.47    648.00     25.46
107.57    751.87     27.42
107.67    682.00     26.12
107.77    699.67     26.45
107.87    653.00     25.55
107.97    678.00     26.04
108.07    673.00     25.94
108.17    663.35     25.76
108.27    724.29     26.91
108.37    700.00     26.46
108.47    704.00     26.53
108.57    652.00     25.53
108.67    652.00     25.53
108.77    689.00     26.25
108.87    718.00     26.80
108.97    676.73     26.01
109.07    655.00     25.59
109.17    667.97     25.85
109.27    648.00     25.46
109.37    608.46     24.67
109.47    657.00     25.63
109.57    626.00     25.02
109.67    632.00     25.14
109.77    567.00     23.81
109.87    572.98     23.94
109.97    591.00     24.31
110.07    585.00     24.19
110.17    557.00     23.60
110.27    570.86     23.89
110.37    585.00     24.19
110.47    582.00     24.12
110.57    547.00     23.39
110.67    512.56     22.64
110.77    564.62     23.76
110.87    562.00     23.71
110.97    533.00     23.09
111.07    564.11     23.75
111.17    547.00     23.39
111.27    572.54     23.93
111.37    491.00     22.16
111.47    570.00     23.87
111.57    530.00     23.02
111.67    577.00     24.02
111.77    511.00     22.61
111.87    526.00     22.93
111.97    579.00     24.06
112.07    608.07     24.66
112.17    571.96     23.92
112.27    551.00     23.47
112.37    576.00     24.00
112.47    570.48     23.88
112.57    626.00     25.02
112.67    628.43     25.07
112.77    615.00     24.80
112.87    633.00     25.16
112.97    647.00     25.44
113.07    718.18     26.80
113.17    657.00     25.63
113.27    715.00     26.74
113.37    735.00     27.11
113.47    724.27     26.91
113.57    752.13     27.43
113.67    866.30     29.43
113.77    866.15     29.43
113.87    897.00     29.95
113.97    990.67     31.47
114.07    941.00     30.68
114.17   1078.00     32.83
114.27   1182.95     34.39
114.37   1201.00     34.66
114.47   1288.39     35.89
114.57   1380.50     37.16
114.67   1539.00     39.23
114.77   1738.00     41.69
114.87   1865.00     43.19
114.97   2233.00     47.25
115.07   2178.22     46.67
115.17   2454.30     49.54
115.27   2870.62     53.58
115.37   3198.00     56.55
115.47   3356.00     57.93
115.57   3740.00     61.16
115.67   4222.00     64.98
115.77   4456.00     66.75
115.87   4793.00     69.23
115.97   5255.00     72.49
116.07   5573.00     74.65
116.17   6069.05     77.90
116.27   6326.00     79.54
116.37   6590.00     81.18
116.47   6807.00     82.50
116.57   6822.07     82.60
116.67   7020.00     83.79
116.77   6945.64     83.34
116.87   6870.00     82.89
116.97   6643.98     81.51
117.07   6389.89     79.94
117.17   6132.00     78.31
117.27   5653.00     75.19
117.37   5379.00     73.34
117.47   4994.00     70.67
117.57   4583.00     67.70
117.67   4347.00     65.93
117.77   4079.00     63.87
117.87   3749.00     61.23
117.97   3207.00     56.63
118.07   2862.00     53.50
118.17   2600.00     50.99
118.27   2203.00     46.94
118.37   1977.00     44.46
118.47   1814.94     42.60
118.57   1600.31     40.00
118.67   1439.00     37.93
118.77   1290.00     35.92
118.87   1111.95     33.35
118.97   1072.00     32.74
119.07    963.00     31.03
119.17    881.00     29.68
119.27    761.00     27.59
119.37    778.00     27.89
119.47    715.80     26.75
119.57    720.00     26.83
119.67    676.00     26.00
119.77    620.00     24.90
119.87    618.00     24.86
119.97    628.78     25.08
120.07    630.00     25.10
120.17    593.13     24.35
120.27    621.11     24.92
120.37    546.00     23.37
120.47    554.00     23.54
120.57    614.40     24.79
120.67    582.00     24.12
120.77    557.00     23.60
120.87    567.00     23.81
120.97    553.00     23.52
121.07    533.00     23.09
121.17    596.00     24.41
121.27    578.00     24.04
121.37    574.00     23.96
121.47    560.00     23.66
121.57    586.01     24.21
121.67    568.00     23.83
121.77    573.00     23.94
121.87    595.00     24.39
121.97    604.00     24.58
122.07    623.00     24.96
122.17    581.00     24.10
122.27    582.38     24.13
122.37    593.21     24.36
122.47    677.00     26.02
122.57    633.00     25.16
122.67    665.05     25.79
122.77    595.69     24.41
122.87    637.65     25.25
122.97    604.22     24.58
123.07    641.00     25.32
123.17    650.00     25.50
123.27    657.00     25.63
123.37    701.00     26.48
123.47    681.00     26.10
123.57    622.00     24.94
123.67    672.48     25.93
123.77    612.00     24.74
123.87    651.58     25.53
123.97    605.18     24.60
124.07    657.08     25.63
124.17    597.00     24.43
124.27    601.00     24.52
124.37    590.97     24.31
124.47    611.00     24.72
124.57    616.38     24.83
124.67    579.00     24.06
124.77    565.00     23.77
124.87    547.00     23.39
124.97    557.00     23.60
