XYDATA



INTER 1.0 1.0 0 0
TEMP 854.074
  9.97    608.00     24.66
 10.07    559.00     23.64
 10.17    570.39     23.88
 10.27    601.62     24.53
 10.37    588.00     24.25
 10.47    567.58     23.82
 10.57    588.00     24.25
 10.67    613.00     24.76
 10.77    582.87     24.14
 10.87    555.00     23.56
 10.97    574.00     23.96
 11.07    529.65     23.01
 11.17    611.00     24.72
 11.27    521.84     22.84
 11.37    551.70     23.49
 11.47    566.16     23.79
 11.57    609.00     24.68
 11.67    621.00     24.92
 11.77    658.00     25.65
 11.87    661.00     25.71
 11.97    677.00     26.02
 12.07    668.00     25.85
 12.17    646.14     25.42
 12.27    652.00     25.53
 12.37    662.00     25.73
 12.47    618.00     24.86
 12.57    635.00     25.20
 12.67    585.99     24.21
 12.77    540.00     23.24
 12.87    578.00     24.04
 12.97    563.00     23.73
 13.07    545.00     23.35
 13.17    590.00     24.29
 13.27    520.00     22.80
 13.37    581.00     24.10
 13.47    565.49     23.78
 13.57    544.00     23.32
 13.67    571.00     23.90
 13.77    529.00     23.00
 13.87    587.78     24.24
 13.97    553.22     23.52
 14.07    563.87     23.75
 14.17    573.00     23.94
 14.27    553.00     23.52
 14.37    588.00     24.25
 14.47    545.00     23.35
 14.57    567.00     23.81
 14.67    529.00     23.00
 14.77    539.24     23.22
 14.87    548.23     23.41
 14.97    544.00     23.32
 15.07    575.70     23.99
 15.17    552.80     23.51
 15.27    547.26     23.39
 15.37    569.96     23.87
 15.47    571.00     23.90
 15.57    577.00     24.02
 15.67    535.20     23.13
 15.77    578.00     24.04
 15.87    535.97     23.15
 15.97    529.00     23.00
 16.07    624.00     24.98
 16.17    527.00     22.96
 16.27    604.93     24.60
 16.37    564.00     23.75
 16.47    541.00     23.26
 16.57    549.00     23.43
 16.67    616.17     24.82
 16.77    539.00     23.22
 16.87    605.50     24.61
 16.97    550.93     23.47
 17.07    569.00     23.85
 17.17    590.92     24.31
 17.27    554.00     23.54
 17.37    569.00     23.85
 17.47    549.00     23.43
 17.57    553.00     23.52
 17.67    588.00     24.25
 17.77    570.98     23.90
 17.87    490.00     22.14
 17.97    524.59     22.90
 18.07    571.26     23.90
 18.17    497.00     22.29
 18.27    569.55     23.87
 18.37    542.00     23.28
 18.47    585.00     24.19
 18.57    599.70     24.49
 18.67    562.00     23.71
 18.77    530.00     23.02
 18.87    568.38     23.84
 18.97    553.00     23.52
 19.07    578.00     24.04
 19.17    555.21     23.56
 19.27    541.00     23.26
 19.37    528.00     22.98
 19.47    564.61     23.76
 19.57    533.00     23.09
 19.67    520.00     22.80
 19.77    571.37     23.90
 19.87    557.06     23.60
 19.97    553.00     23.52
 20.07    586.00     24.21
 20.17    564.00     23.75
 20.27    526.00     22.93
 20.37    586.07     24.21
 20.47    577.00     24.02
 20.57    541.14     23.26
 20.67    566.00     23.79
 20.77    564.00     23.75
 20.87    589.00     24.27
 20.97    545.00     23.35
 21.07    542.37     23.29
 21.17    540.00     23.24
 21.27    522.00     22.85
 21.37    518.79     22.78
 21.47    572.00     23.92
 21.57    531.00     23.04
 21.67    580.00     24.08
 21.77    522.00     22.85
 21.87    583.44     24.15
 21.97    592.00     24.33
 22.07    569.00     23.85
 22.17    532.74     23.08
 22.27    557.00     23.60
 22.37    519.40     22.79
 22.47    566.22     23.80
 22.57    556.00     23.58
 22.67    547.00     23.39
 22.77    528.41     22.99
 22.87    533.00     23.09
 22.97    564.00     23.75
 23.07    574.98     23.98
 23.17    568.00     23.83
 23.27    590.85     24.31
 23.37    528.44     22.99
 23.47    567.00     23.81
 23.57    578.12     24.04
 23.67    512.18     22.63
 23.77    576.00     24.00
 23.87    575.36     23.99
 23.97    527.00     22.96
 24.07    605.00     24.60
 24.17    576.00     24.00
 24.27    570.00     23.87
 24.37    560.36     23.67
 24.47    614.00     24.78
 24.57    560.00     23.66
 24.67    613.41     24.77
 24.77    614.00     24.78
 24.87    641.00     25.32
 24.97    584.09     24.17
 25.07    626.00     25.02
 25.17    640.00     25.30
 25.27    624.00     24.98
 25.37    611.00     24.72
 25.47    516.83     22.73
 25.57    590.00     24.29
 25.67    549.00     23.43
 25.77    620.00     24.90
 25.87    582.00     24.12
 25.97    601.00     24.52
 26.07    589.00     24.27
 26.17    600.56     24.51
 26.27    554.00     23.54
 26.37    562.00     23.71
 26.47    571.00     23.90
 26.57    589.62     24.28
 26.67    524.40     22.90
 26.77    505.16     22.48
 26.87    565.00     23.77
 26.97    528.00     22.98
 27.07    622.00     24.94
 27.17    578.77     24.06
 27.27    601.00     24.52
 27.37    583.00     24.15
 27.47    557.00     23.60
 27.57    570.00     23.87
 27.67    558.03     23.62
 27.77    577.00     24.02
 27.87    604.11     24.58
 27.97    699.00     26.44
 28.07    717.00     26.78
 28.17    814.00     28.53
 28.27    852.54     29.20
 28.37    973.00     31.19
 28.47    861.28     29.35
 28.57    804.83     28.37
 28.67    718.00     26.80
 28.77    699.00     26.44
 28.87    832.26     28.85
 28.97    795.16     28.20
 29.07    810.00     28.46
 29.17    759.00     27.55
 29.27    730.00     27.02
 29.37    675.00     25.98
 29.47    612.00     24.74
 29.57    600.00     24.49
 29.67    596.00     24.41
 29.77    609.05     24.68
 29.87    525.32     22.92
 29.97    576.00     24.00
 30.07    628.00     25.06
 30.17    524.09     22.89
 30.27    575.69     23.99
 30.37    546.00     23.37
 30.47    552.00     23.49
 30.57    570.00     23.87
 30.67    546.27     23.37
 30.77    572.90     23.94
 30.87    584.00     24.17
 30.97    612.00     24.74
 31.07    621.18     24.92
 31.17    643.13     25.36
 31.27    577.00     24.02
 31.37    642.00     25.34
 31.47    516.15     22.72
 31.57    540.00     23.24
 31.67    500.63     22.37
 31.77    568.01     23.83
 31.87    529.00     23.00
 31.97    565.48     23.78
 32.07    558.66     23.64
 32.17    575.12     23.98
 32.27    550.00     23.45
 32.37    561.00     23.69
 32.47    584.00     24.17
 32.57    540.00     23.24
 32.67    490.37     22.14
 32.77    578.00     24.04
 32.87    577.48     24.03
 32.97    508.00     22.54
 33.07    544.00     23.32
 33.17    545.00     23.35
 33.27    537.17     23.18
 33.37    560.00     23.66
 33.47    581.00     24.10
 33.57    582.00     24.12
 33.67    604.00     24.58
 33.77    695.00     26.36
 33.87    803.34     28.34
 33.97    864.00     29.39
 34.07    974.00     31.21
 34.17    963.96     31.05
 34.27    976.87     31.25
 34.37    913.00     30.22
 34.47    759.00     27.55
 34.57    657.00     25.63
 34.67    609.00     24.68
 34.77    577.00     24.02
 34.87    598.00     24.45
 34.97    572.82     23.93
 35.07    543.82     23.32
 35.17    501.70     22.40
 35.27    577.23     24.03
 35.37    495.22     22.25
 35.47    530.00     23.02
 35.57    499.00     22.34
 35.67    534.00     23.11
 35.77    533.00     23.09
 35.87    520.90     22.82
 35.97    539.00     23.22
 36.07    537.00     23.17
 36.17    525.00     22.91
 36.27    511.09     22.61
 36.37    502.00     22.41
 36.47    523.00     22.87
 36.57    559.24     23.65
 36.67    500.00     22.36
 36.77    488.80     22.11
 36.87    474.00     21.77
 36.97    488.00     22.09
 37.07    524.00     22.89
 37.17    519.00     22.78
 37.27    520.00     22.80
 37.37    495.81     22.27
 37.47    531.00     23.04
 37.57    521.70     22.84
 37.67    503.57     22.44
 37.77    507.45     22.53
 37.87    503.00     22.43
 37.97    529.00     23.00
 38.07    484.00     22.00
 38.17    512.00     22.63
 38.27    510.00     22.58
 38.37    484.11     22.00
 38.47    485.00     22.02
 38.57    524.00     22.89
 38.67    506.00     22.49
 38.77    504.00     22.45
 38.87    476.00     21.82
 38.97    521.00     22.83
 39.07    481.00     21.93
 39.17    510.00     22.58
 39.27    495.90     22.27
 39.37    458.38     21.41
 39.47    471.00     21.70
 39.57    537.21     23.18
 39.67    530.00     23.02
 39.77    456.00     21.35
 39.87    494.00     22.23
 39.97    496.01     22.27
 40.07    542.95     23.30
 40.17    526.69     22.95
 40.27    479.00     21.89
 40.37    540.85     23.26
 40.47    506.00     22.49
 40.57    495.00     22.25
 40.67    477.00     21.84
 40.77    460.00     21.45
 40.87    456.00     21.35
 40.97    486.00     22.05
 41.07    504.00     22.45
 41.17    504.00     22.45
 41.27    542.00     23.28
 41.37    490.00     22.14
 41.47    507.00     22.52
 41.57    546.95     23.39
 41.67    502.00     22.41
 41.77    528.74     22.99
 41.87    454.00     21.31
 41.97    505.86     22.49
 42.07    518.00     22.76
 42.17    509.00     22.56
 42.27    508.00     22.54
 42.37    514.00     22.67
 42.47    527.24     22.96
 42.57    540.27     23.24
 42.67    587.06     24.23
 42.77    590.00     24.29
 42.87    566.00     23.79
 42.97    577.85     24.04
 43.07    542.73     23.30
 43.17    513.00     22.65
 43.27    561.22     23.69
 43.37    483.00     21.98
 43.47    494.00     22.23
 43.57    502.00     22.41
 43.67    479.25     21.89
 43.77    514.00     22.67
 43.87    465.00     21.56
 43.97    542.00     23.28
 44.07    487.00     22.07
 44.17    464.00     21.54
 44.27    472.00     21.73
 44.37    477.00     21.84
 44.47    489.00     22.11
 44.57    494.98     22.25
 44.67    487.41     22.08
 44.77    513.74     22.67
 44.87    500.00     22.36
 44.97    479.00     21.89
 45.07    518.00     22.76
 45.17    485.00     22.02
 45.27    505.76     22.49
 45.37    486.01     22.05
 45.47    483.00     21.98
 45.57    505.45     22.48
 45.67    479.00     21.89
 45.77    462.15     21.50
 45.87    473.00     21.75
 45.97    503.67     22.44
 46.07    486.00     22.05
 46.17    499.02     22.34
 46.27    512.00     22.63
 46.37    474.00     21.77
 46.47    546.00     23.37
 46.57    479.59     21.90
 46.67    537.63     23.19
 46.77    460.71     21.46
 46.87    537.21     23.18
 46.97    465.00     21.56
 47.07    489.37     22.12
 47.17    572.00     23.92
 47.27    499.00     22.34
 47.37    466.85     21.61
 47.47    502.00     22.41
 47.57    480.73     21.93
 47.67    509.00     22.56
 47.77    592.00     24.33
 47.87    543.00     23.30
 47.97    597.99     24.45
 48.07    557.00     23.60
 48.17    578.00     24.04
 48.27    590.00     24.29
 48.37    548.00     23.41
 48.47    520.00     22.80
 48.57    554.00     23.54
 48.67    568.46     23.84
 48.77    531.00     23.04
 48.87    525.00     22.91
 48.97    569.83     23.87
 49.07    523.00     22.87
 49.17    510.95     22.60
 49.27    577.00     24.02
 49.37    555.00     23.56
 49.47    642.80     25.35
 49.57    625.00     25.00
 49.67    745.00     27.29
 49.77    863.20     29.38
 49.87   1108.65     33.30
 49.97   1324.00     36.39
 50.07   1682.63     41.02
 50.17   2020.00     44.94
 50.27   2307.00     48.03
 50.37   2384.02     48.83
 50.47   2280.34     47.75
 50.57   1942.86     44.08
 50.67   1563.33     39.54
 50.77   1126.00     33.56
 50.87    961.50     31.01
 50.97    754.83     27.47
 51.07    728.00     26.98
 51.17    652.00     25.53
 51.27    625.41     25.01
 51.37    599.00     24.47
 51.47    611.00     24.72
 51.57    626.00     25.02
 51.67    603.00     24.56
 51.77    588.41     24.26
 51.87    576.00     24.00
 51.97    520.07     22.80
 52.07    510.00     22.58
 52.17    576.00     24.00
 52.27    574.00     23.96
 52.37    538.00     23.19
 52.47    507.62     22.53
 52.57    555.00     23.56
 52.67    586.51     24.22
 52.77    559.00     23.64
 52.87    630.00     25.10
 52.97    608.00     24.66
 53.07    685.00     26.17
 53.17    740.00     27.20
 53.27    774.39     27.83
 53.37   1018.00     31.91
 53.47   1016.00     31.87
 53.57   1131.03     33.63
 53.67   1129.00     33.60
 53.77   1150.00     33.91
 53.87   1035.17     32.17
 53.97   1003.00     31.67
 54.07    885.00     29.75
 54.17    823.57     28.70
 54.27    700.00     26.46
 54.37    650.00     25.50
 54.47    644.04     25.38
 54.57    548.00     23.41
 54.67    576.00     24.00
 54.77    573.00     23.94
 54.87    570.00     23.87
 54.97    550.00     23.45
 55.07    581.00     24.10
 55.17    581.00     24.10
 55.27    596.53     24.42
 55.37    527.00     22.96
 55.47    509.00     22.56
 55.57    599.58     24.49
 55.67    588.08     24.25
 55.77    593.71     24.37
 55.87    605.02     24.60
 55.97    655.00     25.59
 56.07    607.00     24.64
 56.17    712.00     26.68
 56.27    721.00     26.85
 56.37    884.00     29.73
 56.47   1057.16     32.51
 56.57   1292.16     35.95
 56.67   1584.93     39.81
 56.77   1907.00     43.67
 56.87   2168.00     46.56
 56.97   2369.58     48.68
 57.07   2579.21     50.79
 57.17   2431.00     49.31
 57.27   2173.00     46.62
 57.37   1849.00     43.00
 57.47   1563.33     39.54
 57.57   1128.00     33.59
 57.67    984.54     31.38
 57.77    871.00     29.51
 57.87    745.46     27.30
 57.97    746.37     27.32
 58.07    715.00     26.74
 58.17    725.00     26.93
 58.27    697.42     26.41
 58.37    716.00     26.76
 58.47    752.79     27.44
 58.57    853.00     29.21
 58.67    883.60     29.73
 58.77    994.00     31.53
 58.87   1072.00     32.74
 58.97   1130.00     33.62
 59.07   1190.67     34.51
 59.17   1255.52     35.43
 59.27   1309.13     36.18
 59.37   1341.00     36.62
 59.47   1246.99     35.31
 59.57   1243.00     35.26
 59.67   1202.70     34.68
 59.77   1247.00     35.31
 59.87   1210.00     34.79
 59.97   1209.00     34.77
 60.07   1356.00     36.82
 60.17   1409.00     37.54
 60.27   1509.20     38.85
 60.37   1594.00     39.92
 60.47   1474.66     38.40
 60.57   1440.94     37.96
 60.67   1292.00     35.94
 60.77   1119.10     33.45
 60.87   1084.80     32.94
 60.97    886.91     29.78
 61.07    786.00     28.04
 61.17    724.00     26.91
 61.27    693.72     26.34
 61.37    699.00     26.44
 61.47    691.00     26.29
 61.57    707.53     26.60
 61.67    706.05     26.57
 61.77    799.00     28.27
 61.87    917.00     30.28
 61.97   1025.00     32.02
 62.07   1090.23     33.02
 62.17   1209.00     34.77
 62.27   1293.77     35.97
 62.37   1294.00     35.97
 62.47   1258.41     35.47
 62.57   1271.18     35.65
 62.67   1070.00     32.71
 62.77    997.00     31.58
 62.87    859.00     29.31
 62.97    680.00     26.08
 63.07    703.00     26.51
 63.17    630.00     25.10
 63.27    627.00     25.04
 63.37    615.00     24.80
 63.47    547.00     23.39
 63.57    595.00     24.39
 63.67    565.00     23.77
 63.77    599.51     24.48
 63.87    574.00     23.96
 63.97    602.01     24.54
 64.07    634.00     25.18
 64.17    693.00     26.32
 64.27    729.00     27.00
 64.37    758.00     27.53
 64.47    841.15     29.00
 64.57    928.00     30.46
 64.67    986.00     31.40
 64.77    968.00     31.11
 64.87   1007.72     31.74
 64.97    982.00     31.34
 65.07    940.00     30.66
 65.17    897.03     29.95
 65.27    830.00     28.81
 65.37    774.00     27.82
 65.47    712.86     26.70
 65.57    668.00     25.85
 65.67    660.00     25.69
 65.77    594.00     24.37
 65.87    640.07     25.30
 65.97    554.00     23.54
 66.07    554.29     23.54
 66.17    609.00     24.68
 66.27    584.64     24.18
 66.37    571.85     23.91
 66.47    540.00     23.24
 66.57    520.17     22.81
 66.67    580.00     24.08
 66.77    559.06     23.64
 66.87    611.00     24.72
 66.97    611.00     24.72
 67.07    584.64     24.18
 67.17    670.00     25.88
 67.27    673.00     25.94
 67.37    701.00     26.48
 67.47    893.52     29.89
 67.57   1010.06     31.78
 67.67   1208.00     34.76
 67.77   1336.00     36.55
 67.87   1582.49     39.78
 67.97   1740.00     41.71
 68.07   1977.74     44.47
 68.17   2175.14     46.64
 68.27   2369.00     48.67
 68.37   2287.40     47.83
 68.47   2227.00     47.19
 68.57   2040.00     45.17
 68.67   1716.30     41.43
 68.77   1583.94     39.80
 68.87   1229.97     35.07
 68.97   1121.00     33.48
 69.07    988.17     31.44
 69.17    849.14     29.14
 69.27    796.00     28.21
 69.37    630.61     25.11
 69.47    653.00     25.55
 69.57    610.30     24.70
 69.67    643.00     25.36
 69.77    528.00     22.98
 69.87    610.02     24.70
 69.97    579.00     24.06
 70.07    539.06     23.22
 70.17    567.77     23.83
 70.27    574.00     23.96
 70.37    523.00     22.87
 70.47    614.00     24.78
 70.57    526.00     22.93
 70.67    581.86     24.12
 70.77    561.75     23.70
 70.87    623.00     24.96
 70.97    644.94     25.40
 71.07    582.00     24.12
 71.17    640.00     25.30
 71.27    695.75     26.38
 71.37    736.00     27.13
 71.47    854.32     29.23
 71.57    972.27     31.18
 71.67   1171.95     34.23
 71.77   1216.00     34.87
 71.87   1503.59     38.78
 71.97   1560.11     39.50
 72.07   1714.42     41.41
 72.17   1791.00     42.32
 72.27   1861.02     43.14
 72.37   1753.00     41.87
 72.47   1747.00     41.80
 72.57   1638.11     40.47
 72.67   1390.00     37.28
 72.77   1287.00     35.87
 72.87   1172.00     34.23
 72.97    966.52     31.09
 73.07    925.55     30.42
 73.17    772.00     27.78
 73.27    706.00     26.57
 73.37    742.00     27.24
 73.47    639.00     25.28
 73.57    622.00     24.94
 73.67    613.00     24.76
 73.77    589.00     24.27
 73.87    619.81     24.90
 73.97    558.00     23.62
 74.07    624.00     24.98
 74.17    620.95     24.92
 74.27    558.00     23.62
 74.37    558.00     23.62
 74.47    577.00     24.02
 74.57    581.24     24.11
 74.67    587.96     24.25
 74.77    555.60     23.57
 74.87    638.00     25.26
 74.97    650.00     25.50
 75.07    635.00     25.20
 75.17    600.06     24.50
 75.27    642.00     25.34
 75.37    593.00     24.35
 75.47    563.00     23.73
 75.57    501.48     22.39
 75.67    561.00     23.69
 75.77    563.00     23.73
 75.87    577.00     24.02
 75.97    567.27     23.82
 76.07    575.85     24.00
 76.17    603.00     24.56
 76.27    635.00     25.20
 76.37    631.00     25.12
 76.47    655.69     25.61
 76.57    616.00     24.82
 76.67    687.94     26.23
 76.77    720.00     26.83
 76.87    657.93     25.65
 76.97    673.57     25.95
 77.07    708.79     26.62
 77.17    658.00     25.65
 77.27    615.00     24.80
 77.37    571.00     23.90
 77.47    599.00     24.47
 77.57    561.00     23.69
 77.67    514.18     22.68
 77.77    547.00     23.39
 77.87    519.07     22.78
 77.97    558.18     23.63
 78.07    521.00     22.83
 78.17    517.00     22.74
 78.27    472.00     21.73
 78.37    497.00     22.29
 78.47    553.00     23.52
 78.57    499.00     22.34
 78.67    530.00     23.02
 78.77    515.00     22.69
 78.87    494.00     22.23
 78.97    533.83     23.10
 79.07    505.00     22.47
 79.17    527.82     22.97
 79.27    464.79     21.56
 79.37    529.00     23.00
 79.47    535.00     23.13
 79.57    542.95     23.30
 79.67    555.45     23.57
 79.77    508.94     22.56
 79.87    509.00     22.56
 79.97    513.00     22.65
 80.07    522.90     22.87
 80.17    526.00     22.93
 80.27    500.87     22.38
 80.37    560.27     23.67
 80.47    541.01     23.26
 80.57    575.00     23.98
 80.67    586.00     24.21
 80.77    593.92     24.37
 80.87    601.00     24.52
 80.97    598.00     24.45
 81.07    627.84     25.06
 81.17    645.00     25.40
 81.27    703.00     26.51
 81.37    639.00     25.28
 81.47    656.00     25.61
 81.57    743.00     27.26
 81.67    698.88     26.44
 81.77    703.00     26.51
 81.87    681.00     26.10
 81.97    701.00     26.48
 82.07    667.00     25.83
 82.17    665.00     25.79
 82.27    676.79     26.02
 82.37    678.61     26.05
 82.47    623.00     24.96
 82.57    607.00     24.64
 82.67    634.26     25.18
 82.77    578.00     24.04
 82.87    552.70     23.51
 82.97    551.00     23.47
 83.07    500.00     22.36
 83.17    535.00     23.13
 83.27    569.37     23.86
 83.37    520.34     22.81
 83.47    527.91     22.98
 83.57    498.94     22.34
 83.67    550.00     23.45
 83.77    534.00     23.11
 83.87    529.00     23.00
 83.97    534.00     23.11
 84.07    543.82     23.32
 84.17    533.00     23.09
 84.27    559.00     23.64
 84.37    512.71     22.64
 84.47    514.00     22.67
 84.57    562.15     23.71
 84.67    500.47     22.37
 84.77    505.00     22.47
 84.87    535.00     23.13
 84.97    503.79     22.45
 85.07    556.00     23.58
 85.17    524.00     22.89
 85.27    481.33     21.94
 85.37    501.00     22.38
 85.47    520.73     22.82
 85.57    501.00     22.38
 85.67    520.00     22.80
 85.77    507.00     22.52
 85.87    540.42     23.25
 85.97    484.00     22.00
 86.07    457.00     21.38
 86.17    531.00     23.04
 86.27    488.48     22.10
 86.37    501.00     22.38
 86.47    526.00     22.93
 86.57    509.00     22.56
 86.67    491.00     22.16
 86.77    528.75     22.99
 86.87    564.00     23.75
 86.97    541.00     23.26
 87.07    576.20     24.00
 87.17    603.00     24.56
 87.27    556.11     23.58
 87.37    597.00     24.43
 87.47    552.21     23.50
 87.57    598.51     24.46
 87.67    643.00     25.36
 87.77    667.00     25.83
 87.87    618.00     24.86
 87.97    623.00     24.96
 88.07    609.27     24.68
 88.17    538.92     23.21
 88.27    537.98     23.19
 88.37    542.19     23.28
 88.47    544.22     23.33
 88.57    553.04     23.52
 88.67    556.00     23.58
 88.77    578.52     24.05
 88.87    562.00     23.71
 88.97    554.58     23.55
 89.07    510.16     22.59
 89.17    590.00     24.29
 89.27    615.00     24.80
 89.37    634.00     25.18
 89.47    608.00     24.66
 89.57    601.82     24.53
 89.67    576.00     24.00
 89.77    571.00     23.90
 89.87    580.00     24.08
 89.97    581.61     24.12
 90.07    590.00     24.29
 90.17    576.37     24.01
 90.27    528.77     22.99
 90.37    581.13     24.11
 90.47    535.00     23.13
 90.57    536.00     23.15
 90.67    506.00     22.49
 90.77    496.00     22.27
 90.87    508.00     22.54
 90.97    559.00     23.64
 91.07    470.08     21.68
 91.17    498.00     22.32
 91.27    515.00     22.69
 91.37    496.65     22.29
 91.47    476.00     21.82
 91.57    523.00     22.87
 91.67    518.75     22.78
 91.77    473.00     21.75
 91.87    529.00     23.00
 91.97    545.96     23.37
 92.07    557.14     23.60
 92.17    520.00     22.80
 92.27    557.24     23.61
 92.37    562.00     23.71
 92.47    538.00     23.19
 92.57    588.00     24.25
 92.67    626.75     25.03
 92.77    581.65     24.12
 92.87    638.52     25.27
 92.97    661.00     25.71
 93.07    614.00     24.78
 93.17    683.00     26.13
 93.27    678.00     26.04
 93.37    749.00     27.37
 93.47    686.00     26.19
 93.57    760.38     27.57
 93.67    771.00     27.77
 93.77    856.00     29.26
 93.87    807.00     28.41
 93.97    799.00     28.27
 94.07    751.65     27.42
 94.17    857.00     29.27
 94.27    826.00     28.74
 94.37    868.71     29.47
 94.47    869.00     29.48
 94.57    842.00     29.02
 94.67    810.00     28.46
 94.77    927.00     30.45
 94.87    920.00     30.33
 94.97    865.00     29.41
 95.07    909.00     30.15
 95.17    866.00     29.43
 95.27    855.79     29.25
 95.37    865.00     29.41
 95.47    845.77     29.08
 95.57    800.00     28.28
 95.67    822.00     28.67
 95.77    817.00     28.58
 95.87    766.00     27.68
 95.97    750.00     27.39
 96.07    693.00     26.32
 96.17    728.00     26.98
 96.27    734.00     27.09
 96.37    702.00     26.50
 96.47    683.87     26.15
 96.57    751.00     27.40
 96.67    787.00     28.05
 96.77    840.00     28.98
 96.87    819.44     28.63
 96.97    902.93     30.05
 97.07   1020.00     31.94
 97.17   1039.00     32.23
 97.27   1149.00     33.90
 97.37   1230.88     35.08
 97.47   1271.05     35.65
 97.57   1348.00     36.72
 97.67   1366.00     36.96
 97.77   1424.00     37.74
 97.87   1453.00     38.12
 97.97   1364.00     36.93
 98.07   1380.28     37.15
 98.17   1320.57     36.34
 98.27   1309.00     36.18
 98.37   1302.81     36.09
 98.47   1195.67     34.58
 98.57   1104.00     33.23
 98.67   1089.00     33.00
 98.77   1038.00     32.22
 98.87    953.00     30.87
 98.97    917.00     30.28
 99.07    859.00     29.31
 99.17    816.00     28.57
 99.27    917.00     30.28
 99.37    871.52     29.52
 99.47    889.95     29.83
 99.57    936.66     30.60
 99.67    990.00     31.46
 99.77   1013.00     31.83
 99.87   1118.00     33.44
 99.97   1202.00     34.67
100.07   1263.00     35.54
100.17   1318.00     36.30
100.27   1503.00     38.77
100.37   1577.00     39.71
100.47   1716.74     41.43
100.57   1705.00     41.29
100.67   1785.44     42.25
100.77   1904.44     43.64
100.87   1909.00     43.69
100.97   1985.00     44.55
101.07   1904.00     43.63
101.17   1970.21     44.39
101.27   1905.63     43.65
101.37   1885.00     43.42
101.47   1841.94     42.92
101.57   1837.00     42.86
101.67   1735.00     41.65
101.77   1670.00     40.87
101.87   1574.00     39.67
101.97   1479.00     38.46
102.07   1416.00     37.63
102.17   1387.00     37.24
102.27   1300.00     36.06
102.37   1280.00     35.78
102.47   1252.00     35.38
102.57   1184.55     34.42
102.67   1194.16     34.56
102.77   1138.00     33.73
102.87   1163.00     34.10
102.97   1106.00     33.26
103.07   1104.88     33.24
103.17    995.00     31.54
103.27   1061.29     32.58
103.37    986.00     31.40
103.47    951.00     30.84
103.57    932.00     30.53
103.67    806.83     28.40
103.77    826.00     28.74
103.87    779.00     27.91
103.97    793.00     28.16
104.07    752.00     27.42
104.17    683.00     26.13
104.27    696.00     26.38
104.37    629.00     25.08
104.47    638.00     25.26
104.57    584.00     24.17
104.67    576.00     24.00
104.77    573.00     23.94
104.87    592.00     24.33
104.97    521.94     22.85
105.07    547.40     23.40
105.17    569.84     23.87
105.27    488.63     22.10
105.37    534.41     23.12
105.47    530.00     23.02
105.57    543.00     23.30
105.67    543.00     23.30
105.77    493.00     22.20
105.87    517.96     22.76
105.97    562.97     23.73
106.07    548.00     23.41
106.17    534.00     23.11
106.27    608.00     24.66
106.37    584.48     24.18
106.47    614.00     24.78
106.57    558.69     23.64
106.67    576.00     24.00
106.77    624.00     24.98
106.87    615.00     24.80
106.97    634.00     25.18
107.07    614.03     24.78
107.17    666.42     25.82
107.27    636.00     25.22
107.37    674.00     25.96
107.47    634.00     25.18
107.57    674.76     25.98
107.67    744.54     27.29
107.77    710.32     26.65
107.87    666.00     25.81
107.97    705.10     26.55
108.07    721.18     26.85
108.17    671.00     25.90
108.27    726.99     26.96
108.37    639.23     25.28
108.47    643.00     25.36
108.57    703.75     26.53
108.67    735.33     27.12
108.77    660.00     25.69
108.87    692.00     26.31
108.97    682.00     26.12
109.07    705.42     26.56
109.17    685.00     26.17
109.27    679.75     26.07
109.37    661.00     25.71
109.47    708.85     26.62
109.57    673.08     25.94
109.67    706.00     26.57
109.77    649.00     25.48
109.87    609.00     24.68
109.97    673.40     25.95
110.07    664.00     25.77
110.17    616.00     24.82
110.27    597.13     24.44
110.37    633.00     25.16
110.47    586.00     24.21
110.57    622.00     24.94
110.67    557.97     23.62
110.77    559.40     23.65
110.87    570.00     23.87
110.97    544.05     23.32
111.07    567.00     23.81
111.17    553.00     23.52
111.27    552.47     23.50
111.37    522.64     22.86
111.47    535.00     23.13
111.57    509.86     22.58
111.67    532.00     23.07
111.77    586.75     24.22
111.87    534.28     23.11
111.97    531.00     23.04
112.07    560.94     23.68
112.17    547.00     23.39
112.27    573.07     23.94
112.37    557.78     23.62
112.47    531.67     23.06
112.57    562.12     23.71
112.67    562.27     23.71
112.77    603.02     24.56
112.87    531.00     23.04
112.97    561.00     23.69
113.07    585.00     24.19
113.17    567.27     23.82
113.27    612.28     24.74
113.37    625.00     25.00
113.47    599.00     24.47
113.57    638.00     25.26
113.67    654.66     25.59
113.77    627.00     25.04
113.87    648.00     25.46
113.97    686.00     26.19
114.07    681.12     26.10
114.17    752.00     27.42
114.27    816.82     28.58
114.37    809.16     28.45
114.47    865.47     29.42
114.57    960.00     30.98
114.67    957.00     30.94
114.77   1087.78     32.98
114.87   1218.00     34.90
114.97   1367.75     36.98
115.07   1491.00     38.61
115.17   1730.00     41.59
115.27   1941.00     44.06
115.37   2114.84     45.99
115.47   2338.03     48.35
115.57   2627.00     51.25
115.67   2987.00     54.65
115.77   3231.00     56.84
115.87   3425.00     58.52
115.97   3989.00     63.16
116.07   4226.00     65.01
116.17   4652.00     68.21
116.27   5020.00     70.85
116.37   5282.00     72.68
116.47   5556.00     74.54
116.57   6226.00     78.91
116.67   6214.33     78.83
116.77   6655.19     81.58
116.87   6704.00     81.88
116.97   6839.00     82.70
117.07   6928.00     83.23
117.17   6846.10     82.74
117.27   6800.91     82.47
117.37   6730.00     82.04
117.47   6490.00     80.56
117.57   6069.41     77.91
117.67   5935.32     77.04
117.77   5494.00     74.12
117.87   5092.00     71.36
117.97   4989.66     70.64
118.07   4477.00     66.91
118.17   4174.00     64.61
118.27   3797.08     61.62
118.37   3555.00     59.62
118.47   3153.00     56.15
118.57   2815.00     53.06
118.67   2493.28     49.93
118.77   2337.47     48.35
118.87   2024.00     44.99
118.97   1806.00     42.50
119.07   1620.00     40.25
119.17   1445.00     38.01
119.27   1359.46     36.87
119.37   1163.06     34.10
119.47   1171.00     34.22
119.57   1060.31     32.56
119.67    994.00     31.53
119.77    900.00     30.00
119.87    812.53     28.50
119.97    774.00     27.82
120.07    704.44     26.54
120.17    753.29     27.45
120.27    713.00     26.70
120.37    700.00     26.46
120.47    661.00     25.71
120.57    619.00     24.88
120.67    626.51     25.03
120.77    604.00     24.58
120.87    609.69     24.69
120.97    564.73     23.76
121.07    605.00     24.60
121.17    572.00     23.92
121.27    614.00     24.78
121.37    628.41     25.07
121.47    592.00     24.33
121.57    566.00     23.79
121.67    593.00     24.35
121.77    587.00     24.23
121.87    552.00     23.49
121.97    539.00     23.22
122.07    603.00     24.56
122.17    583.00     24.15
122.27    593.64     24.36
122.37    593.00     24.35
122.47    621.00     24.92
122.57    616.00     24.82
122.67    586.00     24.21
122.77    603.00     24.56
122.87    685.00     26.17
122.97    644.00     25.38
123.07    616.00     24.82
123.17    643.00     25.36
123.27    612.57     24.75
123.37    595.05     24.39
123.47    614.00     24.78
123.57    585.00     24.19
123.67    675.35     25.99
123.77    668.59     25.86
123.87    665.00     25.79
123.97    570.70     23.89
124.07    590.00     24.29
124.17    631.00     25.12
124.27    591.00     24.31
124.37    626.00     25.02
124.47    613.00     24.76
124.57    563.00     23.73
124.67    632.00     25.14
124.77    594.00     24.37
124.87    575.00     23.98
124.97    626.00     25.02
