XYDATA



INTER 1.0 1.0 0 0
TEMP 1048.092
  9.97    531.20     23.05
 10.07    592.00     24.33
 10.17    608.00     24.66
 10.27    606.12     24.62
 10.37    595.00     24.39
 10.47    594.00     24.37
 10.57    598.00     24.45
 10.67    552.00     23.49
 10.77    539.81     23.23
 10.87    605.33     24.60
 10.97    605.00     24.60
 11.07    576.42     24.01
 11.17    590.00     24.29
 11.27    527.00     22.96
 11.37    559.00     23.64
 11.47    585.66     24.20
 11.57    606.00     24.62
 11.67    568.00     23.83
 11.77    540.73     23.25
 11.87    572.42     23.93
 11.97    642.00     25.34
 12.07    715.00     26.74
 12.17    682.00     26.12
 12.27    678.00     26.04
 12.37    657.49     25.64
 12.47    616.00     24.82
 12.57    629.75     25.09
 12.67    579.00     24.06
 12.77    555.00     23.56
 12.87    619.95     24.90
 12.97    552.20     23.50
 13.07    611.15     24.72
 13.17    589.00     24.27
 13.27    546.00     23.37
 13.37    555.63     23.57
 13.47    549.64     23.44
 13.57    569.00     23.85
 13.67    566.00     23.79
 13.77    577.00     24.02
 13.87    553.00     23.52
 13.97    525.00     22.91
 14.07    547.00     23.39
 14.17    538.00     23.19
 14.27    609.17     24.68
 14.37    552.00     23.49
 14.47    596.33     24.42
 14.57    581.00     24.10
 14.67    531.00     23.04
 14.77    610.36     24.71
 14.87    494.00     22.23
 14.97    537.00     23.17
 15.07    522.62     22.86
 15.17    558.00     23.62
 15.27    525.56     22.93
 15.37    524.00     22.89
 15.47    548.00     23.41
 15.57    557.00     23.60
 15.67    551.00     23.47
 15.77    584.00     24.17
 15.87    541.00     23.26
 15.97    572.17     23.92
 16.07    594.00     24.37
 16.17    542.74     23.30
 16.27    552.00     23.49
 16.37    536.00     23.15
 16.47    558.00     23.62
 16.57    566.00     23.79
 16.67    560.00     23.66
 16.77    576.00     24.00
 16.87    546.00     23.37
 16.97    562.00     23.71
 17.07    599.00     24.47
 17.17    558.00     23.62
 17.27    554.82     23.55
 17.37    571.81     23.91
 17.47    610.06     24.70
 17.57    527.69     22.97
 17.67    529.00     23.00
 17.77    605.00     24.60
 17.87    570.00     23.87
 17.97    582.00     24.12
 18.07    570.00     23.87
 18.17    553.00     23.52
 18.27    563.24     23.73
 18.37    555.00     23.56
 18.47    518.28     22.77
 18.57    598.00     24.45
 18.67    573.46     23.95
 18.77    540.00     23.24
 18.87    590.57     24.30
 18.97    584.00     24.17
 19.07    542.95     23.30
 19.17    518.00     22.76
 19.27    526.27     22.94
 19.37    492.00     22.18
 19.47    562.27     23.71
 19.57    552.00     23.49
 19.67    546.00     23.37
 19.77    565.39     23.78
 19.87    565.51     23.78
 19.97    572.96     23.94
 20.07    556.00     23.58
 20.17    564.00     23.75
 20.27    540.00     23.24
 20.37    596.25     24.42
 20.47    534.48     23.12
 20.57    541.00     23.26
 20.67    544.00     23.32
 20.77    543.00     23.30
 20.87    540.00     23.24
 20.97    537.58     23.19
 21.07    514.16     22.68
 21.17    546.05     23.37
 21.27    531.99     23.06
 21.37    564.46     23.76
 21.47    555.00     23.56
 21.57    545.00     23.35
 21.67    540.89     23.26
 21.77    546.78     23.38
 21.87    538.00     23.19
 21.97    529.00     23.00
 22.07    527.00     22.96
 22.17    551.00     23.47
 22.27    522.00     22.85
 22.37    561.59     23.70
 22.47    563.00     23.73
 22.57    571.90     23.91
 22.67    524.81     22.91
 22.77    531.11     23.05
 22.87    545.73     23.36
 22.97    531.79     23.06
 23.07    586.71     24.22
 23.17    554.00     23.54
 23.27    562.79     23.72
 23.37    597.00     24.43
 23.47    547.00     23.39
 23.57    541.00     23.26
 23.67    594.00     24.37
 23.77    520.73     22.82
 23.87    597.67     24.45
 23.97    563.00     23.73
 24.07    592.37     24.34
 24.17    523.00     22.87
 24.27    573.00     23.94
 24.37    602.75     24.55
 24.47    586.00     24.21
 24.57    582.61     24.14
 24.67    592.00     24.33
 24.77    690.00     26.27
 24.87    649.00     25.48
 24.97    583.37     24.15
 25.07    611.00     24.72
 25.17    574.00     23.96
 25.27    564.00     23.75
 25.37    530.43     23.03
 25.47    525.00     22.91
 25.57    571.00     23.90
 25.67    549.82     23.45
 25.77    569.75     23.87
 25.87    560.00     23.66
 25.97    518.00     22.76
 26.07    568.00     23.83
 26.17    537.00     23.17
 26.27    528.00     22.98
 26.37    569.00     23.85
 26.47    593.00     24.35
 26.57    542.00     23.28
 26.67    587.00     24.23
 26.77    522.17     22.85
 26.87    568.00     23.83
 26.97    540.00     23.24
 27.07    552.44     23.50
 27.17    534.00     23.11
 27.27    582.00     24.12
 27.37    519.30     22.79
 27.47    560.38     23.67
 27.57    580.00     24.08
 27.67    596.96     24.43
 27.77    585.00     24.19
 27.87    617.00     24.84
 27.97    636.86     25.24
 28.07    726.79     26.96
 28.17    903.00     30.05
 28.27    945.35     30.75
 28.37    955.15     30.91
 28.47    764.00     27.64
 28.57    740.00     27.20
 28.67    750.00     27.39
 28.77    732.18     27.06
 28.87    761.00     27.59
 28.97    803.00     28.34
 29.07    806.11     28.39
 29.17    676.15     26.00
 29.27    621.00     24.92
 29.37    591.00     24.31
 29.47    577.00     24.02
 29.57    559.57     23.66
 29.67    571.65     23.91
 29.77    552.27     23.50
 29.87    565.00     23.77
 29.97    528.77     22.99
 30.07    599.00     24.47
 30.17    549.00     23.43
 30.27    548.16     23.41
 30.37    555.00     23.56
 30.47    509.00     22.56
 30.57    564.44     23.76
 30.67    602.00     24.54
 30.77    562.00     23.71
 30.87    633.00     25.16
 30.97    605.00     24.60
 31.07    611.00     24.72
 31.17    551.08     23.48
 31.27    543.00     23.30
 31.37    574.35     23.97
 31.47    591.00     24.31
 31.57    541.00     23.26
 31.67    527.00     22.96
 31.77    528.00     22.98
 31.87    572.00     23.92
 31.97    543.00     23.30
 32.07    551.00     23.47
 32.17    537.55     23.19
 32.27    587.00     24.23
 32.37    556.00     23.58
 32.47    565.00     23.77
 32.57    557.63     23.61
 32.67    554.00     23.54
 32.77    494.00     22.23
 32.87    493.81     22.22
 32.97    494.53     22.24
 33.07    568.00     23.83
 33.17    489.44     22.12
 33.27    512.00     22.63
 33.37    590.28     24.30
 33.47    572.00     23.92
 33.57    568.00     23.83
 33.67    654.17     25.58
 33.77    734.36     27.10
 33.87    865.00     29.41
 33.97    990.30     31.47
 34.07   1063.00     32.60
 34.17   1033.17     32.14
 34.27    846.00     29.09
 34.37    768.93     27.73
 34.47    644.00     25.38
 34.57    573.78     23.95
 34.67    556.00     23.58
 34.77    578.00     24.04
 34.87    550.00     23.45
 34.97    551.00     23.47
 35.07    523.00     22.87
 35.17    533.66     23.10
 35.27    481.38     21.94
 35.37    552.03     23.50
 35.47    506.00     22.49
 35.57    512.00     22.63
 35.67    502.49     22.42
 35.77    498.00     22.32
 35.87    526.00     22.93
 35.97    538.00     23.19
 36.07    509.00     22.56
 36.17    524.00     22.89
 36.27    475.90     21.82
 36.37    477.50     21.85
 36.47    523.25     22.87
 36.57    469.90     21.68
 36.67    516.29     22.72
 36.77    466.63     21.60
 36.87    478.37     21.87
 36.97    521.00     22.83
 37.07    497.00     22.29
 37.17    557.00     23.60
 37.27    476.80     21.84
 37.37    508.43     22.55
 37.47    548.61     23.42
 37.57    511.00     22.61
 37.67    486.00     22.05
 37.77    495.00     22.25
 37.87    523.00     22.87
 37.97    558.68     23.64
 38.07    549.32     23.44
 38.17    545.01     23.35
 38.27    494.00     22.23
 38.37    483.00     21.98
 38.47    522.08     22.85
 38.57    522.00     22.85
 38.67    522.00     22.85
 38.77    528.58     22.99
 38.87    511.00     22.61
 38.97    461.00     21.47
 39.07    520.00     22.80
 39.17    471.00     21.70
 39.27    497.03     22.29
 39.37    468.00     21.63
 39.47    460.81     21.47
 39.57    480.76     21.93
 39.67    534.82     23.13
 39.77    481.00     21.93
 39.87    474.86     21.79
 39.97    487.00     22.07
 40.07    493.00     22.20
 40.17    493.00     22.20
 40.27    487.00     22.07
 40.37    519.00     22.78
 40.47    479.00     21.89
 40.57    492.39     22.19
 40.67    450.00     21.21
 40.77    503.00     22.43
 40.87    498.00     22.32
 40.97    481.26     21.94
 41.07    472.46     21.74
 41.17    473.00     21.75
 41.27    499.00     22.34
 41.37    477.00     21.84
 41.47    516.00     22.72
 41.57    481.00     21.93
 41.67    531.57     23.06
 41.77    475.00     21.79
 41.87    493.00     22.20
 41.97    512.00     22.63
 42.07    515.00     22.69
 42.17    511.00     22.61
 42.27    541.76     23.28
 42.37    550.00     23.45
 42.47    523.00     22.87
 42.57    561.28     23.69
 42.67    606.00     24.62
 42.77    615.00     24.80
 42.87    591.78     24.33
 42.97    539.00     23.22
 43.07    512.00     22.63
 43.17    468.00     21.63
 43.27    562.24     23.71
 43.37    524.35     22.90
 43.47    514.00     22.67
 43.57    511.00     22.61
 43.67    519.68     22.80
 43.77    459.00     21.42
 43.87    475.00     21.79
 43.97    461.00     21.47
 44.07    519.00     22.78
 44.17    521.00     22.83
 44.27    539.00     23.22
 44.37    513.00     22.65
 44.47    456.49     21.37
 44.57    547.00     23.39
 44.67    474.00     21.77
 44.77    536.00     23.15
 44.87    475.73     21.81
 44.97    525.89     22.93
 45.07    469.24     21.66
 45.17    489.27     22.12
 45.27    473.10     21.75
 45.37    525.00     22.91
 45.47    492.87     22.20
 45.57    514.25     22.68
 45.67    518.00     22.76
 45.77    543.00     23.30
 45.87    503.00     22.43
 45.97    469.00     21.66
 46.07    500.00     22.36
 46.17    496.00     22.27
 46.27    474.00     21.77
 46.37    507.00     22.52
 46.47    543.00     23.30
 46.57    474.00     21.77
 46.67    503.00     22.43
 46.77    528.42     22.99
 46.87    515.65     22.71
 46.97    505.89     22.49
 47.07    466.47     21.60
 47.17    481.00     21.93
 47.27    485.00     22.02
 47.37    521.70     22.84
 47.47    508.21     22.54
 47.57    549.00     23.43
 47.67    532.75     23.08
 47.77    651.00     25.51
 47.87    538.15     23.20
 47.97    611.90     24.74
 48.07    603.03     24.56
 48.17    559.77     23.66
 48.27    567.69     23.83
 48.37    514.00     22.67
 48.47    522.00     22.85
 48.57    530.63     23.04
 48.67    515.00     22.69
 48.77    504.00     22.45
 48.87    570.00     23.87
 48.97    557.01     23.60
 49.07    518.57     22.77
 49.17    599.87     24.49
 49.27    540.00     23.24
 49.37    570.93     23.89
 49.47    637.00     25.24
 49.57    727.00     26.96
 49.67    875.00     29.58
 49.77   1036.04     32.19
 49.87   1468.00     38.31
 49.97   1801.00     42.44
 50.07   2201.46     46.92
 50.17   2481.71     49.82
 50.27   2526.03     50.26
 50.37   2224.00     47.16
 50.47   1956.59     44.23
 50.57   1439.75     37.94
 50.67   1188.51     34.47
 50.77    852.00     29.19
 50.87    761.00     27.59
 50.97    684.00     26.15
 51.07    646.00     25.42
 51.17    630.00     25.10
 51.27    648.00     25.46
 51.37    536.05     23.15
 51.47    607.64     24.65
 51.57    533.45     23.10
 51.67    545.00     23.35
 51.77    508.38     22.55
 51.87    537.13     23.18
 51.97    549.00     23.43
 52.07    562.00     23.71
 52.17    547.00     23.39
 52.27    541.00     23.26
 52.37    569.50     23.86
 52.47    535.15     23.13
 52.57    575.00     23.98
 52.67    620.00     24.90
 52.77    608.00     24.66
 52.87    656.00     25.61
 52.97    728.93     27.00
 53.07    744.14     27.28
 53.17    938.00     30.63
 53.27    988.00     31.43
 53.37   1118.00     33.44
 53.47   1233.02     35.11
 53.57   1151.00     33.93
 53.67   1143.00     33.81
 53.77   1012.00     31.81
 53.87    947.80     30.79
 53.97    729.00     27.00
 54.07    711.93     26.68
 54.17    598.00     24.45
 54.27    617.00     24.84
 54.37    595.00     24.39
 54.47    574.00     23.96
 54.57    539.00     23.22
 54.67    509.92     22.58
 54.77    523.28     22.88
 54.87    506.25     22.50
 54.97    587.00     24.23
 55.07    560.00     23.66
 55.17    561.00     23.69
 55.27    587.00     24.23
 55.37    593.00     24.35
 55.47    626.00     25.02
 55.57    527.22     22.96
 55.67    572.00     23.92
 55.77    583.00     24.15
 55.87    627.50     25.05
 55.97    596.99     24.43
 56.07    672.54     25.93
 56.17    813.56     28.52
 56.27    916.00     30.27
 56.37   1089.00     33.00
 56.47   1488.03     38.58
 56.57   1762.00     41.98
 56.67   2201.64     46.92
 56.77   2363.74     48.62
 56.87   2628.00     51.26
 56.97   2634.23     51.32
 57.07   2333.00     48.30
 57.17   2017.41     44.92
 57.27   1721.00     41.48
 57.37   1418.00     37.66
 57.47   1178.67     34.33
 57.57    965.00     31.06
 57.67    808.00     28.43
 57.77    699.93     26.46
 57.87    647.74     25.45
 57.97    637.11     25.24
 58.07    702.43     26.50
 58.17    685.80     26.19
 58.27    735.00     27.11
 58.37    785.00     28.02
 58.47    859.00     29.31
 58.57   1049.46     32.40
 58.67   1103.00     33.21
 58.77   1205.00     34.71
 58.87   1294.00     35.97
 58.97   1302.00     36.08
 59.07   1369.00     37.00
 59.17   1358.00     36.85
 59.27   1275.13     35.71
 59.37   1321.00     36.35
 59.47   1251.00     35.37
 59.57   1151.00     33.93
 59.67   1173.00     34.25
 59.77   1200.00     34.64
 59.87   1307.00     36.15
 59.97   1311.45     36.21
 60.07   1461.00     38.22
 60.17   1514.00     38.91
 60.27   1608.00     40.10
 60.37   1432.52     37.85
 60.47   1431.11     37.83
 60.57   1186.56     34.45
 60.67   1061.19     32.58
 60.77    932.00     30.53
 60.87    773.70     27.82
 60.97    781.60     27.96
 61.07    678.00     26.04
 61.17    637.75     25.25
 61.27    643.00     25.36
 61.37    627.00     25.04
 61.47    736.00     27.13
 61.57    766.00     27.68
 61.67    890.00     29.83
 61.77    957.00     30.94
 61.87   1097.00     33.12
 61.97   1298.92     36.04
 62.07   1311.00     36.21
 62.17   1310.00     36.19
 62.27   1371.40     37.03
 62.37   1368.00     36.99
 62.47   1133.00     33.66
 62.57   1053.00     32.45
 62.67    885.00     29.75
 62.77    772.24     27.79
 62.87    641.00     25.32
 62.97    686.47     26.20
 63.07    590.00     24.29
 63.17    548.31     23.42
 63.27    602.00     24.54
 63.37    608.00     24.66
 63.47    611.00     24.72
 63.57    599.70     24.49
 63.67    572.00     23.92
 63.77    550.00     23.45
 63.87    597.00     24.43
 63.97    653.00     25.55
 64.07    755.00     27.48
 64.17    764.00     27.64
 64.27    852.59     29.20
 64.37    909.00     30.15
 64.47    897.24     29.95
 64.57   1020.35     31.94
 64.67   1094.00     33.08
 64.77   1040.00     32.25
 64.87    937.67     30.62
 64.97    921.77     30.36
 65.07    865.00     29.41
 65.17    788.00     28.07
 65.27    762.00     27.60
 65.37    691.72     26.30
 65.47    603.00     24.56
 65.57    606.00     24.62
 65.67    622.00     24.94
 65.77    574.00     23.96
 65.87    591.21     24.31
 65.97    567.00     23.81
 66.07    604.00     24.58
 66.17    571.00     23.90
 66.27    507.00     22.52
 66.37    570.00     23.87
 66.47    583.64     24.16
 66.57    576.00     24.00
 66.67    544.84     23.34
 66.77    559.00     23.64
 66.87    621.00     24.92
 66.97    606.00     24.62
 67.07    692.51     26.32
 67.17    744.24     27.28
 67.27    758.00     27.53
 67.37    915.00     30.25
 67.47   1084.00     32.92
 67.57   1342.00     36.63
 67.67   1583.00     39.79
 67.77   1793.00     42.34
 67.87   2049.00     45.27
 67.97   2373.00     48.71
 68.07   2406.88     49.06
 68.17   2443.00     49.43
 68.27   2325.00     48.22
 68.37   2183.56     46.73
 68.47   1818.04     42.64
 68.57   1570.16     39.63
 68.67   1354.34     36.80
 68.77   1126.00     33.56
 68.87    861.00     29.34
 68.97    826.00     28.74
 69.07    793.00     28.16
 69.17    629.63     25.09
 69.27    611.00     24.72
 69.37    580.00     24.08
 69.47    548.00     23.41
 69.57    595.00     24.39
 69.67    575.00     23.98
 69.77    584.07     24.17
 69.87    528.64     22.99
 69.97    585.00     24.19
 70.07    597.00     24.43
 70.17    547.00     23.39
 70.27    563.00     23.73
 70.37    615.52     24.81
 70.47    541.00     23.26
 70.57    563.00     23.73
 70.67    599.00     24.47
 70.77    638.00     25.26
 70.87    585.00     24.19
 70.97    667.05     25.83
 71.07    677.00     26.02
 71.17    724.00     26.91
 71.27    813.00     28.51
 71.37   1013.29     31.83
 71.47   1101.00     33.18
 71.57   1227.95     35.04
 71.67   1437.77     37.92
 71.77   1605.00     40.06
 71.87   1747.00     41.80
 71.97   1879.00     43.35
 72.07   1954.63     44.21
 72.17   1925.00     43.87
 72.27   1726.00     41.55
 72.37   1550.00     39.37
 72.47   1490.00     38.60
 72.57   1260.91     35.51
 72.67   1115.00     33.39
 72.77   1074.00     32.77
 72.87    864.00     29.39
 72.97    825.00     28.72
 73.07    758.00     27.53
 73.17    772.08     27.79
 73.27    736.66     27.14
 73.37    686.00     26.19
 73.47    634.43     25.19
 73.57    639.79     25.29
 73.67    622.00     24.94
 73.77    571.00     23.90
 73.87    585.87     24.20
 73.97    596.34     24.42
 74.07    571.00     23.90
 74.17    577.00     24.02
 74.27    604.51     24.59
 74.37    573.26     23.94
 74.47    628.00     25.06
 74.57    644.00     25.38
 74.67    565.92     23.79
 74.77    575.84     24.00
 74.87    593.00     24.35
 74.97    624.00     24.98
 75.07    518.65     22.77
 75.17    553.69     23.53
 75.27    553.00     23.52
 75.37    596.00     24.41
 75.47    534.00     23.11
 75.57    577.95     24.04
 75.67    550.00     23.45
 75.77    528.53     22.99
 75.87    573.29     23.94
 75.97    609.00     24.68
 76.07    667.00     25.83
 76.17    688.85     26.25
 76.27    647.00     25.44
 76.37    643.89     25.38
 76.47    715.38     26.75
 76.57    697.28     26.41
 76.67    740.00     27.20
 76.77    740.64     27.21
 76.87    638.73     25.27
 76.97    606.21     24.62
 77.07    599.56     24.49
 77.17    622.83     24.96
 77.27    556.00     23.58
 77.37    538.00     23.19
 77.47    526.70     22.95
 77.57    507.94     22.54
 77.67    531.00     23.04
 77.77    517.00     22.74
 77.87    530.00     23.02
 77.97    490.75     22.15
 78.07    525.00     22.91
 78.17    518.00     22.76
 78.27    501.00     22.38
 78.37    488.69     22.11
 78.47    508.00     22.54
 78.57    514.00     22.67
 78.67    486.00     22.05
 78.77    475.00     21.79
 78.87    514.00     22.67
 78.97    531.00     23.04
 79.07    542.53     23.29
 79.17    567.12     23.81
 79.27    500.00     22.36
 79.37    533.87     23.11
 79.47    539.98     23.24
 79.57    499.00     22.34
 79.67    571.18     23.90
 79.77    540.76     23.25
 79.87    506.19     22.50
 79.97    543.00     23.30
 80.07    567.00     23.81
 80.17    514.85     22.69
 80.27    582.00     24.12
 80.37    503.00     22.43
 80.47    583.66     24.16
 80.57    578.11     24.04
 80.67    625.00     25.00
 80.77    643.00     25.36
 80.87    662.66     25.74
 80.97    685.00     26.17
 81.07    721.00     26.85
 81.17    664.00     25.77
 81.27    773.00     27.80
 81.37    729.00     27.00
 81.47    729.00     27.00
 81.57    775.30     27.84
 81.67    698.00     26.42
 81.77    725.00     26.93
 81.87    733.50     27.08
 81.97    655.00     25.59
 82.07    648.36     25.46
 82.17    684.00     26.15
 82.27    596.00     24.41
 82.37    647.00     25.44
 82.47    635.74     25.21
 82.57    597.00     24.43
 82.67    625.53     25.01
 82.77    580.00     24.08
 82.87    546.00     23.37
 82.97    555.00     23.56
 83.07    562.00     23.71
 83.17    564.00     23.75
 83.27    574.40     23.97
 83.37    546.00     23.37
 83.47    541.00     23.26
 83.57    543.01     23.30
 83.67    537.00     23.17
 83.77    544.00     23.32
 83.87    563.00     23.73
 83.97    553.00     23.52
 84.07    612.94     24.76
 84.17    591.00     24.31
 84.27    514.00     22.67
 84.37    547.00     23.39
 84.47    504.00     22.45
 84.57    534.23     23.11
 84.67    545.00     23.35
 84.77    512.88     22.65
 84.87    494.18     22.23
 84.97    555.64     23.57
 85.07    513.77     22.67
 85.17    586.00     24.21
 85.27    516.00     22.72
 85.37    532.00     23.07
 85.47    493.89     22.22
 85.57    535.10     23.13
 85.67    543.00     23.30
 85.77    497.94     22.31
 85.87    547.00     23.39
 85.97    561.44     23.69
 86.07    533.00     23.09
 86.17    560.00     23.66
 86.27    482.00     21.95
 86.37    562.00     23.71
 86.47    547.00     23.39
 86.57    508.00     22.54
 86.67    550.00     23.45
 86.77    597.00     24.43
 86.87    621.00     24.92
 86.97    617.00     24.84
 87.07    591.01     24.31
 87.17    607.99     24.66
 87.27    614.56     24.79
 87.37    600.39     24.50
 87.47    657.00     25.63
 87.57    644.00     25.38
 87.67    588.45     24.26
 87.77    594.00     24.37
 87.87    598.00     24.45
 87.97    634.00     25.18
 88.07    591.00     24.31
 88.17    623.13     24.96
 88.27    587.61     24.24
 88.37    565.00     23.77
 88.47    598.00     24.45
 88.57    609.41     24.69
 88.67    597.00     24.43
 88.77    523.91     22.89
 88.87    535.20     23.13
 88.97    590.00     24.29
 89.07    598.90     24.47
 89.17    572.00     23.92
 89.27    634.00     25.18
 89.37    633.00     25.16
 89.47    581.00     24.10
 89.57    577.00     24.02
 89.67    582.89     24.14
 89.77    567.00     23.81
 89.87    617.50     24.85
 89.97    588.87     24.27
 90.07    566.00     23.79
 90.17    545.76     23.36
 90.27    518.00     22.76
 90.37    556.00     23.58
 90.47    534.00     23.11
 90.57    541.00     23.26
 90.67    511.34     22.61
 90.77    496.00     22.27
 90.87    509.15     22.56
 90.97    522.00     22.85
 91.07    460.00     21.45
 91.17    528.81     23.00
 91.27    548.00     23.41
 91.37    544.00     23.32
 91.47    521.00     22.83
 91.57    541.00     23.26
 91.67    519.00     22.78
 91.77    519.69     22.80
 91.87    581.20     24.11
 91.97    560.63     23.68
 92.07    583.00     24.15
 92.17    571.00     23.90
 92.27    577.00     24.02
 92.37    609.21     24.68
 92.47    628.00     25.06
 92.57    619.00     24.88
 92.67    642.00     25.34
 92.77    636.00     25.22
 92.87    659.16     25.67
 92.97    689.69     26.26
 93.07    763.55     27.63
 93.17    779.00     27.91
 93.27    755.49     27.49
 93.37    797.84     28.25
 93.47    751.00     27.40
 93.57    764.00     27.64
 93.67    818.00     28.60
 93.77    798.00     28.25
 93.87    757.50     27.52
 93.97    861.00     29.34
 94.07    881.08     29.68
 94.17    849.00     29.14
 94.27    868.00     29.46
 94.37    921.00     30.35
 94.47    869.42     29.49
 94.57    886.00     29.77
 94.67    858.00     29.29
 94.77    934.00     30.56
 94.87    875.00     29.58
 94.97    871.72     29.52
 95.07    849.12     29.14
 95.17    919.00     30.32
 95.27    826.84     28.75
 95.37    825.00     28.72
 95.47    822.00     28.67
 95.57    780.00     27.93
 95.67    738.00     27.17
 95.77    708.00     26.61
 95.87    718.00     26.80
 95.97    740.00     27.20
 96.07    715.48     26.75
 96.17    682.00     26.12
 96.27    787.00     28.05
 96.37    744.00     27.28
 96.47    825.00     28.72
 96.57    887.06     29.78
 96.67    932.62     30.54
 96.77    943.20     30.71
 96.87   1126.69     33.57
 96.97   1118.00     33.44
 97.07   1260.00     35.50
 97.17   1253.00     35.40
 97.27   1336.35     36.56
 97.37   1450.52     38.09
 97.47   1429.00     37.80
 97.57   1399.16     37.41
 97.67   1403.26     37.46
 97.77   1459.42     38.20
 97.87   1379.00     37.13
 97.97   1264.00     35.55
 98.07   1261.00     35.51
 98.17   1171.00     34.22
 98.27   1156.00     34.00
 98.37   1018.00     31.91
 98.47    970.70     31.16
 98.57    948.00     30.79
 98.67    919.74     30.33
 98.77    835.00     28.90
 98.87    826.00     28.74
 98.97    888.48     29.81
 99.07    840.00     28.98
 99.17    883.00     29.72
 99.27    908.00     30.13
 99.37    940.00     30.66
 99.47   1021.00     31.95
 99.57   1135.00     33.69
 99.67   1134.00     33.67
 99.77   1274.19     35.70
 99.87   1435.00     37.88
 99.97   1424.00     37.74
100.07   1577.00     39.71
100.17   1732.00     41.62
100.27   1798.64     42.41
100.37   1849.12     43.00
100.47   1936.00     44.00
100.57   2093.00     45.75
100.67   2050.00     45.28
100.77   2039.00     45.16
100.87   2040.00     45.17
100.97   2028.00     45.03
101.07   2014.37     44.88
101.17   1886.00     43.43
101.27   1801.00     42.44
101.37   1661.34     40.76
101.47   1573.00     39.66
101.57   1469.00     38.33
101.67   1483.00     38.51
101.77   1318.83     36.32
101.87   1328.00     36.44
101.97   1253.00     35.40
102.07   1230.28     35.08
102.17   1202.88     34.68
102.27   1194.00     34.55
102.37   1143.00     33.81
102.47   1082.00     32.89
102.57   1088.39     32.99
102.67   1035.00     32.17
102.77   1080.00     32.86
102.87   1013.00     31.83
102.97   1004.00     31.69
103.07    978.00     31.27
103.17    903.00     30.05
103.27    903.00     30.05
103.37    856.00     29.26
103.47    825.72     28.74
103.57    711.29     26.67
103.67    720.00     26.83
103.77    660.00     25.69
103.87    699.43     26.45
103.97    618.00     24.86
104.07    583.53     24.16
104.17    620.00     24.90
104.27    573.00     23.94
104.37    586.00     24.21
104.47    546.63     23.38
104.57    591.86     24.33
104.67    585.00     24.19
104.77    533.00     23.09
104.87    543.55     23.31
104.97    554.00     23.54
105.07    530.50     23.03
105.17    559.21     23.65
105.27    545.00     23.35
105.37    562.24     23.71
105.47    526.00     22.93
105.57    580.83     24.10
105.67    624.00     24.98
105.77    510.68     22.60
105.87    579.00     24.06
105.97    571.86     23.91
106.07    596.66     24.43
106.17    532.00     23.07
106.27    578.00     24.04
106.37    600.00     24.49
106.47    568.00     23.83
106.57    621.00     24.92
106.67    608.23     24.66
106.77    635.00     25.20
106.87    688.00     26.23
106.97    670.31     25.89
107.07    687.00     26.21
107.17    684.80     26.17
107.27    672.22     25.93
107.37    709.22     26.63
107.47    645.08     25.40
107.57    690.00     26.27
107.67    672.35     25.93
107.77    699.09     26.44
107.87    668.00     25.85
107.97    664.00     25.77
108.07    673.00     25.94
108.17    685.00     26.17
108.27    643.00     25.36
108.37    646.00     25.42
108.47    667.00     25.83
108.57    655.00     25.59
108.67    725.00     26.93
108.77    719.35     26.82
108.87    689.00     26.25
108.97    649.00     25.48
109.07    672.00     25.92
109.17    684.00     26.15
109.27    709.46     26.64
109.37    671.00     25.90
109.47    678.36     26.05
109.57    649.29     25.48
109.67    578.36     24.05
109.77    603.16     24.56
109.87    597.95     24.45
109.97    605.00     24.60
110.07    618.00     24.86
110.17    565.85     23.79
110.27    604.00     24.58
110.37    567.28     23.82
110.47    515.56     22.71
110.57    552.00     23.49
110.67    565.00     23.77
110.77    536.00     23.15
110.87    536.00     23.15
110.97    518.65     22.77
111.07    536.00     23.15
111.17    569.17     23.86
111.27    592.00     24.33
111.37    537.00     23.17
111.47    512.00     22.63
111.57    525.00     22.91
111.67    496.84     22.29
111.77    529.00     23.00
111.87    526.00     22.93
111.97    559.00     23.64
112.07    546.76     23.38
112.17    576.00     24.00
112.27    558.18     23.63
112.37    558.00     23.62
112.47    582.19     24.13
112.57    629.85     25.10
112.67    566.06     23.79
112.77    557.00     23.60
112.87    659.25     25.68
112.97    584.00     24.17
113.07    683.31     26.14
113.17    638.00     25.26
113.27    643.00     25.36
113.37    681.00     26.10
113.47    691.00     26.29
113.57    732.30     27.06
113.67    669.00     25.87
113.77    710.00     26.65
113.87    746.00     27.31
113.97    836.00     28.91
114.07    845.00     29.07
114.17    916.00     30.27
114.27   1067.61     32.67
114.37   1083.32     32.91
114.47   1160.00     34.06
114.57   1289.00     35.90
114.67   1447.00     38.04
114.77   1605.00     40.06
114.87   1816.00     42.61
114.97   2057.00     45.35
115.07   2111.34     45.95
115.17   2467.00     49.67
115.27   2816.00     53.07
115.37   2968.00     54.48
115.47   3420.00     58.48
115.57   3597.00     59.97
115.67   3889.85     62.37
115.77   4356.00     66.00
115.87   4850.00     69.64
115.97   5073.18     71.23
116.07   5490.00     74.09
116.17   5765.00     75.93
116.27   6212.03     78.82
116.37   6490.00     80.56
116.47   6421.00     80.13
116.57   6697.00     81.84
116.67   6899.72     83.06
116.77   6745.00     82.13
116.87   6670.00     81.67
116.97   6623.00     81.38
117.07   6297.00     79.35
117.17   6188.00     78.66
117.27   5617.00     74.95
117.37   5571.46     74.64
117.47   4965.00     70.46
117.57   4803.00     69.30
117.67   4327.00     65.78
117.77   4056.00     63.69
117.87   3706.00     60.88
117.97   3319.67     57.62
118.07   2969.00     54.49
118.17   2600.00     50.99
118.27   2344.00     48.41
118.37   2066.04     45.45
118.47   1988.26     44.59
118.57   1701.00     41.24
118.67   1556.00     39.45
118.77   1341.00     36.62
118.87   1199.09     34.63
118.97   1103.37     33.22
119.07   1021.00     31.95
119.17    898.87     29.98
119.27    912.11     30.20
119.37    802.00     28.32
119.47    748.00     27.35
119.57    701.15     26.48
119.67    658.64     25.66
119.77    665.00     25.79
119.87    673.00     25.94
119.97    615.00     24.80
120.07    655.51     25.60
120.17    577.18     24.02
120.27    631.26     25.12
120.37    561.15     23.69
120.47    588.00     24.25
120.57    559.00     23.64
120.67    603.00     24.56
120.77    547.00     23.39
120.87    599.00     24.47
120.97    571.00     23.90
121.07    565.00     23.77
121.17    597.00     24.43
121.27    560.00     23.66
121.37    605.55     24.61
121.47    560.00     23.66
121.57    575.04     23.98
121.67    578.77     24.06
121.77    578.00     24.04
121.87    574.58     23.97
121.97    565.44     23.78
122.07    588.26     24.25
122.17    580.00     24.08
122.27    648.00     25.46
122.37    686.00     26.19
122.47    589.49     24.28
122.57    689.00     26.25
122.67    678.78     26.05
122.77    672.00     25.92
122.87    653.00     25.55
122.97    634.00     25.18
123.07    614.40     24.79
123.17    601.97     24.53
123.27    694.00     26.34
123.37    661.15     25.71
123.47    612.00     24.74
123.57    628.92     25.08
123.67    590.00     24.29
123.77    632.00     25.14
123.87    617.00     24.84
123.97    654.00     25.57
124.07    655.88     25.61
124.17    675.00     25.98
124.27    585.00     24.19
124.37    603.00     24.56
124.47    603.00     24.56
124.57    651.00     25.51
124.67    581.00     24.10
124.77    589.32     24.28
124.87    559.10     23.65
124.97    604.00     24.58
