XYDATA



INTER 1.0 1.0 0 0
TEMP 717.216
  9.97    636.00     25.22
 10.07    681.00     26.10
 10.17    630.00     25.10
 10.27    633.00     25.16
 10.37    596.14     24.42
 10.47    667.00     25.83
 10.57    666.00     25.81
 10.67    672.00     25.92
 10.77    670.00     25.88
 10.87    678.00     26.04
 10.97    660.00     25.69
 11.07    694.00     26.34
 11.17    666.00     25.81
 11.27    652.75     25.55
 11.37    689.00     26.25
 11.47    659.00     25.67
 11.57    674.00     25.96
 11.67    632.12     25.14
 11.77    712.00     26.68
 11.87    782.00     27.96
 11.97    750.00     27.39
 12.07    733.00     27.07
 12.17    799.01     28.27
 12.27    801.00     28.30
 12.37    719.14     26.82
 12.47    688.36     26.24
 12.57    646.00     25.42
 12.67    655.34     25.60
 12.77    636.96     25.24
 12.87    641.00     25.32
 12.97    619.00     24.88
 13.07    706.00     26.57
 13.17    669.00     25.87
 13.27    636.00     25.22
 13.37    605.00     24.60
 13.47    616.00     24.82
 13.57    598.00     24.45
 13.67    585.00     24.19
 13.77    634.00     25.18
 13.87    596.00     24.41
 13.97    633.12     25.16
 14.07    636.00     25.22
 14.17    686.42     26.20
 14.27    620.00     24.90
 14.37    583.00     24.15
 14.47    610.00     24.70
 14.57    599.00     24.47
 14.67    631.00     25.12
 14.77    681.34     26.10
 14.87    670.96     25.90
 14.97    587.63     24.24
 15.07    621.95     24.94
 15.17    598.00     24.45
 15.27    674.89     25.98
 15.37    638.00     25.26
 15.47    591.00     24.31
 15.57    606.00     24.62
 15.67    620.22     24.90
 15.77    611.73     24.73
 15.87    632.00     25.14
 15.97    632.00     25.14
 16.07    632.00     25.14
 16.17    609.00     24.68
 16.27    656.63     25.62
 16.37    621.84     24.94
 16.47    614.00     24.78
 16.57    632.00     25.14
 16.67    590.00     24.29
 16.77    650.28     25.50
 16.87    676.49     26.01
 16.97    602.84     24.55
 17.07    611.00     24.72
 17.17    639.00     25.28
 17.27    633.05     25.16
 17.37    544.00     23.32
 17.47    622.88     24.96
 17.57    615.30     24.81
 17.67    637.00     25.24
 17.77    629.30     25.09
 17.87    631.00     25.12
 17.97    654.14     25.58
 18.07    637.70     25.25
 18.17    664.76     25.78
 18.27    624.45     24.99
 18.37    570.00     23.87
 18.47    620.00     24.90
 18.57    643.61     25.37
 18.67    611.00     24.72
 18.77    612.00     24.74
 18.87    626.00     25.02
 18.97    597.60     24.45
 19.07    670.46     25.89
 19.17    592.00     24.33
 19.27    596.12     24.42
 19.37    588.00     24.25
 19.47    666.31     25.81
 19.57    583.00     24.15
 19.67    611.00     24.72
 19.77    588.00     24.25
 19.87    606.19     24.62
 19.97    586.14     24.21
 20.07    663.46     25.76
 20.17    613.00     24.76
 20.27    614.00     24.78
 20.37    606.18     24.62
 20.47    544.00     23.32
 20.57    581.35     24.11
 20.67    627.20     25.04
 20.77    581.00     24.10
 20.87    657.94     25.65
 20.97    641.95     25.34
 21.07    636.00     25.22
 21.17    613.00     24.76
 21.27    607.00     24.64
 21.37    643.00     25.36
 21.47    584.33     24.17
 21.57    636.00     25.22
 21.67    618.00     24.86
 21.77    608.95     24.68
 21.87    617.00     24.84
 21.97    665.00     25.79
 22.07    650.51     25.51
 22.17    578.00     24.04
 22.27    631.95     25.14
 22.37    606.41     24.63
 22.47    608.00     24.66
 22.57    588.00     24.25
 22.67    564.00     23.75
 22.77    642.32     25.34
 22.87    648.00     25.46
 22.97    652.96     25.55
 23.07    610.00     24.70
 23.17    626.12     25.02
 23.27    627.00     25.04
 23.37    578.00     24.04
 23.47    613.00     24.76
 23.57    611.00     24.72
 23.67    612.00     24.74
 23.77    646.00     25.42
 23.87    588.85     24.27
 23.97    618.90     24.88
 24.07    634.00     25.18
 24.17    626.00     25.02
 24.27    646.00     25.42
 24.37    620.00     24.90
 24.47    648.00     25.46
 24.57    663.17     25.75
 24.67    651.47     25.52
 24.77    685.00     26.17
 24.87    693.00     26.32
 24.97    718.00     26.80
 25.07    653.00     25.55
 25.17    661.00     25.71
 25.27    698.59     26.43
 25.37    669.00     25.87
 25.47    689.00     26.25
 25.57    641.00     25.32
 25.67    663.00     25.75
 25.77    687.00     26.21
 25.87    624.00     24.98
 25.97    598.32     24.46
 26.07    637.00     25.24
 26.17    609.00     24.68
 26.27    621.00     24.92
 26.37    677.00     26.02
 26.47    623.00     24.96
 26.57    662.00     25.73
 26.67    673.00     25.94
 26.77    687.00     26.21
 26.87    597.71     24.45
 26.97    672.00     25.92
 27.07    616.60     24.83
 27.17    614.82     24.80
 27.27    612.99     24.76
 27.37    698.00     26.42
 27.47    747.00     27.33
 27.57    673.58     25.95
 27.67    677.49     26.03
 27.77    827.00     28.76
 27.87    849.00     29.14
 27.97    976.27     31.25
 28.07   1229.00     35.06
 28.17   1597.00     39.96
 28.27   2060.00     45.39
 28.37   2298.00     47.94
 28.47   2296.73     47.92
 28.57   1888.87     43.46
 28.67   1684.80     41.05
 28.77   1356.00     36.82
 28.87   1540.02     39.24
 28.97   1542.00     39.27
 29.07   1662.00     40.77
 29.17   1607.00     40.09
 29.27   1463.00     38.25
 29.37   1088.00     32.98
 29.47    898.10     29.97
 29.57    863.25     29.38
 29.67    761.87     27.60
 29.77    804.00     28.35
 29.87    629.53     25.09
 29.97    728.00     26.98
 30.07    726.00     26.94
 30.17    646.39     25.42
 30.27    740.00     27.20
 30.37    665.00     25.79
 30.47    716.00     26.76
 30.57    651.00     25.51
 30.67    591.72     24.33
 30.77    716.00     26.76
 30.87    704.00     26.53
 30.97    731.00     27.04
 31.07    728.76     27.00
 31.17    702.10     26.50
 31.27    611.61     24.73
 31.37    670.00     25.88
 31.47    701.00     26.48
 31.57    626.24     25.02
 31.67    622.00     24.94
 31.77    634.00     25.18
 31.87    573.69     23.95
 31.97    610.00     24.70
 32.07    607.00     24.64
 32.17    558.76     23.64
 32.27    597.00     24.43
 32.37    594.81     24.39
 32.47    639.86     25.30
 32.57    612.20     24.74
 32.67    622.50     24.95
 32.77    620.46     24.91
 32.87    640.40     25.31
 32.97    619.00     24.88
 33.07    592.00     24.33
 33.17    620.00     24.90
 33.27    584.00     24.17
 33.37    591.00     24.31
 33.47    579.17     24.07
 33.57    648.00     25.46
 33.67    640.10     25.30
 33.77    761.00     27.59
 33.87    806.16     28.39
 33.97    897.00     29.95
 34.07   1028.00     32.06
 34.17   1094.00     33.08
 34.27   1059.20     32.55
 34.37   1043.00     32.30
 34.47    857.00     29.27
 34.57    776.00     27.86
 34.67    707.00     26.59
 34.77    615.00     24.80
 34.87    671.00     25.90
 34.97    629.00     25.08
 35.07    646.00     25.42
 35.17    576.00     24.00
 35.27    618.91     24.88
 35.37    544.62     23.34
 35.47    576.00     24.00
 35.57    548.00     23.41
 35.67    567.00     23.81
 35.77    573.97     23.96
 35.87    585.00     24.19
 35.97    611.25     24.72
 36.07    536.87     23.17
 36.17    606.13     24.62
 36.27    560.00     23.66
 36.37    539.00     23.22
 36.47    546.00     23.37
 36.57    549.06     23.43
 36.67    492.00     22.18
 36.77    563.23     23.73
 36.87    557.00     23.60
 36.97    580.54     24.09
 37.07    564.00     23.75
 37.17    603.88     24.57
 37.27    597.72     24.45
 37.37    509.00     22.56
 37.47    542.81     23.30
 37.57    531.00     23.04
 37.67    539.00     23.22
 37.77    557.75     23.62
 37.87    618.78     24.88
 37.97    624.00     24.98
 38.07    553.00     23.52
 38.17    591.00     24.31
 38.27    561.56     23.70
 38.37    578.00     24.04
 38.47    568.00     23.83
 38.57    577.00     24.02
 38.67    572.00     23.92
 38.77    565.00     23.77
 38.87    554.00     23.54
 38.97    519.70     22.80
 39.07    507.00     22.52
 39.17    559.00     23.64
 39.27    526.50     22.95
 39.37    555.00     23.56
 39.47    552.64     23.51
 39.57    596.56     24.42
 39.67    572.00     23.92
 39.77    539.55     23.23
 39.87    562.00     23.71
 39.97    542.69     23.30
 40.07    544.00     23.32
 40.17    550.00     23.45
 40.27    557.15     23.60
 40.37    553.54     23.53
 40.47    520.90     22.82
 40.57    568.54     23.84
 40.67    515.89     22.71
 40.77    522.00     22.85
 40.87    537.00     23.17
 40.97    553.00     23.52
 41.07    524.00     22.89
 41.17    582.59     24.14
 41.27    534.37     23.12
 41.37    547.00     23.39
 41.47    504.94     22.47
 41.57    532.88     23.08
 41.67    571.86     23.91
 41.77    504.00     22.45
 41.87    541.00     23.26
 41.97    575.54     23.99
 42.07    517.11     22.74
 42.17    546.00     23.37
 42.27    538.00     23.19
 42.37    573.52     23.95
 42.47    620.87     24.92
 42.57    618.76     24.87
 42.67    643.47     25.37
 42.77    608.00     24.66
 42.87    626.76     25.04
 42.97    641.00     25.32
 43.07    634.00     25.18
 43.17    668.22     25.85
 43.27    564.00     23.75
 43.37    559.00     23.64
 43.47    563.19     23.73
 43.57    511.00     22.61
 43.67    605.31     24.60
 43.77    555.00     23.56
 43.87    548.95     23.43
 43.97    533.00     23.09
 44.07    555.00     23.56
 44.17    561.00     23.69
 44.27    557.00     23.60
 44.37    543.00     23.30
 44.47    531.90     23.06
 44.57    534.00     23.11
 44.67    590.00     24.29
 44.77    508.84     22.56
 44.87    546.00     23.37
 44.97    572.10     23.92
 45.07    517.57     22.75
 45.17    554.00     23.54
 45.27    547.62     23.40
 45.37    572.00     23.92
 45.47    562.65     23.72
 45.57    520.49     22.81
 45.67    545.13     23.35
 45.77    585.00     24.19
 45.87    542.00     23.28
 45.97    568.00     23.83
 46.07    536.11     23.15
 46.17    531.00     23.04
 46.27    593.90     24.37
 46.37    569.00     23.85
 46.47    573.00     23.94
 46.57    542.00     23.28
 46.67    578.00     24.04
 46.77    521.00     22.83
 46.87    521.00     22.83
 46.97    563.00     23.73
 47.07    560.00     23.66
 47.17    569.17     23.86
 47.27    571.00     23.90
 47.37    558.00     23.62
 47.47    525.27     22.92
 47.57    515.00     22.69
 47.67    610.02     24.70
 47.77    573.00     23.94
 47.87    661.00     25.71
 47.97    689.00     26.25
 48.07    631.00     25.12
 48.17    637.00     25.24
 48.27    658.00     25.65
 48.37    588.39     24.26
 48.47    615.00     24.80
 48.57    574.00     23.96
 48.67    613.53     24.77
 48.77    589.00     24.27
 48.87    600.00     24.49
 48.97    590.00     24.29
 49.07    601.14     24.52
 49.17    620.00     24.90
 49.27    615.27     24.80
 49.37    606.00     24.62
 49.47    623.00     24.96
 49.57    622.00     24.94
 49.67    685.00     26.17
 49.77    757.00     27.51
 49.87    981.88     31.33
 49.97   1148.38     33.89
 50.07   1423.81     37.73
 50.17   1839.00     42.88
 50.27   2135.00     46.21
 50.37   2571.00     50.71
 50.47   2634.00     51.32
 50.57   2414.03     49.13
 50.67   1974.52     44.44
 50.77   1718.00     41.45
 50.87   1326.00     36.41
 50.97   1015.00     31.86
 51.07    940.22     30.66
 51.17    829.53     28.80
 51.27    706.00     26.57
 51.37    672.64     25.94
 51.47    701.00     26.48
 51.57    659.00     25.67
 51.67    645.00     25.40
 51.77    668.00     25.85
 51.87    619.00     24.88
 51.97    578.88     24.06
 52.07    591.00     24.31
 52.17    644.00     25.38
 52.27    560.41     23.67
 52.37    552.48     23.50
 52.47    614.00     24.78
 52.57    584.39     24.17
 52.67    599.44     24.48
 52.77    648.00     25.46
 52.87    659.17     25.67
 52.97    689.00     26.25
 53.07    709.00     26.63
 53.17    688.02     26.23
 53.27    800.00     28.28
 53.37    863.00     29.38
 53.47   1033.77     32.15
 53.57   1120.00     33.47
 53.67   1198.00     34.61
 53.77   1279.00     35.76
 53.87   1214.00     34.84
 53.97   1181.00     34.37
 54.07   1083.00     32.91
 54.17    947.62     30.78
 54.27    918.19     30.30
 54.37    745.57     27.31
 54.47    689.00     26.25
 54.57    647.00     25.44
 54.67    632.00     25.14
 54.77    609.29     24.68
 54.87    638.00     25.26
 54.97    642.58     25.35
 55.07    582.88     24.14
 55.17    587.00     24.23
 55.27    646.00     25.42
 55.37    560.00     23.66
 55.47    654.88     25.59
 55.57    585.00     24.19
 55.67    607.00     24.64
 55.77    659.00     25.67
 55.87    635.00     25.20
 55.97    709.00     26.63
 56.07    676.13     26.00
 56.17    700.00     26.46
 56.27    713.62     26.71
 56.37    841.00     29.00
 56.47    963.61     31.04
 56.57   1176.96     34.31
 56.67   1262.00     35.52
 56.77   1644.00     40.55
 56.87   1949.49     44.15
 56.97   2300.00     47.96
 57.07   2530.00     50.30
 57.17   2612.00     51.11
 57.27   2444.21     49.44
 57.37   2189.45     46.79
 57.47   1950.61     44.17
 57.57   1596.00     39.95
 57.67   1344.00     36.66
 57.77   1080.00     32.86
 57.87    973.04     31.19
 57.97    924.54     30.41
 58.07    833.10     28.86
 58.17    736.00     27.13
 58.27    730.79     27.03
 58.37    787.00     28.05
 58.47    722.30     26.88
 58.57    829.00     28.79
 58.67    822.74     28.68
 58.77    960.00     30.98
 58.87   1005.00     31.70
 58.97   1136.00     33.70
 59.07   1211.00     34.80
 59.17   1263.00     35.54
 59.27   1277.00     35.74
 59.37   1365.00     36.95
 59.47   1260.00     35.50
 59.57   1267.00     35.59
 59.67   1250.00     35.36
 59.77   1193.83     34.55
 59.87   1135.00     33.69
 59.97   1204.00     34.70
 60.07   1240.44     35.22
 60.17   1336.00     36.55
 60.27   1501.00     38.74
 60.37   1493.76     38.65
 60.47   1489.23     38.59
 60.57   1594.00     39.92
 60.67   1487.76     38.57
 60.77   1433.66     37.86
 60.87   1223.00     34.97
 60.97   1102.00     33.20
 61.07   1008.00     31.75
 61.17    884.00     29.73
 61.27    844.97     29.07
 61.37    806.00     28.39
 61.47    772.00     27.78
 61.57    765.00     27.66
 61.67    770.00     27.75
 61.77    857.00     29.27
 61.87    896.00     29.93
 61.97    987.54     31.43
 62.07   1072.00     32.74
 62.17   1171.00     34.22
 62.27   1273.30     35.68
 62.37   1348.00     36.72
 62.47   1390.00     37.28
 62.57   1380.51     37.16
 62.67   1275.00     35.71
 62.77   1261.00     35.51
 62.87   1071.00     32.73
 62.97    970.00     31.14
 63.07    846.00     29.09
 63.17    775.00     27.84
 63.27    763.46     27.63
 63.37    684.00     26.15
 63.47    716.46     26.77
 63.57    676.00     26.00
 63.67    613.03     24.76
 63.77    623.00     24.96
 63.87    623.91     24.98
 63.97    668.33     25.85
 64.07    686.00     26.19
 64.17    634.89     25.20
 64.27    730.13     27.02
 64.37    843.00     29.03
 64.47    855.00     29.24
 64.57    948.00     30.79
 64.67   1014.00     31.84
 64.77   1005.53     31.71
 64.87   1101.00     33.18
 64.97   1221.00     34.94
 65.07   1152.00     33.94
 65.17   1139.20     33.75
 65.27   1003.06     31.67
 65.37    981.49     31.33
 65.47    912.00     30.20
 65.57    856.77     29.27
 65.67    772.00     27.78
 65.77    760.00     27.57
 65.87    734.00     27.09
 65.97    739.00     27.18
 66.07    655.00     25.59
 66.17    661.00     25.71
 66.27    677.17     26.02
 66.37    614.59     24.79
 66.47    590.29     24.30
 66.57    585.00     24.19
 66.67    600.00     24.49
 66.77    591.01     24.31
 66.87    641.00     25.32
 66.97    619.00     24.88
 67.07    596.00     24.41
 67.17    702.00     26.50
 67.27    696.00     26.38
 67.37    714.00     26.72
 67.47    853.09     29.21
 67.57    810.00     28.46
 67.67    965.44     31.07
 67.77   1101.00     33.18
 67.87   1263.63     35.55
 67.97   1488.00     38.57
 68.07   1758.00     41.93
 68.17   1978.00     44.47
 68.27   2172.39     46.61
 68.37   2399.00     48.98
 68.47   2406.00     49.05
 68.57   2358.00     48.56
 68.67   2174.00     46.63
 68.77   2033.00     45.09
 68.87   1720.00     41.47
 68.97   1495.56     38.67
 69.07   1240.00     35.21
 69.17   1063.00     32.60
 69.27   1027.46     32.05
 69.37    862.87     29.37
 69.47    799.00     28.27
 69.57    683.23     26.14
 69.67    642.86     25.35
 69.77    685.00     26.17
 69.87    670.00     25.88
 69.97    653.00     25.55
 70.07    643.79     25.37
 70.17    586.00     24.21
 70.27    635.00     25.20
 70.37    666.31     25.81
 70.47    635.00     25.20
 70.57    640.00     25.30
 70.67    633.36     25.17
 70.77    621.00     24.92
 70.87    616.60     24.83
 70.97    630.00     25.10
 71.07    626.97     25.04
 71.17    692.00     26.31
 71.27    724.00     26.91
 71.37    765.00     27.66
 71.47    762.00     27.60
 71.57    888.13     29.80
 71.67    989.00     31.45
 71.77   1106.00     33.26
 71.87   1204.00     34.70
 71.97   1455.93     38.16
 72.07   1531.25     39.13
 72.17   1719.79     41.47
 72.27   1803.00     42.46
 72.37   1970.00     44.38
 72.47   1901.00     43.60
 72.57   1785.00     42.25
 72.67   1769.00     42.06
 72.77   1600.00     40.00
 72.87   1330.00     36.47
 72.97   1210.63     34.79
 73.07   1142.00     33.79
 73.17    985.74     31.40
 73.27    890.42     29.84
 73.37    843.00     29.03
 73.47    743.55     27.27
 73.57    736.00     27.13
 73.67    757.00     27.51
 73.77    696.00     26.38
 73.87    669.00     25.87
 73.97    607.00     24.64
 74.07    653.09     25.56
 74.17    641.00     25.32
 74.27    582.00     24.12
 74.37    563.83     23.75
 74.47    639.00     25.28
 74.57    638.64     25.27
 74.67    652.23     25.54
 74.77    652.00     25.53
 74.87    665.75     25.80
 74.97    701.00     26.48
 75.07    655.00     25.59
 75.17    653.00     25.55
 75.27    651.00     25.51
 75.37    578.79     24.06
 75.47    662.00     25.73
 75.57    618.88     24.88
 75.67    676.00     26.00
 75.77    650.00     25.50
 75.87    607.00     24.64
 75.97    624.00     24.98
 76.07    627.93     25.06
 76.17    633.00     25.16
 76.27    669.00     25.87
 76.37    694.94     26.36
 76.47    697.00     26.40
 76.57    741.00     27.22
 76.67    763.00     27.62
 76.77    753.00     27.44
 76.87    753.03     27.44
 76.97    737.97     27.17
 77.07    761.00     27.59
 77.17    745.00     27.29
 77.27    745.00     27.29
 77.37    777.18     27.88
 77.47    661.27     25.72
 77.57    667.00     25.83
 77.67    625.15     25.00
 77.77    652.00     25.53
 77.87    596.00     24.41
 77.97    637.48     25.25
 78.07    580.00     24.08
 78.17    521.00     22.83
 78.27    615.81     24.82
 78.37    554.68     23.55
 78.47    533.00     23.09
 78.57    545.70     23.36
 78.67    573.00     23.94
 78.77    552.00     23.49
 78.87    546.00     23.37
 78.97    589.00     24.27
 79.07    578.42     24.05
 79.17    542.00     23.28
 79.27    581.50     24.11
 79.37    542.00     23.28
 79.47    581.48     24.11
 79.57    575.00     23.98
 79.67    566.00     23.79
 79.77    545.49     23.36
 79.87    536.00     23.15
 79.97    568.00     23.83
 80.07    570.00     23.87
 80.17    542.38     23.29
 80.27    618.00     24.86
 80.37    548.62     23.42
 80.47    616.00     24.82
 80.57    613.26     24.76
 80.67    638.00     25.26
 80.77    630.00     25.10
 80.87    723.00     26.89
 80.97    679.00     26.06
 81.07    744.00     27.28
 81.17    740.00     27.20
 81.27    830.00     28.81
 81.37    831.00     28.83
 81.47    809.00     28.44
 81.57    926.93     30.45
 81.67    888.00     29.80
 81.77    943.03     30.71
 81.87    832.76     28.86
 81.97    851.07     29.17
 82.07    846.00     29.09
 82.17    793.00     28.16
 82.27    807.00     28.41
 82.37    797.00     28.23
 82.47    706.12     26.57
 82.57    746.00     27.31
 82.67    688.00     26.23
 82.77    681.00     26.10
 82.87    650.00     25.50
 82.97    652.00     25.53
 83.07    632.22     25.14
 83.17    598.03     24.45
 83.27    578.00     24.04
 83.37    577.00     24.02
 83.47    611.00     24.72
 83.57    610.64     24.71
 83.67    540.00     23.24
 83.77    608.06     24.66
 83.87    560.25     23.67
 83.97    620.00     24.90
 84.07    568.00     23.83
 84.17    597.24     24.44
 84.27    603.35     24.56
 84.37    604.00     24.58
 84.47    638.75     25.27
 84.57    616.00     24.82
 84.67    659.68     25.68
 84.77    589.00     24.27
 84.87    588.66     24.26
 84.97    582.96     24.14
 85.07    544.41     23.33
 85.17    619.91     24.90
 85.27    588.00     24.25
 85.37    507.00     22.52
 85.47    559.00     23.64
 85.57    511.64     22.62
 85.67    532.00     23.07
 85.77    489.00     22.11
 85.87    569.00     23.85
 85.97    532.94     23.09
 86.07    523.78     22.89
 86.17    565.00     23.77
 86.27    513.00     22.65
 86.37    562.00     23.71
 86.47    530.52     23.03
 86.57    543.26     23.31
 86.67    557.00     23.60
 86.77    597.68     24.45
 86.87    634.00     25.18
 86.97    589.00     24.27
 87.07    589.00     24.27
 87.17    621.00     24.92
 87.27    594.67     24.39
 87.37    623.00     24.96
 87.47    622.00     24.94
 87.57    616.51     24.83
 87.67    685.37     26.18
 87.77    710.00     26.65
 87.87    709.57     26.64
 87.97    698.00     26.42
 88.07    673.00     25.94
 88.17    670.00     25.88
 88.27    620.74     24.91
 88.37    624.00     24.98
 88.47    584.37     24.17
 88.57    604.82     24.59
 88.67    644.00     25.38
 88.77    612.00     24.74
 88.87    611.00     24.72
 88.97    621.00     24.92
 89.07    568.00     23.83
 89.17    599.00     24.47
 89.27    597.00     24.43
 89.37    586.89     24.23
 89.47    703.00     26.51
 89.57    637.00     25.24
 89.67    645.78     25.41
 89.77    606.58     24.63
 89.87    644.00     25.38
 89.97    616.00     24.82
 90.07    596.00     24.41
 90.17    578.33     24.05
 90.27    581.00     24.10
 90.37    596.00     24.41
 90.47    613.06     24.76
 90.57    592.00     24.33
 90.67    583.62     24.16
 90.77    577.00     24.02
 90.87    558.54     23.63
 90.97    575.00     23.98
 91.07    587.00     24.23
 91.17    599.26     24.48
 91.27    563.00     23.73
 91.37    526.00     22.93
 91.47    559.00     23.64
 91.57    539.00     23.22
 91.67    557.00     23.60
 91.77    506.67     22.51
 91.87    577.00     24.02
 91.97    530.00     23.02
 92.07    585.85     24.20
 92.17    586.00     24.21
 92.27    578.94     24.06
 92.37    583.69     24.16
 92.47    579.15     24.07
 92.57    637.31     25.25
 92.67    623.00     24.96
 92.77    602.74     24.55
 92.87    621.00     24.92
 92.97    658.00     25.65
 93.07    643.00     25.36
 93.17    705.59     26.56
 93.27    679.67     26.07
 93.37    715.34     26.75
 93.47    716.71     26.77
 93.57    788.00     28.07
 93.67    734.00     27.09
 93.77    786.00     28.04
 93.87    812.21     28.50
 93.97    798.79     28.26
 94.07    799.00     28.27
 94.17    878.00     29.63
 94.27    882.00     29.70
 94.37    912.00     30.20
 94.47    805.00     28.37
 94.57    915.00     30.25
 94.67    863.00     29.38
 94.77    940.00     30.66
 94.87    886.00     29.77
 94.97    974.00     31.21
 95.07    991.00     31.48
 95.17    928.00     30.46
 95.27    965.00     31.06
 95.37    932.00     30.53
 95.47    883.08     29.72
 95.57    944.00     30.72
 95.67    930.46     30.50
 95.77    878.00     29.63
 95.87    886.44     29.77
 95.97    837.00     28.93
 96.07    843.00     29.03
 96.17    807.00     28.41
 96.27    775.62     27.85
 96.37    788.00     28.07
 96.47    735.00     27.11
 96.57    738.00     27.17
 96.67    730.81     27.03
 96.77    795.66     28.21
 96.87    875.44     29.59
 96.97    835.00     28.90
 97.07    886.00     29.77
 97.17   1003.34     31.68
 97.27   1073.00     32.76
 97.37   1155.00     33.99
 97.47   1121.80     33.49
 97.57   1221.97     34.96
 97.67   1356.00     36.82
 97.77   1344.00     36.66
 97.87   1459.71     38.21
 97.97   1479.00     38.46
 98.07   1602.00     40.02
 98.17   1561.00     39.51
 98.27   1430.00     37.82
 98.37   1423.00     37.72
 98.47   1405.00     37.48
 98.57   1353.00     36.78
 98.67   1230.54     35.08
 98.77   1227.00     35.03
 98.87   1186.00     34.44
 98.97   1102.69     33.21
 99.07   1046.00     32.34
 99.17   1046.48     32.35
 99.27   1044.76     32.32
 99.37    946.00     30.76
 99.47    888.00     29.80
 99.57    923.00     30.38
 99.67    981.77     31.33
 99.77   1001.00     31.64
 99.87   1000.00     31.62
 99.97   1099.00     33.15
100.07   1138.00     33.73
100.17   1162.17     34.09
100.27   1237.25     35.17
100.37   1440.00     37.95
100.47   1358.25     36.85
100.57   1499.00     38.72
100.67   1671.00     40.88
100.77   1727.48     41.56
100.87   1804.00     42.47
100.97   1867.99     43.22
101.07   1949.35     44.15
101.17   1995.00     44.67
101.27   1986.00     44.56
101.37   2054.00     45.32
101.47   1938.64     44.03
101.57   1992.00     44.63
101.67   1991.00     44.62
101.77   1851.37     43.03
101.87   1930.95     43.94
101.97   1734.00     41.64
102.07   1713.00     41.39
102.17   1596.80     39.96
102.27   1480.00     38.47
102.37   1433.00     37.85
102.47   1427.58     37.78
102.57   1356.00     36.82
102.67   1290.00     35.92
102.77   1283.72     35.83
102.87   1225.99     35.01
102.97   1254.83     35.42
103.07   1206.00     34.73
103.17   1229.00     35.06
103.27   1123.00     33.51
103.37   1089.00     33.00
103.47   1055.00     32.48
103.57   1024.00     32.00
103.67   1007.31     31.74
103.77    923.84     30.39
103.87    940.33     30.66
103.97    811.00     28.48
104.07    816.69     28.58
104.17    814.00     28.53
104.27    796.00     28.21
104.37    727.00     26.96
104.47    758.00     27.53
104.57    703.00     26.51
104.67    683.00     26.13
104.77    679.00     26.06
104.87    670.00     25.88
104.97    583.29     24.15
105.07    643.00     25.36
105.17    534.60     23.12
105.27    629.00     25.08
105.37    587.00     24.23
105.47    607.62     24.65
105.57    549.00     23.43
105.67    544.00     23.32
105.77    565.00     23.77
105.87    583.00     24.15
105.97    566.00     23.79
106.07    516.11     22.72
106.17    567.47     23.82
106.27    575.00     23.98
106.37    558.00     23.62
106.47    583.00     24.15
106.57    620.74     24.91
106.67    604.61     24.59
106.77    602.88     24.55
106.87    612.00     24.74
106.97    634.00     25.18
107.07    648.00     25.46
107.17    691.30     26.29
107.27    641.00     25.32
107.37    630.14     25.10
107.47    636.36     25.23
107.57    698.00     26.42
107.67    715.00     26.74
107.77    679.29     26.06
107.87    690.00     26.27
107.97    702.28     26.50
108.07    685.28     26.18
108.17    714.00     26.72
108.27    686.00     26.19
108.37    678.81     26.05
108.47    777.00     27.87
108.57    708.00     26.61
108.67    705.00     26.55
108.77    778.13     27.89
108.87    708.00     26.61
108.97    697.92     26.42
109.07    701.47     26.49
109.17    737.00     27.15
109.27    742.00     27.24
109.37    697.00     26.40
109.47    740.49     27.21
109.57    763.00     27.62
109.67    718.71     26.81
109.77    698.00     26.42
109.87    706.00     26.57
109.97    731.00     27.04
110.07    706.00     26.57
110.17    747.14     27.33
110.27    713.00     26.70
110.37    693.00     26.32
110.47    656.60     25.62
110.57    602.84     24.55
110.67    629.55     25.09
110.77    648.66     25.47
110.87    607.04     24.64
110.97    576.06     24.00
111.07    639.00     25.28
111.17    604.00     24.58
111.27    621.00     24.92
111.37    610.00     24.70
111.47    521.32     22.83
111.57    534.14     23.11
111.67    537.00     23.17
111.77    528.74     22.99
111.87    526.56     22.95
111.97    529.01     23.00
112.07    607.18     24.64
112.17    557.33     23.61
112.27    589.00     24.27
112.37    588.00     24.25
112.47    583.00     24.15
112.57    582.26     24.13
112.67    579.00     24.06
112.77    594.00     24.37
112.87    554.00     23.54
112.97    560.00     23.66
113.07    552.53     23.51
113.17    618.35     24.87
113.27    583.08     24.15
113.37    611.13     24.72
113.47    582.00     24.12
113.57    645.30     25.40
113.67    582.98     24.14
113.77    639.00     25.28
113.87    627.37     25.05
113.97    595.00     24.39
114.07    671.00     25.90
114.17    648.00     25.46
114.27    677.00     26.02
114.37    730.86     27.03
114.47    709.00     26.63
114.57    757.00     27.51
114.67    785.00     28.02
114.77    832.17     28.85
114.87    865.91     29.43
114.97    981.00     31.32
115.07   1134.00     33.67
115.17   1225.37     35.01
115.27   1303.00     36.10
115.37   1416.08     37.63
115.47   1679.14     40.98
115.57   1855.73     43.08
115.67   2160.00     46.48
115.77   2328.00     48.25
115.87   2535.00     50.35
115.97   2961.00     54.42
116.07   3143.00     56.06
116.17   3525.00     59.37
116.27   3905.00     62.49
116.37   4285.00     65.46
116.47   4526.76     67.28
116.57   4951.00     70.36
116.67   5521.73     74.31
116.77   5701.00     75.50
116.87   6144.00     78.38
116.97   6524.43     80.77
117.07   6680.00     81.73
117.17   7014.00     83.75
117.27   7051.00     83.97
117.37   7029.00     83.84
117.47   7180.00     84.73
117.57   7157.00     84.60
117.67   6937.74     83.29
117.77   6772.00     82.29
117.87   6399.00     79.99
117.97   6176.83     78.59
118.07   5859.00     76.54
118.17   5524.00     74.32
118.27   5176.38     71.95
118.37   4786.00     69.18
118.47   4406.30     66.38
118.57   4277.55     65.40
118.67   3955.00     62.89
118.77   3571.00     59.76
118.87   3056.88     55.29
118.97   2929.00     54.12
119.07   2564.00     50.64
119.17   2330.00     48.27
119.27   2010.00     44.83
119.37   1852.00     43.03
119.47   1623.95     40.30
119.57   1470.05     38.34
119.67   1382.00     37.18
119.77   1351.97     36.77
119.87   1200.00     34.64
119.97   1156.00     34.00
120.07   1014.00     31.84
120.17   1029.00     32.08
120.27    929.00     30.48
120.37    876.20     29.60
120.47    791.76     28.14
120.57    812.17     28.50
120.67    712.83     26.70
120.77    743.00     27.26
120.87    772.88     27.80
120.97    717.00     26.78
121.07    651.75     25.53
121.17    681.00     26.10
121.27    675.00     25.98
121.37    693.00     26.32
121.47    649.74     25.49
121.57    631.05     25.12
121.67    667.22     25.83
121.77    633.69     25.17
121.87    682.00     26.12
121.97    618.00     24.86
122.07    675.61     25.99
122.17    589.58     24.28
122.27    612.00     24.74
122.37    613.31     24.77
122.47    628.00     25.06
122.57    653.00     25.55
122.67    652.00     25.53
122.77    708.00     26.61
122.87    666.00     25.81
122.97    636.00     25.22
123.07    648.00     25.46
123.17    671.27     25.91
123.27    702.00     26.50
123.37    731.59     27.05
123.47    664.00     25.77
123.57    727.69     26.98
123.67    734.53     27.10
123.77    657.00     25.63
123.87    725.51     26.94
123.97    622.00     24.94
124.07    648.00     25.46
124.17    720.00     26.83
124.27    675.00     25.98
124.37    670.00     25.88
124.47    687.00     26.21
124.57    693.00     26.32
124.67    707.00     26.59
124.77    674.00     25.96
124.87    690.00     26.27
124.97    632.00     25.14
