XYDATA



INTER 1.0 1.0 0 0
TEMP 927.64
  9.97    618.00     24.86
 10.07    586.00     24.21
 10.17    575.00     23.98
 10.27    578.00     24.04
 10.37    627.00     25.04
 10.47    522.46     22.86
 10.57    544.01     23.32
 10.67    597.58     24.45
 10.77    559.00     23.64
 10.87    557.00     23.60
 10.97    595.89     24.41
 11.07    520.15     22.81
 11.17    590.00     24.29
 11.27    550.00     23.45
 11.37    528.13     22.98
 11.47    558.00     23.62
 11.57    604.00     24.58
 11.67    651.00     25.51
 11.77    545.56     23.36
 11.87    645.00     25.40
 11.97    592.36     24.34
 12.07    644.00     25.38
 12.17    677.00     26.02
 12.27    712.32     26.69
 12.37    713.00     26.70
 12.47    571.00     23.90
 12.57    647.50     25.45
 12.67    583.00     24.15
 12.77    548.00     23.41
 12.87    582.00     24.12
 12.97    538.00     23.19
 13.07    601.29     24.52
 13.17    565.00     23.77
 13.27    592.00     24.33
 13.37    530.00     23.02
 13.47    558.00     23.62
 13.57    553.16     23.52
 13.67    522.00     22.85
 13.77    573.63     23.95
 13.87    553.00     23.52
 13.97    596.36     24.42
 14.07    580.35     24.09
 14.17    541.00     23.26
 14.27    560.00     23.66
 14.37    562.84     23.72
 14.47    576.00     24.00
 14.57    523.26     22.87
 14.67    562.00     23.71
 14.77    563.00     23.73
 14.87    567.00     23.81
 14.97    542.50     23.29
 15.07    551.00     23.47
 15.17    545.00     23.35
 15.27    590.00     24.29
 15.37    575.00     23.98
 15.47    509.00     22.56
 15.57    585.00     24.19
 15.67    583.00     24.15
 15.77    531.00     23.04
 15.87    550.00     23.45
 15.97    620.00     24.90
 16.07    557.22     23.61
 16.17    534.82     23.13
 16.27    556.50     23.59
 16.37    559.00     23.64
 16.47    567.00     23.81
 16.57    574.83     23.98
 16.67    542.00     23.28
 16.77    570.69     23.89
 16.87    527.00     22.96
 16.97    562.32     23.71
 17.07    552.07     23.50
 17.17    516.00     22.72
 17.27    524.00     22.89
 17.37    536.00     23.15
 17.47    572.00     23.92
 17.57    539.60     23.23
 17.67    547.21     23.39
 17.77    557.00     23.60
 17.87    560.00     23.66
 17.97    571.00     23.90
 18.07    530.00     23.02
 18.17    524.00     22.89
 18.27    544.00     23.32
 18.37    538.00     23.19
 18.47    528.00     22.98
 18.57    570.12     23.88
 18.67    548.00     23.41
 18.77    561.00     23.69
 18.87    576.87     24.02
 18.97    539.02     23.22
 19.07    548.00     23.41
 19.17    474.00     21.77
 19.27    591.46     24.32
 19.37    559.00     23.64
 19.47    571.00     23.90
 19.57    559.50     23.65
 19.67    563.79     23.74
 19.77    541.44     23.27
 19.87    595.26     24.40
 19.97    547.85     23.41
 20.07    515.00     22.69
 20.17    588.23     24.25
 20.27    554.41     23.55
 20.37    554.32     23.54
 20.47    552.00     23.49
 20.57    565.00     23.77
 20.67    532.45     23.07
 20.77    592.82     24.35
 20.87    538.00     23.19
 20.97    531.80     23.06
 21.07    550.00     23.45
 21.17    555.99     23.58
 21.27    537.00     23.17
 21.37    548.00     23.41
 21.47    564.00     23.75
 21.57    549.00     23.43
 21.67    533.36     23.09
 21.77    582.00     24.12
 21.87    568.66     23.85
 21.97    535.00     23.13
 22.07    527.67     22.97
 22.17    549.00     23.43
 22.27    569.03     23.85
 22.37    565.76     23.79
 22.47    532.00     23.07
 22.57    565.00     23.77
 22.67    552.00     23.49
 22.77    535.00     23.13
 22.87    524.05     22.89
 22.97    535.00     23.13
 23.07    541.00     23.26
 23.17    579.21     24.07
 23.27    578.57     24.05
 23.37    573.27     23.94
 23.47    548.00     23.41
 23.57    526.00     22.93
 23.67    516.49     22.73
 23.77    562.39     23.71
 23.87    547.00     23.39
 23.97    576.00     24.00
 24.07    562.00     23.71
 24.17    563.00     23.73
 24.27    596.00     24.41
 24.37    550.03     23.45
 24.47    589.25     24.27
 24.57    624.12     24.98
 24.67    617.00     24.84
 24.77    607.36     24.64
 24.87    643.00     25.36
 24.97    614.37     24.79
 25.07    592.06     24.33
 25.17    596.90     24.43
 25.27    519.83     22.80
 25.37    568.00     23.83
 25.47    579.00     24.06
 25.57    543.00     23.30
 25.67    569.77     23.87
 25.77    532.00     23.07
 25.87    574.35     23.97
 25.97    525.00     22.91
 26.07    522.41     22.86
 26.17    551.00     23.47
 26.27    501.05     22.38
 26.37    561.00     23.69
 26.47    525.04     22.91
 26.57    563.40     23.74
 26.67    517.70     22.75
 26.77    545.00     23.35
 26.87    573.00     23.94
 26.97    561.03     23.69
 27.07    583.80     24.16
 27.17    571.00     23.90
 27.27    566.00     23.79
 27.37    556.91     23.60
 27.47    573.00     23.94
 27.57    547.00     23.39
 27.67    571.00     23.90
 27.77    559.07     23.64
 27.87    634.17     25.18
 27.97    664.51     25.78
 28.07    723.00     26.89
 28.17    803.43     28.34
 28.27    915.13     30.25
 28.37    907.00     30.12
 28.47    866.00     29.43
 28.57    760.54     27.58
 28.67    665.00     25.79
 28.77    735.00     27.11
 28.87    815.97     28.57
 28.97    782.00     27.96
 29.07    880.00     29.66
 29.17    730.14     27.02
 29.27    652.00     25.53
 29.37    629.00     25.08
 29.47    620.00     24.90
 29.57    546.06     23.37
 29.67    598.00     24.45
 29.77    559.33     23.65
 29.87    578.11     24.04
 29.97    603.00     24.56
 30.07    567.00     23.81
 30.17    551.00     23.47
 30.27    544.00     23.32
 30.37    532.30     23.07
 30.47    531.00     23.04
 30.57    593.00     24.35
 30.67    545.00     23.35
 30.77    555.00     23.56
 30.87    609.00     24.68
 30.97    660.00     25.69
 31.07    629.00     25.08
 31.17    546.49     23.38
 31.27    565.00     23.77
 31.37    520.84     22.82
 31.47    526.66     22.95
 31.57    561.00     23.69
 31.67    557.00     23.60
 31.77    517.00     22.74
 31.87    529.00     23.00
 31.97    492.00     22.18
 32.07    537.00     23.17
 32.17    527.52     22.97
 32.27    535.00     23.13
 32.37    563.00     23.73
 32.47    511.59     22.62
 32.57    572.00     23.92
 32.67    547.00     23.39
 32.77    548.00     23.41
 32.87    502.25     22.41
 32.97    534.00     23.11
 33.07    531.00     23.04
 33.17    559.00     23.64
 33.27    527.00     22.96
 33.37    568.00     23.83
 33.47    546.35     23.37
 33.57    574.00     23.96
 33.67    585.00     24.19
 33.77    722.00     26.87
 33.87    779.50     27.92
 33.97    915.34     30.25
 34.07    944.00     30.72
 34.17   1055.00     32.48
 34.27    927.00     30.45
 34.37    792.50     28.15
 34.47    668.00     25.85
 34.57    641.00     25.32
 34.67    557.42     23.61
 34.77    555.00     23.56
 34.87    550.31     23.46
 34.97    572.00     23.92
 35.07    531.00     23.04
 35.17    557.78     23.62
 35.27    519.00     22.78
 35.37    487.00     22.07
 35.47    498.86     22.34
 35.57    540.70     23.25
 35.67    502.00     22.41
 35.77    473.00     21.75
 35.87    515.00     22.69
 35.97    447.00     21.14
 36.07    545.76     23.36
 36.17    489.00     22.11
 36.27    519.00     22.78
 36.37    477.00     21.84
 36.47    545.37     23.35
 36.57    473.75     21.77
 36.67    474.00     21.77
 36.77    494.00     22.23
 36.87    533.57     23.10
 36.97    464.00     21.54
 37.07    506.00     22.49
 37.17    511.00     22.61
 37.27    527.11     22.96
 37.37    549.00     23.43
 37.47    495.10     22.25
 37.57    493.00     22.20
 37.67    519.59     22.79
 37.77    512.00     22.63
 37.87    534.00     23.11
 37.97    543.00     23.30
 38.07    521.68     22.84
 38.17    506.00     22.49
 38.27    471.00     21.70
 38.37    525.00     22.91
 38.47    522.00     22.85
 38.57    493.00     22.20
 38.67    499.01     22.34
 38.77    517.00     22.74
 38.87    504.42     22.46
 38.97    460.56     21.46
 39.07    517.00     22.74
 39.17    481.00     21.93
 39.27    488.95     22.11
 39.37    483.00     21.98
 39.47    539.00     23.22
 39.57    519.66     22.80
 39.67    507.00     22.52
 39.77    436.00     20.88
 39.87    521.00     22.83
 39.97    466.00     21.59
 40.07    478.00     21.86
 40.17    493.00     22.20
 40.27    461.00     21.47
 40.37    471.72     21.72
 40.47    487.00     22.07
 40.57    495.00     22.25
 40.67    509.00     22.56
 40.77    517.71     22.75
 40.87    477.02     21.84
 40.97    489.00     22.11
 41.07    464.00     21.54
 41.17    488.00     22.09
 41.27    478.00     21.86
 41.37    485.00     22.02
 41.47    499.00     22.34
 41.57    529.35     23.01
 41.67    467.00     21.61
 41.77    491.00     22.16
 41.87    525.00     22.91
 41.97    541.09     23.26
 42.07    476.00     21.82
 42.17    514.00     22.67
 42.27    531.00     23.04
 42.37    529.63     23.01
 42.47    541.00     23.26
 42.57    555.00     23.56
 42.67    591.00     24.31
 42.77    625.00     25.00
 42.87    594.00     24.37
 42.97    577.82     24.04
 43.07    509.00     22.56
 43.17    535.00     23.13
 43.27    476.35     21.83
 43.37    474.00     21.77
 43.47    501.00     22.38
 43.57    475.00     21.79
 43.67    476.11     21.82
 43.77    503.19     22.43
 43.87    497.00     22.29
 43.97    507.27     22.52
 44.07    473.39     21.76
 44.17    493.00     22.20
 44.27    510.21     22.59
 44.37    506.00     22.49
 44.47    495.00     22.25
 44.57    523.00     22.87
 44.67    512.84     22.65
 44.77    530.23     23.03
 44.87    475.63     21.81
 44.97    489.00     22.11
 45.07    479.95     21.91
 45.17    529.00     23.00
 45.27    505.00     22.47
 45.37    500.92     22.38
 45.47    452.80     21.28
 45.57    497.00     22.29
 45.67    487.89     22.09
 45.77    522.46     22.86
 45.87    495.00     22.25
 45.97    529.09     23.00
 46.07    484.00     22.00
 46.17    495.00     22.25
 46.27    470.00     21.68
 46.37    502.00     22.41
 46.47    474.44     21.78
 46.57    425.00     20.62
 46.67    491.00     22.16
 46.77    533.00     23.09
 46.87    503.00     22.43
 46.97    515.24     22.70
 47.07    461.00     21.47
 47.17    533.00     23.09
 47.27    517.00     22.74
 47.37    499.44     22.35
 47.47    509.00     22.56
 47.57    526.44     22.94
 47.67    548.69     23.42
 47.77    590.00     24.29
 47.87    611.00     24.72
 47.97    590.00     24.29
 48.07    531.92     23.06
 48.17    553.97     23.54
 48.27    553.00     23.52
 48.37    587.30     24.23
 48.47    569.00     23.85
 48.57    509.00     22.56
 48.67    485.00     22.02
 48.77    515.98     22.72
 48.87    541.00     23.26
 48.97    557.64     23.61
 49.07    514.00     22.67
 49.17    554.33     23.54
 49.27    580.00     24.08
 49.37    594.84     24.39
 49.47    635.65     25.21
 49.57    645.00     25.40
 49.67    726.45     26.95
 49.77    900.00     30.00
 49.87   1239.00     35.20
 49.97   1536.95     39.20
 50.07   1810.00     42.54
 50.17   2175.52     46.64
 50.27   2398.00     48.97
 50.37   2316.00     48.12
 50.47   2041.00     45.18
 50.57   1682.00     41.01
 50.67   1373.00     37.05
 50.77   1050.00     32.40
 50.87    799.00     28.27
 50.97    751.00     27.40
 51.07    717.77     26.79
 51.17    608.02     24.66
 51.27    645.28     25.40
 51.37    629.00     25.08
 51.47    590.89     24.31
 51.57    567.00     23.81
 51.67    583.00     24.15
 51.77    522.33     22.85
 51.87    550.88     23.47
 51.97    517.04     22.74
 52.07    516.23     22.72
 52.17    527.08     22.96
 52.27    540.00     23.24
 52.37    549.00     23.43
 52.47    545.00     23.35
 52.57    511.31     22.61
 52.67    541.04     23.26
 52.77    589.01     24.27
 52.87    617.00     24.84
 52.97    592.68     24.34
 53.07    650.28     25.50
 53.17    836.00     28.91
 53.27    915.00     30.25
 53.37    976.74     31.25
 53.47   1074.10     32.77
 53.57   1172.00     34.23
 53.67   1126.00     33.56
 53.77   1108.00     33.29
 53.87   1045.00     32.33
 53.97    898.00     29.97
 54.07    757.76     27.53
 54.17    669.00     25.86
 54.27    648.00     25.46
 54.37    556.00     23.58
 54.47    554.00     23.54
 54.57    566.00     23.79
 54.67    572.00     23.92
 54.77    498.93     22.34
 54.87    579.21     24.07
 54.97    558.00     23.62
 55.07    539.00     23.22
 55.17    545.00     23.35
 55.27    550.00     23.45
 55.37    648.00     25.46
 55.47    577.00     24.02
 55.57    561.00     23.69
 55.67    556.00     23.58
 55.77    585.00     24.19
 55.87    593.00     24.35
 55.97    589.00     24.27
 56.07    650.00     25.50
 56.17    678.00     26.04
 56.27    855.47     29.25
 56.37   1010.98     31.80
 56.47   1209.34     34.78
 56.57   1480.00     38.47
 56.67   1902.66     43.62
 56.77   2103.00     45.86
 56.87   2375.00     48.73
 56.97   2497.00     49.97
 57.07   2406.19     49.05
 57.17   2339.00     48.36
 57.27   1976.00     44.45
 57.37   1612.12     40.15
 57.47   1320.00     36.33
 57.57   1094.00     33.08
 57.67    960.00     30.98
 57.77    841.01     29.00
 57.87    763.00     27.62
 57.97    740.66     27.22
 58.07    670.00     25.88
 58.17    685.00     26.17
 58.27    723.88     26.90
 58.37    772.00     27.78
 58.47    801.81     28.32
 58.57    919.70     30.33
 58.67    925.00     30.41
 58.77   1002.00     31.65
 58.87   1088.00     32.98
 58.97   1196.62     34.59
 59.07   1185.54     34.43
 59.17   1399.00     37.40
 59.27   1403.00     37.46
 59.37   1273.14     35.68
 59.47   1298.00     36.03
 59.57   1178.18     34.32
 59.67   1251.00     35.37
 59.77   1157.00     34.01
 59.87   1237.00     35.17
 59.97   1241.00     35.23
 60.07   1329.82     36.47
 60.17   1414.67     37.61
 60.27   1453.00     38.12
 60.37   1450.00     38.08
 60.47   1479.00     38.46
 60.57   1305.41     36.13
 60.67   1263.00     35.54
 60.77   1109.40     33.31
 60.87    935.00     30.58
 60.97    835.00     28.90
 61.07    690.12     26.27
 61.17    689.58     26.26
 61.27    703.00     26.51
 61.37    666.00     25.81
 61.47    679.00     26.06
 61.57    747.71     27.34
 61.67    769.00     27.73
 61.77    900.00     30.00
 61.87    880.00     29.66
 61.97   1102.00     33.20
 62.07   1189.00     34.48
 62.17   1268.00     35.61
 62.27   1315.00     36.26
 62.37   1378.96     37.13
 62.47   1248.00     35.33
 62.57   1109.77     33.31
 62.67   1041.53     32.27
 62.77    854.00     29.22
 62.87    784.25     28.00
 62.97    719.00     26.81
 63.07    681.00     26.10
 63.17    654.00     25.57
 63.27    588.00     24.25
 63.37    601.00     24.52
 63.47    534.17     23.11
 63.57    557.84     23.62
 63.67    572.00     23.92
 63.77    607.00     24.64
 63.87    614.00     24.78
 63.97    614.00     24.78
 64.07    697.57     26.41
 64.17    713.00     26.70
 64.27    740.49     27.21
 64.37    826.00     28.74
 64.47    924.88     30.41
 64.57    987.55     31.43
 64.67    955.00     30.90
 64.77   1063.18     32.61
 64.87   1035.54     32.18
 64.97    921.50     30.36
 65.07    954.00     30.89
 65.17    779.00     27.91
 65.27    817.68     28.60
 65.37    682.00     26.12
 65.47    694.64     26.36
 65.57    650.00     25.50
 65.67    590.00     24.29
 65.77    612.43     24.75
 65.87    562.00     23.71
 65.97    571.38     23.90
 66.07    573.00     23.94
 66.17    557.00     23.60
 66.27    590.00     24.29
 66.37    601.00     24.52
 66.47    566.00     23.79
 66.57    543.00     23.30
 66.67    534.00     23.11
 66.77    551.00     23.47
 66.87    627.66     25.05
 66.97    560.00     23.66
 67.07    636.46     25.23
 67.17    709.14     26.63
 67.27    690.05     26.27
 67.37    786.00     28.04
 67.47    929.73     30.49
 67.57   1065.00     32.63
 67.67   1310.00     36.19
 67.77   1556.00     39.45
 67.87   1773.00     42.11
 67.97   1936.38     44.00
 68.07   2213.00     47.04
 68.17   2345.00     48.43
 68.27   2368.23     48.66
 68.37   2248.14     47.41
 68.47   2087.00     45.68
 68.57   1744.10     41.76
 68.67   1660.00     40.74
 68.77   1379.00     37.13
 68.87   1110.29     33.32
 68.97    970.00     31.14
 69.07    796.00     28.21
 69.17    739.00     27.18
 69.27    692.00     26.31
 69.37    628.00     25.06
 69.47    680.00     26.08
 69.57    596.00     24.41
 69.67    629.00     25.08
 69.77    617.00     24.84
 69.87    616.56     24.83
 69.97    547.07     23.39
 70.07    531.11     23.05
 70.17    563.40     23.74
 70.27    570.00     23.87
 70.37    542.00     23.28
 70.47    600.50     24.51
 70.57    601.00     24.52
 70.67    562.00     23.71
 70.77    573.00     23.94
 70.87    574.00     23.96
 70.97    578.00     24.04
 71.07    660.00     25.69
 71.17    711.11     26.67
 71.27    805.32     28.38
 71.37    818.08     28.60
 71.47    897.28     29.95
 71.57   1057.00     32.51
 71.67   1210.00     34.79
 71.77   1398.00     37.39
 71.87   1566.00     39.57
 71.97   1778.00     42.17
 72.07   1799.14     42.42
 72.17   1888.00     43.45
 72.27   1844.00     42.94
 72.37   1745.54     41.78
 72.47   1591.00     39.89
 72.57   1490.07     38.60
 72.67   1274.00     35.69
 72.77   1080.00     32.86
 72.87   1007.74     31.74
 72.97    862.00     29.36
 73.07    808.00     28.43
 73.17    704.00     26.53
 73.27    709.00     26.63
 73.37    633.32     25.17
 73.47    679.00     26.06
 73.57    633.00     25.16
 73.67    600.39     24.50
 73.77    625.00     25.00
 73.87    588.00     24.25
 73.97    577.70     24.04
 74.07    537.00     23.17
 74.17    553.00     23.52
 74.27    552.00     23.49
 74.37    578.16     24.04
 74.47    595.00     24.39
 74.57    562.39     23.71
 74.67    629.00     25.08
 74.77    651.00     25.51
 74.87    662.00     25.73
 74.97    529.21     23.00
 75.07    543.11     23.30
 75.17    556.90     23.60
 75.27    602.00     24.54
 75.37    512.65     22.64
 75.47    577.00     24.02
 75.57    598.00     24.45
 75.67    554.00     23.54
 75.77    598.84     24.47
 75.87    542.86     23.30
 75.97    595.00     24.39
 76.07    613.12     24.76
 76.17    611.51     24.73
 76.27    631.06     25.12
 76.37    613.00     24.76
 76.47    681.23     26.10
 76.57    694.00     26.34
 76.67    738.51     27.18
 76.77    673.00     25.94
 76.87    679.00     26.06
 76.97    637.00     25.24
 77.07    679.00     26.06
 77.17    630.00     25.10
 77.27    584.10     24.17
 77.37    580.91     24.10
 77.47    554.00     23.54
 77.57    573.58     23.95
 77.67    517.00     22.74
 77.77    523.00     22.87
 77.87    542.62     23.29
 77.97    526.44     22.94
 78.07    502.00     22.41
 78.17    489.00     22.11
 78.27    521.00     22.83
 78.37    537.00     23.17
 78.47    540.00     23.24
 78.57    513.00     22.65
 78.67    462.00     21.49
 78.77    526.00     22.93
 78.87    490.00     22.14
 78.97    544.00     23.32
 79.07    502.00     22.41
 79.17    495.00     22.25
 79.27    474.75     21.79
 79.37    506.44     22.50
 79.47    496.00     22.27
 79.57    553.38     23.52
 79.67    496.00     22.27
 79.77    538.00     23.19
 79.87    512.58     22.64
 79.97    534.76     23.12
 80.07    514.50     22.68
 80.17    558.00     23.62
 80.27    552.00     23.49
 80.37    564.00     23.75
 80.47    561.00     23.69
 80.57    583.38     24.15
 80.67    628.00     25.06
 80.77    651.00     25.51
 80.87    656.00     25.61
 80.97    653.00     25.55
 81.07    662.00     25.73
 81.17    638.00     25.26
 81.27    707.04     26.59
 81.37    760.01     27.57
 81.47    739.00     27.18
 81.57    707.02     26.59
 81.67    762.00     27.60
 81.77    620.00     24.90
 81.87    727.00     26.96
 81.97    689.00     26.25
 82.07    671.00     25.90
 82.17    673.00     25.94
 82.27    701.00     26.48
 82.37    634.63     25.19
 82.47    580.00     24.08
 82.57    618.71     24.87
 82.67    612.00     24.74
 82.77    591.71     24.33
 82.87    561.43     23.69
 82.97    534.00     23.11
 83.07    590.00     24.29
 83.17    519.00     22.78
 83.27    495.00     22.25
 83.37    552.00     23.49
 83.47    493.00     22.20
 83.57    501.93     22.40
 83.67    546.59     23.38
 83.77    509.36     22.57
 83.87    599.24     24.48
 83.97    542.49     23.29
 84.07    548.38     23.42
 84.17    549.00     23.43
 84.27    551.00     23.47
 84.37    590.96     24.31
 84.47    567.00     23.81
 84.57    570.00     23.87
 84.67    568.00     23.83
 84.77    544.22     23.33
 84.87    575.56     23.99
 84.97    562.00     23.71
 85.07    475.00     21.79
 85.17    552.22     23.50
 85.27    500.00     22.36
 85.37    497.73     22.31
 85.47    532.00     23.07
 85.57    513.02     22.65
 85.67    521.00     22.83
 85.77    544.00     23.32
 85.87    499.89     22.36
 85.97    496.00     22.27
 86.07    502.00     22.41
 86.17    496.54     22.28
 86.27    521.00     22.83
 86.37    488.00     22.09
 86.47    549.00     23.43
 86.57    555.00     23.56
 86.67    555.00     23.56
 86.77    588.64     24.26
 86.87    577.00     24.02
 86.97    543.00     23.30
 87.07    618.00     24.86
 87.17    603.00     24.56
 87.27    636.92     25.24
 87.37    599.00     24.47
 87.47    626.32     25.03
 87.57    608.00     24.66
 87.67    620.00     24.90
 87.77    678.00     26.04
 87.87    591.00     24.31
 87.97    605.00     24.60
 88.07    686.00     26.19
 88.17    581.00     24.10
 88.27    576.00     24.00
 88.37    568.00     23.83
 88.47    598.67     24.47
 88.57    540.81     23.26
 88.67    584.00     24.17
 88.77    609.00     24.68
 88.87    561.00     23.69
 88.97    555.00     23.56
 89.07    600.00     24.49
 89.17    590.00     24.29
 89.27    617.04     24.84
 89.37    579.00     24.06
 89.47    603.00     24.56
 89.57    589.00     24.27
 89.67    563.00     23.73
 89.77    570.00     23.87
 89.87    541.00     23.26
 89.97    571.00     23.90
 90.07    535.00     23.13
 90.17    557.77     23.62
 90.27    514.23     22.68
 90.37    561.69     23.70
 90.47    492.89     22.20
 90.57    549.00     23.43
 90.67    523.00     22.87
 90.77    442.00     21.02
 90.87    551.03     23.47
 90.97    552.00     23.49
 91.07    507.05     22.52
 91.17    493.00     22.20
 91.27    497.03     22.29
 91.37    519.93     22.80
 91.47    537.70     23.19
 91.57    480.00     21.91
 91.67    507.39     22.53
 91.77    561.00     23.69
 91.87    511.96     22.63
 91.97    546.11     23.37
 92.07    545.00     23.35
 92.17    550.00     23.45
 92.27    565.88     23.79
 92.37    559.98     23.66
 92.47    564.00     23.75
 92.57    559.00     23.64
 92.67    611.00     24.72
 92.77    615.00     24.80
 92.87    616.00     24.82
 92.97    700.00     26.46
 93.07    650.00     25.50
 93.17    667.94     25.84
 93.27    736.00     27.13
 93.37    716.24     26.76
 93.47    704.31     26.54
 93.57    730.00     27.02
 93.67    815.43     28.56
 93.77    774.31     27.83
 93.87    835.50     28.90
 93.97    809.20     28.45
 94.07    848.00     29.12
 94.17    845.00     29.07
 94.27    871.53     29.52
 94.37    864.68     29.41
 94.47    877.00     29.61
 94.57    826.42     28.75
 94.67    868.00     29.46
 94.77    913.00     30.22
 94.87    821.21     28.66
 94.97    899.00     29.98
 95.07    911.00     30.18
 95.17    805.13     28.37
 95.27    838.00     28.95
 95.37    826.00     28.74
 95.47    828.00     28.77
 95.57    722.07     26.87
 95.67    786.61     28.05
 95.77    720.00     26.83
 95.87    758.32     27.54
 95.97    721.00     26.85
 96.07    678.22     26.04
 96.17    655.00     25.59
 96.27    683.65     26.15
 96.37    707.00     26.59
 96.47    720.00     26.83
 96.57    740.00     27.20
 96.67    820.00     28.64
 96.77    883.10     29.72
 96.87    908.00     30.13
 96.97   1021.75     31.96
 97.07   1037.00     32.20
 97.17   1074.00     32.77
 97.27   1178.00     34.32
 97.37   1308.00     36.17
 97.47   1340.84     36.62
 97.57   1328.94     36.45
 97.67   1372.91     37.05
 97.77   1359.00     36.86
 97.87   1464.30     38.27
 97.97   1433.00     37.85
 98.07   1339.35     36.60
 98.17   1258.94     35.48
 98.27   1285.91     35.86
 98.37   1183.00     34.39
 98.47   1053.35     32.46
 98.57   1045.00     32.33
 98.67    924.24     30.40
 98.77    913.00     30.22
 98.87    879.00     29.65
 98.97    828.00     28.77
 99.07    767.00     27.69
 99.17    896.15     29.94
 99.27    891.00     29.85
 99.37    863.00     29.38
 99.47    890.29     29.84
 99.57   1018.67     31.92
 99.67   1077.19     32.82
 99.77   1139.00     33.75
 99.87   1149.00     33.90
 99.97   1327.47     36.43
100.07   1360.54     36.89
100.17   1553.15     39.41
100.27   1560.00     39.50
100.37   1646.00     40.57
100.47   1802.22     42.45
100.57   1904.00     43.63
100.67   1944.00     44.09
100.77   1904.73     43.64
100.87   2006.00     44.79
100.97   2027.00     45.02
101.07   1995.70     44.67
101.17   1934.00     43.98
101.27   1907.00     43.67
101.37   1893.00     43.51
101.47   1753.00     41.87
101.57   1658.00     40.72
101.67   1678.74     40.97
101.77   1514.00     38.91
101.87   1421.00     37.70
101.97   1426.00     37.76
102.07   1289.00     35.90
102.17   1246.00     35.30
102.27   1283.40     35.82
102.37   1204.00     34.70
102.47   1211.00     34.80
102.57   1124.00     33.53
102.67   1064.00     32.62
102.77   1071.00     32.73
102.87   1086.27     32.96
102.97    992.56     31.50
103.07    993.00     31.51
103.17   1016.00     31.87
103.27    922.03     30.37
103.37    931.00     30.51
103.47    828.00     28.77
103.57    854.47     29.23
103.67    790.00     28.11
103.77    699.42     26.45
103.87    747.00     27.33
103.97    649.70     25.49
104.07    712.00     26.68
104.17    672.00     25.92
104.27    591.95     24.33
104.37    573.29     23.94
104.47    576.79     24.02
104.57    586.00     24.21
104.67    540.00     23.24
104.77    538.98     23.22
104.87    569.00     23.85
104.97    549.00     23.43
105.07    576.00     24.00
105.17    513.04     22.65
105.27    496.00     22.27
105.37    501.00     22.38
105.47    574.00     23.96
105.57    478.37     21.87
105.67    531.80     23.06
105.77    526.00     22.93
105.87    512.79     22.64
105.97    573.00     23.94
106.07    507.23     22.52
106.17    571.81     23.91
106.27    598.00     24.45
106.37    591.65     24.32
106.47    588.00     24.25
106.57    602.00     24.54
106.67    573.00     23.94
106.77    601.00     24.52
106.87    634.00     25.18
106.97    611.00     24.72
107.07    645.00     25.40
107.17    625.00     25.00
107.27    657.00     25.63
107.37    709.00     26.63
107.47    663.00     25.75
107.57    658.00     25.65
107.67    668.00     25.85
107.77    632.00     25.14
107.87    719.00     26.81
107.97    712.29     26.69
108.07    712.63     26.70
108.17    692.00     26.31
108.27    699.00     26.44
108.37    717.00     26.78
108.47    640.00     25.30
108.57    736.38     27.14
108.67    666.00     25.81
108.77    698.00     26.42
108.87    734.00     27.09
108.97    730.93     27.04
109.07    697.10     26.40
109.17    719.35     26.82
109.27    719.00     26.81
109.37    665.00     25.79
109.47    690.00     26.27
109.57    685.11     26.17
109.67    666.82     25.82
109.77    670.85     25.90
109.87    639.00     25.28
109.97    622.00     24.94
110.07    645.00     25.40
110.17    611.09     24.72
110.27    592.00     24.33
110.37    583.00     24.15
110.47    604.00     24.58
110.57    567.00     23.81
110.67    580.00     24.08
110.77    531.00     23.04
110.87    595.00     24.39
110.97    515.94     22.71
111.07    535.00     23.13
111.17    568.48     23.84
111.27    571.86     23.91
111.37    495.87     22.27
111.47    531.23     23.05
111.57    566.00     23.79
111.67    508.63     22.55
111.77    497.42     22.30
111.87    533.22     23.09
111.97    545.00     23.35
112.07    578.13     24.04
112.17    571.98     23.92
112.27    559.20     23.65
112.37    525.00     22.91
112.47    551.00     23.47
112.57    549.00     23.43
112.67    551.00     23.47
112.77    597.00     24.43
112.87    572.00     23.92
112.97    577.44     24.03
113.07    574.00     23.96
113.17    593.74     24.37
113.27    575.00     23.98
113.37    606.00     24.62
113.47    609.00     24.68
113.57    597.00     24.43
113.67    681.92     26.11
113.77    659.00     25.67
113.87    725.00     26.93
113.97    689.00     26.25
114.07    731.00     27.04
114.17    811.00     28.48
114.27    851.00     29.17
114.37    858.00     29.29
114.47    981.00     31.32
114.57   1018.00     31.91
114.67   1209.93     34.78
114.77   1313.00     36.24
114.87   1433.00     37.85
114.97   1641.52     40.52
115.07   1785.00     42.25
115.17   2022.00     44.97
115.27   2306.00     48.02
115.37   2514.87     50.15
115.47   2783.00     52.75
115.57   3011.00     54.87
115.67   3278.32     57.26
115.77   3798.79     61.63
115.87   4119.00     64.18
115.97   4436.00     66.60
116.07   4945.02     70.32
116.17   5065.56     71.17
116.27   5585.00     74.73
116.37   5837.00     76.40
116.47   6218.00     78.85
116.57   6548.07     80.92
116.67   6669.00     81.66
116.77   6815.00     82.55
116.87   6888.00     82.99
116.97   6963.78     83.45
117.07   6910.00     83.13
117.17   6818.54     82.57
117.27   6483.00     80.52
117.37   6206.00     78.78
117.47   5934.89     77.04
117.57   5590.00     74.77
117.67   5284.00     72.69
117.77   4965.65     70.47
117.87   4524.00     67.26
117.97   4168.61     64.56
118.07   3939.00     62.76
118.17   3498.27     59.15
118.27   3226.50     56.80
118.37   2970.00     54.50
118.47   2667.00     51.64
118.57   2190.00     46.80
118.67   2096.00     45.78
118.77   1816.00     42.61
118.87   1644.00     40.55
118.97   1459.05     38.20
119.07   1269.00     35.62
119.17   1277.39     35.74
119.27   1076.00     32.80
119.37   1054.00     32.47
119.47    965.00     31.06
119.57    868.00     29.46
119.67    881.00     29.68
119.77    839.00     28.97
119.87    812.00     28.50
119.97    669.54     25.88
120.07    676.00     26.00
120.17    625.00     25.00
120.27    684.00     26.15
120.37    646.00     25.42
120.47    645.00     25.40
120.57    613.24     24.76
120.67    604.00     24.58
120.77    636.22     25.22
120.87    608.00     24.66
120.97    580.00     24.08
121.07    613.09     24.76
121.17    566.00     23.79
121.27    557.00     23.60
121.37    595.00     24.39
121.47    614.10     24.78
121.57    542.00     23.28
121.67    582.00     24.12
121.77    611.00     24.72
121.87    587.91     24.25
121.97    550.00     23.45
122.07    580.00     24.08
122.17    558.00     23.62
122.27    616.09     24.82
122.37    606.00     24.62
122.47    589.74     24.28
122.57    609.00     24.68
122.67    567.44     23.82
122.77    594.10     24.37
122.87    603.00     24.56
122.97    619.00     24.88
123.07    652.19     25.54
123.17    645.52     25.41
123.27    624.00     24.98
123.37    595.15     24.40
123.47    687.00     26.21
123.57    658.45     25.66
123.67    653.00     25.55
123.77    620.00     24.90
123.87    641.26     25.32
123.97    595.47     24.40
124.07    599.00     24.47
124.17    597.00     24.43
124.27    607.00     24.64
124.37    590.33     24.30
124.47    572.38     23.92
124.57    628.42     25.07
124.67    609.00     24.68
124.77    601.59     24.53
124.87    580.00     24.08
124.97    569.00     23.85
