XYDATA



INTER 1.0 1.0 0 0
TEMP 1074.0
  9.97    618.68     24.87
 10.07    603.47     24.57
 10.17    565.23     23.77
 10.27    620.64     24.91
 10.37    554.92     23.56
 10.47    585.00     24.19
 10.57    596.13     24.42
 10.67    572.00     23.92
 10.77    589.00     24.27
 10.87    594.00     24.37
 10.97    597.00     24.43
 11.07    628.00     25.06
 11.17    585.00     24.19
 11.27    591.33     24.32
 11.37    631.00     25.12
 11.47    563.74     23.74
 11.57    637.00     25.24
 11.67    617.00     24.84
 11.77    579.00     24.06
 11.87    632.00     25.14
 11.97    648.00     25.46
 12.07    672.00     25.92
 12.17    700.00     26.46
 12.27    697.00     26.40
 12.37    652.00     25.53
 12.47    623.00     24.96
 12.57    581.00     24.10
 12.67    557.46     23.61
 12.77    569.00     23.85
 12.87    576.00     24.00
 12.97    603.47     24.57
 13.07    582.00     24.12
 13.17    544.09     23.33
 13.27    578.40     24.05
 13.37    569.00     23.85
 13.47    599.00     24.47
 13.57    540.43     23.25
 13.67    620.16     24.90
 13.77    566.38     23.80
 13.87    554.00     23.54
 13.97    560.75     23.68
 14.07    584.63     24.18
 14.17    566.00     23.79
 14.27    613.31     24.77
 14.37    543.85     23.32
 14.47    611.51     24.73
 14.57    608.90     24.68
 14.67    542.00     23.28
 14.77    555.79     23.58
 14.87    559.00     23.64
 14.97    598.32     24.46
 15.07    567.00     23.81
 15.17    577.00     24.02
 15.27    593.00     24.35
 15.37    556.00     23.58
 15.47    526.20     22.94
 15.57    556.00     23.58
 15.67    552.00     23.49
 15.77    560.00     23.66
 15.87    616.21     24.82
 15.97    566.00     23.79
 16.07    550.71     23.47
 16.17    572.00     23.92
 16.27    507.00     22.52
 16.37    567.00     23.81
 16.47    547.00     23.39
 16.57    567.83     23.83
 16.67    609.00     24.68
 16.77    540.00     23.24
 16.87    606.00     24.62
 16.97    547.30     23.39
 17.07    587.83     24.25
 17.17    599.00     24.47
 17.27    601.00     24.52
 17.37    570.76     23.89
 17.47    568.00     23.83
 17.57    574.00     23.96
 17.67    563.00     23.73
 17.77    499.00     22.34
 17.87    582.14     24.13
 17.97    599.48     24.48
 18.07    538.00     23.19
 18.17    570.19     23.88
 18.27    592.23     24.34
 18.37    562.00     23.71
 18.47    566.00     23.79
 18.57    532.62     23.08
 18.67    589.00     24.27
 18.77    566.00     23.79
 18.87    552.00     23.49
 18.97    542.00     23.28
 19.07    606.22     24.62
 19.17    541.00     23.26
 19.27    548.00     23.41
 19.37    608.00     24.66
 19.47    559.00     23.64
 19.57    524.77     22.91
 19.67    606.69     24.63
 19.77    575.00     23.98
 19.87    584.01     24.17
 19.97    519.64     22.80
 20.07    555.00     23.56
 20.17    575.76     23.99
 20.27    564.00     23.75
 20.37    576.00     24.00
 20.47    559.00     23.64
 20.57    529.50     23.01
 20.67    561.26     23.69
 20.77    570.97     23.89
 20.87    598.72     24.47
 20.97    546.00     23.37
 21.07    527.00     22.96
 21.17    526.58     22.95
 21.27    533.00     23.09
 21.37    543.00     23.30
 21.47    561.00     23.69
 21.57    564.00     23.75
 21.67    544.00     23.32
 21.77    560.00     23.66
 21.87    550.00     23.45
 21.97    553.00     23.52
 22.07    517.00     22.74
 22.17    557.00     23.60
 22.27    609.00     24.68
 22.37    562.93     23.73
 22.47    553.46     23.53
 22.57    514.84     22.69
 22.67    592.00     24.33
 22.77    557.09     23.60
 22.87    585.35     24.19
 22.97    539.00     23.22
 23.07    549.05     23.43
 23.17    603.00     24.56
 23.27    535.85     23.15
 23.37    573.19     23.94
 23.47    519.00     22.78
 23.57    522.00     22.85
 23.67    562.00     23.71
 23.77    550.00     23.45
 23.87    563.00     23.73
 23.97    589.00     24.27
 24.07    595.36     24.40
 24.17    541.00     23.26
 24.27    588.88     24.27
 24.37    581.00     24.10
 24.47    602.85     24.55
 24.57    576.00     24.00
 24.67    612.03     24.74
 24.77    608.00     24.66
 24.87    613.00     24.76
 24.97    616.00     24.82
 25.07    619.74     24.89
 25.17    582.00     24.12
 25.27    524.00     22.89
 25.37    528.00     22.98
 25.47    554.00     23.54
 25.57    534.00     23.11
 25.67    562.24     23.71
 25.77    509.43     22.57
 25.87    536.97     23.17
 25.97    518.20     22.76
 26.07    522.00     22.85
 26.17    589.33     24.28
 26.27    580.00     24.08
 26.37    539.00     23.22
 26.47    551.00     23.47
 26.57    571.00     23.90
 26.67    509.33     22.57
 26.77    527.00     22.96
 26.87    526.00     22.93
 26.97    578.00     24.04
 27.07    578.83     24.06
 27.17    555.20     23.56
 27.27    566.52     23.80
 27.37    582.59     24.14
 27.47    567.04     23.81
 27.57    541.00     23.26
 27.67    596.00     24.41
 27.77    607.00     24.64
 27.87    608.00     24.66
 27.97    669.00     25.87
 28.07    767.08     27.70
 28.17    879.15     29.65
 28.27    959.07     30.97
 28.37    867.52     29.45
 28.47    826.00     28.74
 28.57    705.00     26.55
 28.67    676.00     26.00
 28.77    709.99     26.65
 28.87    858.00     29.29
 28.97    824.10     28.71
 29.07    848.69     29.13
 29.17    702.00     26.50
 29.27    657.00     25.63
 29.37    593.00     24.35
 29.47    556.00     23.58
 29.57    571.00     23.90
 29.67    590.98     24.31
 29.77    613.13     24.76
 29.87    599.00     24.47
 29.97    512.04     22.63
 30.07    582.00     24.12
 30.17    559.00     23.64
 30.27    562.00     23.71
 30.37    569.00     23.85
 30.47    536.00     23.15
 30.57    581.00     24.10
 30.67    570.00     23.87
 30.77    610.00     24.70
 30.87    568.78     23.85
 30.97    639.00     25.28
 31.07    621.00     24.92
 31.17    569.13     23.86
 31.27    592.43     24.34
 31.37    528.00     22.98
 31.47    529.00     23.00
 31.57    520.00     22.80
 31.67    551.00     23.47
 31.77    548.00     23.41
 31.87    545.00     23.35
 31.97    572.46     23.93
 32.07    550.00     23.45
 32.17    486.84     22.06
 32.27    546.78     23.38
 32.37    554.41     23.55
 32.47    564.00     23.75
 32.57    547.00     23.39
 32.67    550.00     23.45
 32.77    552.94     23.51
 32.87    555.00     23.56
 32.97    548.00     23.41
 33.07    524.00     22.89
 33.17    516.48     22.73
 33.27    509.98     22.58
 33.37    603.00     24.56
 33.47    577.18     24.02
 33.57    602.56     24.55
 33.67    619.00     24.88
 33.77    780.00     27.93
 33.87    824.91     28.72
 33.97   1009.48     31.77
 34.07   1033.00     32.14
 34.17   1080.20     32.87
 34.27    936.00     30.59
 34.37    706.00     26.57
 34.47    658.00     25.65
 34.57    623.00     24.96
 34.67    574.00     23.96
 34.77    535.00     23.13
 34.87    533.00     23.09
 34.97    535.00     23.13
 35.07    499.00     22.34
 35.17    505.00     22.47
 35.27    536.77     23.17
 35.37    497.00     22.29
 35.47    492.01     22.18
 35.57    488.69     22.11
 35.67    558.00     23.62
 35.77    527.00     22.96
 35.87    521.00     22.83
 35.97    539.00     23.22
 36.07    533.00     23.09
 36.17    521.00     22.83
 36.27    522.06     22.85
 36.37    519.00     22.78
 36.47    545.99     23.37
 36.57    457.00     21.38
 36.67    552.85     23.51
 36.77    523.00     22.87
 36.87    512.00     22.63
 36.97    518.00     22.76
 37.07    519.00     22.78
 37.17    539.27     23.22
 37.27    525.00     22.91
 37.37    539.93     23.24
 37.47    519.00     22.78
 37.57    497.00     22.29
 37.67    546.00     23.37
 37.77    539.60     23.23
 37.87    531.00     23.04
 37.97    545.00     23.35
 38.07    458.00     21.40
 38.17    499.00     22.34
 38.27    475.03     21.80
 38.37    507.61     22.53
 38.47    547.00     23.39
 38.57    500.20     22.37
 38.67    539.00     23.22
 38.77    548.54     23.42
 38.87    501.00     22.38
 38.97    507.00     22.52
 39.07    497.00     22.29
 39.17    544.49     23.33
 39.27    472.62     21.74
 39.37    526.46     22.94
 39.47    516.00     22.72
 39.57    528.00     22.98
 39.67    478.17     21.87
 39.77    461.00     21.47
 39.87    501.00     22.38
 39.97    532.00     23.07
 40.07    506.00     22.49
 40.17    519.00     22.78
 40.27    509.02     22.56
 40.37    518.41     22.77
 40.47    495.00     22.25
 40.57    515.00     22.69
 40.67    490.00     22.14
 40.77    529.79     23.02
 40.87    484.00     22.00
 40.97    501.00     22.38
 41.07    514.00     22.67
 41.17    478.00     21.86
 41.27    503.11     22.43
 41.37    485.00     22.02
 41.47    542.45     23.29
 41.57    493.00     22.20
 41.67    498.96     22.34
 41.77    516.00     22.72
 41.87    534.28     23.11
 41.97    522.00     22.85
 42.07    477.25     21.85
 42.17    553.53     23.53
 42.27    578.34     24.05
 42.37    530.38     23.03
 42.47    578.00     24.04
 42.57    540.00     23.24
 42.67    657.18     25.64
 42.77    609.00     24.68
 42.87    599.96     24.49
 42.97    538.28     23.20
 43.07    559.00     23.64
 43.17    502.19     22.41
 43.27    503.00     22.43
 43.37    531.25     23.05
 43.47    508.00     22.54
 43.57    497.00     22.29
 43.67    525.00     22.91
 43.77    473.50     21.76
 43.87    462.00     21.49
 43.97    527.00     22.96
 44.07    492.00     22.18
 44.17    533.93     23.11
 44.27    478.00     21.86
 44.37    527.21     22.96
 44.47    482.43     21.96
 44.57    481.40     21.94
 44.67    536.00     23.15
 44.77    485.00     22.02
 44.87    507.00     22.52
 44.97    515.00     22.69
 45.07    518.42     22.77
 45.17    520.00     22.80
 45.27    533.00     23.09
 45.37    514.79     22.69
 45.47    556.00     23.58
 45.57    519.00     22.78
 45.67    474.00     21.77
 45.77    531.50     23.05
 45.87    477.00     21.84
 45.97    466.43     21.60
 46.07    537.54     23.18
 46.17    515.00     22.69
 46.27    541.13     23.26
 46.37    493.00     22.20
 46.47    550.01     23.45
 46.57    497.00     22.29
 46.67    487.01     22.07
 46.77    540.00     23.24
 46.87    515.00     22.69
 46.97    527.90     22.98
 47.07    515.00     22.69
 47.17    463.00     21.52
 47.27    491.00     22.16
 47.37    516.00     22.72
 47.47    545.89     23.36
 47.57    528.36     22.99
 47.67    538.00     23.19
 47.77    595.00     24.39
 47.87    613.00     24.76
 47.97    670.00     25.88
 48.07    573.00     23.94
 48.17    588.00     24.25
 48.27    518.00     22.76
 48.37    519.08     22.78
 48.47    537.00     23.17
 48.57    536.00     23.15
 48.67    533.20     23.09
 48.77    560.39     23.67
 48.87    527.00     22.96
 48.97    560.00     23.66
 49.07    595.00     24.39
 49.17    605.61     24.61
 49.27    584.00     24.17
 49.37    669.00     25.87
 49.47    679.00     26.06
 49.57    783.00     27.98
 49.67    904.00     30.07
 49.77   1094.88     33.09
 49.87   1402.90     37.46
 49.97   1817.00     42.63
 50.07   2213.00     47.04
 50.17   2521.00     50.21
 50.27   2476.00     49.76
 50.37   2319.12     48.16
 50.47   1892.72     43.51
 50.57   1484.00     38.52
 50.67   1006.00     31.72
 50.77    838.00     28.95
 50.87    688.34     26.24
 50.97    690.75     26.28
 51.07    615.00     24.80
 51.17    633.00     25.16
 51.27    572.00     23.92
 51.37    578.00     24.04
 51.47    597.52     24.44
 51.57    597.00     24.43
 51.67    592.00     24.33
 51.77    526.00     22.93
 51.87    526.00     22.93
 51.97    565.00     23.77
 52.07    540.00     23.24
 52.17    527.00     22.96
 52.27    545.00     23.35
 52.37    577.81     24.04
 52.47    598.00     24.45
 52.57    521.59     22.84
 52.67    583.00     24.15
 52.77    626.00     25.02
 52.87    651.44     25.52
 52.97    716.84     26.77
 53.07    812.00     28.50
 53.17    873.00     29.55
 53.27   1008.59     31.76
 53.37   1162.00     34.09
 53.47   1203.00     34.68
 53.57   1185.43     34.43
 53.67   1052.00     32.43
 53.77    980.09     31.31
 53.87    885.00     29.75
 53.97    725.00     26.93
 54.07    681.00     26.10
 54.17    594.07     24.37
 54.27    573.00     23.94
 54.37    598.00     24.45
 54.47    573.00     23.94
 54.57    565.46     23.78
 54.67    564.00     23.75
 54.77    555.00     23.56
 54.87    568.00     23.83
 54.97    507.44     22.53
 55.07    548.03     23.41
 55.17    588.00     24.25
 55.27    526.00     22.93
 55.37    572.00     23.92
 55.47    584.14     24.17
 55.57    563.00     23.73
 55.67    587.00     24.23
 55.77    571.00     23.90
 55.87    607.34     24.64
 55.97    615.00     24.80
 56.07    671.00     25.90
 56.17    724.71     26.92
 56.27    869.00     29.48
 56.37   1081.00     32.88
 56.47   1505.65     38.80
 56.57   1726.00     41.55
 56.67   2149.00     46.36
 56.77   2471.00     49.71
 56.87   2504.00     50.04
 56.97   2651.00     51.49
 57.07   2432.11     49.32
 57.17   2041.35     45.18
 57.27   1712.00     41.38
 57.37   1309.00     36.18
 57.47   1009.00     31.76
 57.57    819.00     28.62
 57.67    719.67     26.83
 57.77    743.00     27.26
 57.87    619.50     24.89
 57.97    656.03     25.61
 58.07    752.00     27.42
 58.17    699.00     26.44
 58.27    812.52     28.50
 58.37    850.44     29.16
 58.47    962.00     31.02
 58.57   1098.79     33.15
 58.67   1136.00     33.70
 58.77   1369.00     37.00
 58.87   1456.00     38.16
 58.97   1571.45     39.64
 59.07   1542.00     39.27
 59.17   1543.00     39.28
 59.27   1455.00     38.14
 59.37   1371.00     37.03
 59.47   1226.03     35.01
 59.57   1193.00     34.54
 59.67   1189.00     34.48
 59.77   1190.00     34.50
 59.87   1189.31     34.49
 59.97   1337.00     36.57
 60.07   1442.00     37.97
 60.17   1553.00     39.41
 60.27   1564.31     39.55
 60.37   1481.23     38.49
 60.47   1449.00     38.07
 60.57   1269.00     35.62
 60.67   1109.00     33.30
 60.77    865.81     29.42
 60.87    826.00     28.74
 60.97    658.24     25.66
 61.07    613.00     24.76
 61.17    676.00     26.00
 61.27    663.18     25.75
 61.37    644.00     25.38
 61.47    708.65     26.62
 61.57    738.00     27.17
 61.67    802.18     28.32
 61.77    981.17     31.32
 61.87   1015.00     31.86
 61.97   1238.00     35.19
 62.07   1358.00     36.85
 62.17   1352.00     36.77
 62.27   1391.00     37.30
 62.37   1297.00     36.01
 62.47   1141.75     33.79
 62.57   1049.00     32.39
 62.67    861.17     29.35
 62.77    741.57     27.23
 62.87    638.00     25.26
 62.97    653.00     25.55
 63.07    628.00     25.06
 63.17    566.00     23.79
 63.27    565.00     23.77
 63.37    603.00     24.56
 63.47    526.44     22.94
 63.57    589.00     24.27
 63.67    582.00     24.12
 63.77    555.88     23.58
 63.87    620.00     24.90
 63.97    673.00     25.94
 64.07    741.00     27.22
 64.17    762.03     27.60
 64.27    843.00     29.03
 64.37    862.44     29.37
 64.47   1015.97     31.87
 64.57    975.79     31.24
 64.67    971.62     31.17
 64.77    996.00     31.56
 64.87    905.44     30.09
 64.97    966.00     31.08
 65.07    855.00     29.24
 65.17    778.80     27.91
 65.27    753.28     27.45
 65.37    661.00     25.71
 65.47    576.00     24.00
 65.57    609.00     24.68
 65.67    624.00     24.98
 65.77    548.00     23.41
 65.87    595.00     24.39
 65.97    533.00     23.09
 66.07    589.20     24.27
 66.17    561.00     23.69
 66.27    557.00     23.60
 66.37    560.00     23.66
 66.47    580.00     24.08
 66.57    563.00     23.73
 66.67    579.59     24.07
 66.77    609.68     24.69
 66.87    544.00     23.32
 66.97    623.73     24.97
 67.07    626.00     25.02
 67.17    736.72     27.14
 67.27    785.43     28.03
 67.37    901.00     30.02
 67.47   1066.38     32.66
 67.57   1284.91     35.85
 67.67   1517.00     38.95
 67.77   1798.47     42.41
 67.87   2049.65     45.27
 67.97   2254.59     47.48
 68.07   2423.97     49.23
 68.17   2349.10     48.47
 68.27   2442.00     49.42
 68.37   2045.00     45.22
 68.47   1857.00     43.09
 68.57   1507.87     38.83
 68.67   1332.00     36.50
 68.77   1024.00     32.00
 68.87    856.00     29.26
 68.97    772.00     27.78
 69.07    710.00     26.65
 69.17    602.16     24.54
 69.27    640.00     25.30
 69.37    589.00     24.27
 69.47    592.00     24.33
 69.57    613.65     24.77
 69.67    598.00     24.45
 69.77    595.55     24.40
 69.87    579.23     24.07
 69.97    579.00     24.06
 70.07    557.00     23.60
 70.17    583.79     24.16
 70.27    610.28     24.70
 70.37    550.42     23.46
 70.47    533.12     23.09
 70.57    565.00     23.77
 70.67    549.00     23.43
 70.77    580.00     24.08
 70.87    604.00     24.58
 70.97    593.00     24.35
 71.07    620.00     24.90
 71.17    755.00     27.48
 71.27    834.46     28.89
 71.37    965.00     31.06
 71.47   1137.79     33.73
 71.57   1264.20     35.56
 71.67   1457.18     38.17
 71.77   1618.92     40.24
 71.87   1791.00     42.32
 71.97   1838.51     42.88
 72.07   1907.00     43.67
 72.17   1938.00     44.02
 72.27   1859.97     43.13
 72.37   1664.00     40.79
 72.47   1478.00     38.44
 72.57   1319.00     36.32
 72.67   1167.00     34.16
 72.77   1018.74     31.92
 72.87    940.09     30.66
 72.97    851.00     29.17
 73.07    804.68     28.37
 73.17    766.86     27.69
 73.27    753.58     27.45
 73.37    673.00     25.94
 73.47    614.00     24.78
 73.57    600.00     24.49
 73.67    638.00     25.26
 73.77    589.00     24.27
 73.87    569.67     23.87
 73.97    599.00     24.47
 74.07    618.00     24.86
 74.17    572.00     23.92
 74.27    584.46     24.18
 74.37    543.26     23.31
 74.47    575.00     23.98
 74.57    580.13     24.09
 74.67    614.00     24.78
 74.77    654.00     25.57
 74.87    655.00     25.59
 74.97    569.00     23.85
 75.07    600.00     24.49
 75.17    613.00     24.76
 75.27    541.00     23.26
 75.37    543.25     23.31
 75.47    555.00     23.56
 75.57    568.00     23.83
 75.67    558.00     23.62
 75.77    601.00     24.52
 75.87    573.32     23.94
 75.97    613.00     24.76
 76.07    610.00     24.70
 76.17    675.00     25.98
 76.27    627.00     25.04
 76.37    668.00     25.85
 76.47    700.00     26.46
 76.57    688.00     26.23
 76.67    692.00     26.31
 76.77    707.00     26.59
 76.87    657.11     25.63
 76.97    647.00     25.44
 77.07    654.21     25.58
 77.17    561.00     23.69
 77.27    568.00     23.83
 77.37    559.67     23.66
 77.47    535.00     23.13
 77.57    564.00     23.75
 77.67    558.00     23.62
 77.77    548.54     23.42
 77.87    544.00     23.32
 77.97    498.57     22.33
 78.07    543.61     23.32
 78.17    565.49     23.78
 78.27    553.00     23.52
 78.37    487.00     22.07
 78.47    529.00     23.00
 78.57    504.20     22.45
 78.67    498.00     22.32
 78.77    516.50     22.73
 78.87    501.00     22.38
 78.97    518.04     22.76
 79.07    482.00     21.95
 79.17    555.39     23.57
 79.27    561.84     23.70
 79.37    521.00     22.83
 79.47    527.83     22.97
 79.57    584.00     24.17
 79.67    536.04     23.15
 79.77    573.51     23.95
 79.87    516.00     22.72
 79.97    537.16     23.18
 80.07    534.00     23.11
 80.17    601.72     24.53
 80.27    584.03     24.17
 80.37    626.33     25.03
 80.47    628.00     25.06
 80.57    672.00     25.92
 80.67    652.00     25.53
 80.77    625.58     25.01
 80.87    658.00     25.65
 80.97    713.00     26.70
 81.07    735.00     27.11
 81.17    735.00     27.11
 81.27    725.00     26.93
 81.37    731.46     27.05
 81.47    764.00     27.64
 81.57    788.01     28.07
 81.67    748.00     27.35
 81.77    776.00     27.86
 81.87    704.00     26.53
 81.97    703.55     26.52
 82.07    688.00     26.23
 82.17    668.00     25.85
 82.27    655.00     25.59
 82.37    656.00     25.61
 82.47    611.00     24.72
 82.57    613.74     24.77
 82.67    579.00     24.06
 82.77    609.00     24.68
 82.87    610.00     24.70
 82.97    567.00     23.81
 83.07    576.99     24.02
 83.17    518.00     22.76
 83.27    574.66     23.97
 83.37    526.01     22.93
 83.47    545.00     23.35
 83.57    531.00     23.04
 83.67    566.00     23.79
 83.77    521.00     22.83
 83.87    552.00     23.49
 83.97    591.36     24.32
 84.07    577.00     24.02
 84.17    567.80     23.83
 84.27    529.59     23.01
 84.37    588.00     24.25
 84.47    575.00     23.98
 84.57    566.00     23.79
 84.67    525.21     22.92
 84.77    533.35     23.09
 84.87    576.66     24.01
 84.97    517.24     22.74
 85.07    518.00     22.76
 85.17    501.73     22.40
 85.27    531.23     23.05
 85.37    505.00     22.47
 85.47    542.00     23.28
 85.57    543.50     23.31
 85.67    518.00     22.76
 85.77    558.46     23.63
 85.87    545.00     23.35
 85.97    545.00     23.35
 86.07    515.34     22.70
 86.17    512.00     22.63
 86.27    574.37     23.97
 86.37    508.00     22.54
 86.47    589.66     24.28
 86.57    549.00     23.43
 86.67    627.00     25.04
 86.77    559.00     23.64
 86.87    594.99     24.39
 86.97    584.00     24.17
 87.07    618.00     24.86
 87.17    645.35     25.40
 87.27    659.20     25.67
 87.37    669.00     25.87
 87.47    674.00     25.96
 87.57    671.28     25.91
 87.67    579.00     24.06
 87.77    610.87     24.72
 87.87    626.05     25.02
 87.97    549.67     23.45
 88.07    568.00     23.83
 88.17    590.00     24.29
 88.27    602.00     24.54
 88.37    613.00     24.76
 88.47    554.85     23.56
 88.57    611.00     24.72
 88.67    534.77     23.13
 88.77    587.00     24.23
 88.87    550.00     23.45
 88.97    614.30     24.78
 89.07    570.33     23.88
 89.17    581.00     24.10
 89.27    594.78     24.39
 89.37    625.98     25.02
 89.47    608.00     24.66
 89.57    571.00     23.90
 89.67    547.00     23.39
 89.77    574.00     23.96
 89.87    600.73     24.51
 89.97    550.00     23.45
 90.07    569.00     23.85
 90.17    548.00     23.41
 90.27    507.75     22.53
 90.37    505.00     22.47
 90.47    546.63     23.38
 90.57    508.00     22.54
 90.67    533.00     23.09
 90.77    554.00     23.54
 90.87    542.00     23.28
 90.97    563.29     23.73
 91.07    553.00     23.52
 91.17    508.00     22.54
 91.27    553.20     23.52
 91.37    532.00     23.07
 91.47    528.00     22.98
 91.57    543.00     23.30
 91.67    579.60     24.07
 91.77    570.72     23.89
 91.87    517.14     22.74
 91.97    517.00     22.74
 92.07    574.23     23.96
 92.17    572.00     23.92
 92.27    566.00     23.79
 92.37    572.00     23.92
 92.47    624.00     24.98
 92.57    669.76     25.88
 92.67    655.00     25.59
 92.77    691.00     26.29
 92.87    701.00     26.48
 92.97    711.66     26.68
 93.07    738.00     27.17
 93.17    756.00     27.50
 93.27    787.00     28.05
 93.37    818.00     28.60
 93.47    806.00     28.39
 93.57    778.30     27.90
 93.67    857.00     29.27
 93.77    860.00     29.33
 93.87    819.00     28.62
 93.97    812.46     28.50
 94.07    820.02     28.64
 94.17    839.00     28.97
 94.27    848.72     29.13
 94.37    895.00     29.92
 94.47    881.00     29.68
 94.57    894.00     29.90
 94.67    924.66     30.41
 94.77    892.00     29.87
 94.87    888.65     29.81
 94.97    841.38     29.01
 95.07    904.84     30.08
 95.17    798.04     28.25
 95.27    846.44     29.09
 95.37    784.53     28.01
 95.47    764.59     27.65
 95.57    791.00     28.12
 95.67    739.00     27.18
 95.77    708.29     26.61
 95.87    680.75     26.09
 95.97    686.09     26.19
 96.07    652.47     25.54
 96.17    684.50     26.16
 96.27    697.00     26.40
 96.37    744.00     27.28
 96.47    838.58     28.96
 96.57    793.00     28.16
 96.67    965.72     31.08
 96.77   1004.07     31.69
 96.87   1040.00     32.25
 96.97   1141.00     33.78
 97.07   1258.40     35.47
 97.17   1292.00     35.94
 97.27   1346.01     36.69
 97.37   1330.88     36.48
 97.47   1433.00     37.85
 97.57   1468.44     38.32
 97.67   1396.00     37.36
 97.77   1314.00     36.25
 97.87   1343.69     36.66
 97.97   1330.00     36.47
 98.07   1276.00     35.72
 98.17   1193.00     34.54
 98.27   1102.70     33.21
 98.37   1016.00     31.87
 98.47    918.00     30.30
 98.57    879.00     29.65
 98.67    902.00     30.03
 98.77    838.00     28.95
 98.87    797.00     28.23
 98.97    844.18     29.05
 99.07    823.00     28.69
 99.17    869.00     29.48
 99.27    832.00     28.84
 99.37    959.00     30.97
 99.47   1031.00     32.11
 99.57   1012.00     31.81
 99.67   1190.00     34.50
 99.77   1252.00     35.38
 99.87   1492.00     38.63
 99.97   1501.61     38.75
100.07   1659.00     40.73
100.17   1674.18     40.92
100.27   1892.00     43.50
100.37   1940.00     44.05
100.47   2025.00     45.00
100.57   2005.77     44.79
100.67   2114.97     45.99
100.77   2066.57     45.46
100.87   2033.00     45.09
100.97   2028.00     45.03
101.07   1876.86     43.32
101.17   1930.00     43.93
101.27   1838.00     42.87
101.37   1734.00     41.64
101.47   1605.06     40.06
101.57   1472.00     38.37
101.67   1441.00     37.96
101.77   1346.96     36.70
101.87   1252.12     35.39
101.97   1236.00     35.16
102.07   1194.00     34.55
102.17   1114.00     33.38
102.27   1113.00     33.36
102.37   1076.00     32.80
102.47   1164.00     34.12
102.57   1034.00     32.16
102.67   1092.00     33.05
102.77   1000.00     31.62
102.87    986.00     31.40
102.97    939.70     30.65
103.07    898.00     29.97
103.17    873.64     29.56
103.27    842.49     29.03
103.37    789.11     28.09
103.47    765.53     27.67
103.57    686.54     26.20
103.67    747.00     27.33
103.77    630.00     25.10
103.87    600.00     24.49
103.97    575.88     24.00
104.07    621.00     24.92
104.17    651.00     25.51
104.27    582.00     24.12
104.37    572.00     23.92
104.47    519.00     22.78
104.57    520.00     22.80
104.67    561.00     23.69
104.77    547.00     23.39
104.87    544.00     23.32
104.97    495.49     22.26
105.07    577.00     24.02
105.17    560.06     23.67
105.27    530.00     23.02
105.37    515.45     22.70
105.47    559.00     23.64
105.57    578.00     24.04
105.67    508.83     22.56
105.77    570.30     23.88
105.87    530.34     23.03
105.97    514.89     22.69
106.07    538.00     23.19
106.17    563.81     23.74
106.27    575.00     23.98
106.37    566.00     23.79
106.47    597.00     24.43
106.57    599.00     24.47
106.67    637.00     25.24
106.77    633.23     25.16
106.87    649.91     25.49
106.97    638.00     25.26
107.07    642.25     25.34
107.17    688.53     26.24
107.27    672.00     25.92
107.37    631.00     25.12
107.47    705.62     26.56
107.57    725.69     26.94
107.67    698.34     26.43
107.77    655.00     25.59
107.87    655.00     25.59
107.97    699.83     26.45
108.07    709.00     26.63
108.17    703.00     26.51
108.27    730.32     27.02
108.37    698.14     26.42
108.47    726.25     26.95
108.57    741.68     27.23
108.67    737.37     27.15
108.77    656.65     25.63
108.87    665.00     25.79
108.97    692.00     26.31
109.07    684.00     26.15
109.17    687.36     26.22
109.27    635.36     25.21
109.37    620.00     24.90
109.47    635.61     25.21
109.57    666.00     25.81
109.67    676.00     26.00
109.77    612.00     24.74
109.87    615.48     24.81
109.97    616.00     24.82
110.07    557.00     23.60
110.17    572.51     23.93
110.27    592.00     24.33
110.37    536.00     23.15
110.47    584.00     24.17
110.57    572.05     23.92
110.67    515.00     22.69
110.77    559.78     23.66
110.87    507.50     22.53
110.97    540.38     23.25
111.07    530.00     23.02
111.17    569.00     23.85
111.27    528.00     22.98
111.37    531.00     23.04
111.47    521.32     22.83
111.57    564.00     23.75
111.67    527.61     22.97
111.77    570.00     23.87
111.87    550.00     23.45
111.97    585.00     24.19
112.07    554.84     23.55
112.17    538.00     23.19
112.27    583.00     24.15
112.37    599.00     24.47
112.47    613.00     24.76
112.57    562.00     23.71
112.67    607.00     24.64
112.77    674.70     25.97
112.87    666.00     25.81
112.97    695.79     26.38
113.07    715.55     26.75
113.17    686.00     26.19
113.27    651.00     25.51
113.37    751.00     27.40
113.47    790.00     28.11
113.57    811.00     28.48
113.67    900.00     30.00
113.77    960.00     30.98
113.87    934.00     30.56
113.97    936.96     30.61
114.07   1006.00     31.72
114.17   1074.72     32.78
114.27   1133.00     33.66
114.37   1230.53     35.08
114.47   1333.00     36.51
114.57   1437.43     37.91
114.67   1481.42     38.49
114.77   1769.86     42.07
114.87   1914.00     43.75
114.97   2040.00     45.17
115.07   2412.00     49.11
115.17   2614.00     51.13
115.27   2874.00     53.61
115.37   3107.24     55.74
115.47   3484.64     59.03
115.57   3697.00     60.80
115.67   4068.00     63.78
115.77   4365.00     66.07
115.87   4810.00     69.35
115.97   5038.00     70.98
116.07   5625.00     75.00
116.17   6079.93     77.97
116.27   6294.00     79.33
116.37   6633.00     81.44
116.47   6714.00     81.94
116.57   6713.31     81.93
116.67   7053.00     83.98
116.77   6916.00     83.16
116.87   6818.00     82.57
116.97   6620.00     81.36
117.07   6236.17     78.97
117.17   6144.00     78.38
117.27   5693.00     75.45
117.37   5219.00     72.24
117.47   5153.05     71.78
117.57   4525.00     67.27
117.67   4340.00     65.88
117.77   3899.00     62.44
117.87   3629.00     60.24
117.97   3271.00     57.19
118.07   3051.00     55.24
118.17   2612.00     51.11
118.27   2289.00     47.84
118.37   1984.00     44.54
118.47   1750.00     41.83
118.57   1528.33     39.09
118.67   1383.00     37.19
118.77   1224.00     34.99
118.87   1130.00     33.62
118.97   1054.15     32.47
119.07    959.00     30.97
119.17    849.10     29.14
119.27    849.00     29.14
119.37    757.00     27.51
119.47    752.00     27.42
119.57    669.00     25.87
119.67    702.00     26.50
119.77    644.00     25.38
119.87    608.35     24.66
119.97    581.83     24.12
120.07    636.00     25.22
120.17    584.00     24.17
120.27    588.32     24.26
120.37    569.00     23.85
120.47    606.00     24.62
120.57    551.00     23.47
120.67    577.00     24.02
120.77    557.00     23.60
120.87    589.00     24.27
120.97    592.00     24.33
121.07    535.06     23.13
121.17    526.00     22.93
121.27    531.00     23.04
121.37    554.00     23.54
121.47    590.00     24.29
121.57    584.00     24.17
121.67    586.00     24.21
121.77    603.09     24.56
121.87    593.00     24.35
121.97    638.27     25.26
122.07    623.41     24.97
122.17    641.41     25.33
122.27    611.00     24.72
122.37    584.13     24.17
122.47    658.00     25.65
122.57    648.10     25.46
122.67    601.26     24.52
122.77    672.00     25.92
122.87    662.00     25.73
122.97    687.08     26.21
123.07    590.00     24.29
123.17    695.00     26.36
123.27    669.50     25.87
123.37    619.00     24.88
123.47    666.00     25.81
123.57    674.00     25.96
123.67    680.14     26.08
123.77    627.00     25.04
123.87    652.00     25.53
123.97    653.00     25.55
124.07    639.00     25.28
124.17    656.71     25.63
124.27    570.03     23.88
124.37    592.00     24.33
124.47    608.17     24.66
124.57    565.00     23.77
124.67    600.00     24.49
124.77    570.14     23.88
124.87    565.43     23.78
124.97    622.00     24.94
