XYDATA



INTER 1.0 1.0 0 0
TEMP 992.555
  9.97    573.85     23.96
 10.07    617.00     24.84
 10.17    509.86     22.58
 10.27    517.07     22.74
 10.37    588.00     24.25
 10.47    530.73     23.04
 10.57    584.30     24.17
 10.67    589.00     24.27
 10.77    575.00     23.98
 10.87    579.00     24.06
 10.97    587.00     24.23
 11.07    624.00     24.98
 11.17    576.56     24.01
 11.27    598.00     24.45
 11.37    559.00     23.64
 11.47    589.00     24.27
 11.57    576.83     24.02
 11.67    600.38     24.50
 11.77    565.00     23.77
 11.87    603.55     24.57
 11.97    709.00     26.63
 12.07    708.00     26.61
 12.17    660.00     25.69
 12.27    672.00     25.92
 12.37    626.00     25.02
 12.47    615.00     24.80
 12.57    619.59     24.89
 12.67    580.25     24.09
 12.77    562.00     23.71
 12.87    559.00     23.64
 12.97    559.00     23.64
 13.07    588.00     24.25
 13.17    594.94     24.39
 13.27    554.00     23.54
 13.37    561.63     23.70
 13.47    515.00     22.69
 13.57    563.00     23.73
 13.67    501.00     22.38
 13.77    551.00     23.47
 13.87    542.00     23.28
 13.97    547.00     23.39
 14.07    581.53     24.11
 14.17    558.00     23.62
 14.27    590.00     24.29
 14.37    547.00     23.39
 14.47    557.13     23.60
 14.57    536.00     23.15
 14.67    566.75     23.81
 14.77    589.58     24.28
 14.87    534.82     23.13
 14.97    539.37     23.22
 15.07    560.00     23.66
 15.17    526.00     22.93
 15.27    548.00     23.41
 15.37    594.51     24.38
 15.47    521.94     22.85
 15.57    560.99     23.69
 15.67    593.69     24.37
 15.77    539.00     23.22
 15.87    538.00     23.19
 15.97    583.00     24.15
 16.07    540.00     23.24
 16.17    539.90     23.24
 16.27    598.00     24.45
 16.37    552.00     23.49
 16.47    492.00     22.18
 16.57    554.00     23.54
 16.67    545.00     23.35
 16.77    524.00     22.89
 16.87    542.00     23.28
 16.97    552.00     23.49
 17.07    517.14     22.74
 17.17    546.00     23.37
 17.27    559.00     23.64
 17.37    564.54     23.76
 17.47    564.69     23.76
 17.57    528.00     22.98
 17.67    599.00     24.47
 17.77    587.44     24.24
 17.87    534.00     23.11
 17.97    587.00     24.23
 18.07    572.00     23.92
 18.17    594.00     24.37
 18.27    524.00     22.89
 18.37    534.00     23.11
 18.47    567.88     23.83
 18.57    567.02     23.81
 18.67    522.17     22.85
 18.77    517.00     22.74
 18.87    539.00     23.22
 18.97    541.00     23.26
 19.07    583.00     24.15
 19.17    500.00     22.36
 19.27    557.00     23.60
 19.37    579.04     24.06
 19.47    581.00     24.10
 19.57    569.00     23.85
 19.67    558.00     23.62
 19.77    525.00     22.91
 19.87    564.00     23.75
 19.97    562.00     23.71
 20.07    527.33     22.96
 20.17    534.00     23.11
 20.27    541.00     23.26
 20.37    576.00     24.00
 20.47    536.00     23.15
 20.57    570.00     23.87
 20.67    520.00     22.80
 20.77    545.04     23.35
 20.87    563.27     23.73
 20.97    545.00     23.35
 21.07    563.00     23.73
 21.17    561.00     23.69
 21.27    556.00     23.58
 21.37    575.67     23.99
 21.47    535.00     23.13
 21.57    509.53     22.57
 21.67    596.43     24.42
 21.77    560.00     23.66
 21.87    590.72     24.30
 21.97    496.00     22.27
 22.07    521.80     22.84
 22.17    581.00     24.10
 22.27    565.00     23.77
 22.37    585.00     24.19
 22.47    565.00     23.77
 22.57    578.27     24.05
 22.67    571.00     23.90
 22.77    593.00     24.35
 22.87    535.52     23.14
 22.97    530.00     23.02
 23.07    563.00     23.73
 23.17    566.00     23.79
 23.27    535.00     23.13
 23.37    518.00     22.76
 23.47    508.00     22.54
 23.57    536.00     23.15
 23.67    571.76     23.91
 23.77    549.53     23.44
 23.87    589.34     24.28
 23.97    539.00     23.22
 24.07    546.00     23.37
 24.17    563.00     23.73
 24.27    547.00     23.39
 24.37    575.00     23.98
 24.47    587.00     24.23
 24.57    630.00     25.10
 24.67    648.00     25.46
 24.77    657.00     25.63
 24.87    637.00     25.24
 24.97    624.00     24.98
 25.07    549.70     23.45
 25.17    562.15     23.71
 25.27    568.93     23.85
 25.37    551.00     23.47
 25.47    573.55     23.95
 25.57    548.33     23.42
 25.67    499.04     22.34
 25.77    575.73     23.99
 25.87    532.00     23.07
 25.97    570.00     23.87
 26.07    523.00     22.87
 26.17    548.47     23.42
 26.27    581.27     24.11
 26.37    565.00     23.77
 26.47    569.00     23.85
 26.57    542.00     23.28
 26.67    580.00     24.08
 26.77    585.00     24.19
 26.87    574.78     23.97
 26.97    557.35     23.61
 27.07    565.00     23.77
 27.17    570.00     23.87
 27.27    498.77     22.33
 27.37    585.87     24.20
 27.47    585.00     24.19
 27.57    586.00     24.21
 27.67    527.00     22.96
 27.77    565.00     23.77
 27.87    611.00     24.72
 27.97    657.00     25.63
 28.07    801.39     28.31
 28.17    844.00     29.05
 28.27    936.00     30.59
 28.37    826.00     28.74
 28.47    795.00     28.20
 28.57    741.50     27.23
 28.67    704.70     26.55
 28.77    718.00     26.80
 28.87    729.62     27.01
 28.97    781.15     27.95
 29.07    743.00     27.26
 29.17    719.00     26.81
 29.27    653.50     25.56
 29.37    555.51     23.57
 29.47    579.51     24.07
 29.57    577.00     24.02
 29.67    593.00     24.35
 29.77    545.00     23.35
 29.87    510.36     22.59
 29.97    637.00     25.24
 30.07    574.00     23.96
 30.17    570.39     23.88
 30.27    558.14     23.63
 30.37    550.00     23.45
 30.47    523.00     22.87
 30.57    584.00     24.17
 30.67    542.72     23.30
 30.77    603.07     24.56
 30.87    601.00     24.52
 30.97    623.00     24.96
 31.07    644.72     25.39
 31.17    581.00     24.10
 31.27    607.95     24.66
 31.37    511.86     22.62
 31.47    554.00     23.54
 31.57    553.00     23.52
 31.67    538.00     23.19
 31.77    540.00     23.24
 31.87    564.76     23.76
 31.97    530.00     23.02
 32.07    548.00     23.41
 32.17    556.00     23.58
 32.27    531.22     23.05
 32.37    587.00     24.23
 32.47    543.00     23.30
 32.57    546.00     23.37
 32.67    521.00     22.83
 32.77    522.00     22.85
 32.87    532.00     23.07
 32.97    519.00     22.78
 33.07    531.00     23.04
 33.17    527.00     22.96
 33.27    538.00     23.19
 33.37    585.00     24.19
 33.47    532.00     23.07
 33.57    612.06     24.74
 33.67    594.87     24.39
 33.77    727.10     26.96
 33.87    801.00     28.30
 33.97    987.00     31.42
 34.07   1039.00     32.23
 34.17    982.00     31.34
 34.27    921.00     30.35
 34.37    795.00     28.20
 34.47    675.00     25.98
 34.57    576.69     24.01
 34.67    549.00     23.43
 34.77    519.00     22.78
 34.87    548.00     23.41
 34.97    561.00     23.69
 35.07    516.00     22.72
 35.17    554.24     23.54
 35.27    530.00     23.02
 35.37    486.31     22.05
 35.47    541.00     23.26
 35.57    507.00     22.52
 35.67    520.62     22.82
 35.77    557.21     23.61
 35.87    514.00     22.67
 35.97    551.00     23.47
 36.07    459.00     21.42
 36.17    519.00     22.78
 36.27    525.00     22.91
 36.37    486.27     22.05
 36.47    494.28     22.23
 36.57    519.00     22.78
 36.67    509.00     22.56
 36.77    484.00     22.00
 36.87    513.92     22.67
 36.97    496.00     22.27
 37.07    512.00     22.63
 37.17    487.00     22.07
 37.27    467.46     21.62
 37.37    537.00     23.17
 37.47    552.47     23.50
 37.57    535.91     23.15
 37.67    506.00     22.49
 37.77    501.00     22.38
 37.87    521.71     22.84
 37.97    505.00     22.47
 38.07    506.00     22.49
 38.17    514.00     22.67
 38.27    479.00     21.89
 38.37    544.29     23.33
 38.47    530.00     23.02
 38.57    506.00     22.49
 38.67    488.00     22.09
 38.77    482.00     21.95
 38.87    516.19     22.72
 38.97    473.00     21.75
 39.07    452.00     21.26
 39.17    508.94     22.56
 39.27    489.00     22.11
 39.37    506.00     22.49
 39.47    532.00     23.07
 39.57    505.00     22.47
 39.67    514.26     22.68
 39.77    543.84     23.32
 39.87    488.00     22.09
 39.97    468.00     21.63
 40.07    535.72     23.15
 40.17    474.00     21.77
 40.27    515.00     22.69
 40.37    496.00     22.27
 40.47    474.00     21.77
 40.57    497.00     22.29
 40.67    531.00     23.04
 40.77    519.40     22.79
 40.87    534.52     23.12
 40.97    500.00     22.36
 41.07    516.52     22.73
 41.17    484.00     22.00
 41.27    505.00     22.47
 41.37    470.30     21.69
 41.47    509.00     22.56
 41.57    494.26     22.23
 41.67    508.00     22.54
 41.77    463.00     21.52
 41.87    476.23     21.82
 41.97    467.82     21.63
 42.07    499.00     22.34
 42.17    516.00     22.72
 42.27    550.50     23.46
 42.37    578.63     24.05
 42.47    552.00     23.49
 42.57    582.31     24.13
 42.67    546.00     23.37
 42.77    594.00     24.37
 42.87    583.00     24.15
 42.97    570.00     23.87
 43.07    600.00     24.49
 43.17    527.84     22.97
 43.27    481.00     21.93
 43.37    525.00     22.91
 43.47    490.00     22.14
 43.57    500.03     22.36
 43.67    457.00     21.38
 43.77    511.17     22.61
 43.87    504.00     22.45
 43.97    468.00     21.63
 44.07    492.15     22.18
 44.17    496.00     22.27
 44.27    510.93     22.60
 44.37    490.00     22.14
 44.47    506.98     22.52
 44.57    475.00     21.79
 44.67    524.00     22.89
 44.77    524.63     22.90
 44.87    465.00     21.56
 44.97    498.00     22.32
 45.07    532.00     23.07
 45.17    504.39     22.46
 45.27    528.48     22.99
 45.37    475.00     21.79
 45.47    578.00     24.04
 45.57    464.99     21.56
 45.67    522.00     22.85
 45.77    463.25     21.52
 45.87    478.32     21.87
 45.97    461.00     21.47
 46.07    498.85     22.33
 46.17    500.83     22.38
 46.27    528.00     22.98
 46.37    474.38     21.78
 46.47    539.77     23.23
 46.57    459.41     21.43
 46.67    516.00     22.72
 46.77    514.04     22.67
 46.87    504.00     22.45
 46.97    507.00     22.52
 47.07    464.31     21.55
 47.17    478.00     21.86
 47.27    510.00     22.58
 47.37    516.00     22.72
 47.47    530.71     23.04
 47.57    548.00     23.41
 47.67    557.38     23.61
 47.77    570.00     23.87
 47.87    561.33     23.69
 47.97    553.38     23.52
 48.07    546.45     23.38
 48.17    560.00     23.66
 48.27    551.00     23.47
 48.37    584.00     24.17
 48.47    561.77     23.70
 48.57    516.00     22.72
 48.67    508.00     22.54
 48.77    557.00     23.60
 48.87    568.98     23.85
 48.97    507.00     22.52
 49.07    510.00     22.58
 49.17    522.00     22.85
 49.27    570.00     23.87
 49.37    558.00     23.62
 49.47    602.18     24.54
 49.57    635.69     25.21
 49.67    793.00     28.16
 49.77    920.44     30.34
 49.87   1310.00     36.19
 49.97   1675.05     40.93
 50.07   1993.00     44.64
 50.17   2322.62     48.19
 50.27   2353.44     48.51
 50.37   2285.92     47.81
 50.47   1930.00     43.93
 50.57   1576.00     39.70
 50.67   1173.00     34.25
 50.77    893.00     29.88
 50.87    759.90     27.57
 50.97    642.00     25.34
 51.07    622.00     24.94
 51.17    593.74     24.37
 51.27    650.00     25.50
 51.37    610.00     24.70
 51.47    605.00     24.60
 51.57    569.16     23.86
 51.67    553.00     23.52
 51.77    538.30     23.20
 51.87    533.00     23.09
 51.97    581.00     24.10
 52.07    521.00     22.83
 52.17    521.75     22.84
 52.27    576.88     24.02
 52.37    578.00     24.04
 52.47    555.00     23.56
 52.57    534.00     23.11
 52.67    604.00     24.58
 52.77    535.20     23.13
 52.87    567.70     23.83
 52.97    692.00     26.31
 53.07    741.01     27.22
 53.17    790.71     28.12
 53.27    962.16     31.02
 53.37   1109.00     33.30
 53.47   1243.00     35.26
 53.57   1223.63     34.98
 53.67   1105.00     33.24
 53.77   1107.29     33.28
 53.87    933.00     30.55
 53.97    897.05     29.95
 54.07    752.00     27.42
 54.17    675.00     25.98
 54.27    567.72     23.83
 54.37    621.55     24.93
 54.47    601.75     24.53
 54.57    567.00     23.81
 54.67    533.83     23.10
 54.77    534.00     23.11
 54.87    502.58     22.42
 54.97    588.65     24.26
 55.07    598.00     24.45
 55.17    505.11     22.47
 55.27    597.34     24.44
 55.37    565.36     23.78
 55.47    528.00     22.98
 55.57    552.00     23.49
 55.67    558.00     23.62
 55.77    635.25     25.20
 55.87    575.94     24.00
 55.97    645.00     25.40
 56.07    704.00     26.53
 56.17    725.08     26.93
 56.27    820.00     28.64
 56.37   1008.00     31.75
 56.47   1303.84     36.11
 56.57   1629.00     40.36
 56.67   1964.00     44.32
 56.77   2340.12     48.37
 56.87   2476.00     49.76
 56.97   2571.00     50.71
 57.07   2409.00     49.08
 57.17   2097.93     45.80
 57.27   1834.00     42.83
 57.37   1504.00     38.78
 57.47   1271.68     35.66
 57.57   1004.81     31.70
 57.67    844.00     29.05
 57.77    755.00     27.48
 57.87    685.87     26.19
 57.97    674.58     25.97
 58.07    679.00     26.06
 58.17    730.00     27.02
 58.27    756.00     27.50
 58.37    821.48     28.66
 58.47    810.00     28.46
 58.57    882.18     29.70
 58.67   1013.00     31.83
 58.77   1068.26     32.68
 58.87   1209.00     34.77
 58.97   1318.10     36.31
 59.07   1367.00     36.97
 59.17   1382.00     37.18
 59.27   1316.00     36.28
 59.37   1256.00     35.44
 59.47   1226.27     35.02
 59.57   1219.00     34.91
 59.67   1182.00     34.38
 59.77   1188.00     34.47
 59.87   1174.42     34.27
 59.97   1311.00     36.21
 60.07   1382.00     37.18
 60.17   1509.00     38.85
 60.27   1581.00     39.76
 60.37   1507.00     38.82
 60.47   1503.00     38.77
 60.57   1307.00     36.15
 60.67   1161.00     34.07
 60.77   1053.00     32.45
 60.87    928.12     30.47
 60.97    792.00     28.14
 61.07    678.04     26.04
 61.17    725.00     26.93
 61.27    678.00     26.04
 61.37    701.00     26.48
 61.47    684.00     26.15
 61.57    745.00     27.29
 61.67    846.00     29.09
 61.77    950.34     30.83
 61.87   1053.00     32.45
 61.97   1120.89     33.48
 62.07   1376.39     37.10
 62.17   1313.96     36.25
 62.27   1305.00     36.12
 62.37   1355.69     36.82
 62.47   1163.00     34.10
 62.57   1042.00     32.28
 62.67    961.51     31.01
 62.77    810.00     28.46
 62.87    753.00     27.44
 62.97    681.92     26.11
 63.07    579.00     24.06
 63.17    567.00     23.81
 63.27    625.00     25.00
 63.37    554.00     23.54
 63.47    585.96     24.21
 63.57    581.27     24.11
 63.67    569.00     23.85
 63.77    558.11     23.62
 63.87    648.74     25.47
 63.97    604.75     24.59
 64.07    636.00     25.22
 64.17    747.00     27.33
 64.27    848.99     29.14
 64.37    809.67     28.45
 64.47    887.49     29.79
 64.57    977.00     31.26
 64.67    985.00     31.38
 64.77   1027.00     32.05
 64.87    935.99     30.59
 64.97    922.00     30.36
 65.07    932.00     30.53
 65.17    859.00     29.31
 65.27    798.07     28.25
 65.37    687.00     26.21
 65.47    712.00     26.68
 65.57    634.00     25.18
 65.67    584.00     24.17
 65.77    651.45     25.52
 65.87    569.00     23.85
 65.97    599.97     24.49
 66.07    541.00     23.26
 66.17    607.59     24.65
 66.27    555.00     23.56
 66.37    520.90     22.82
 66.47    528.53     22.99
 66.57    551.00     23.47
 66.67    594.36     24.38
 66.77    596.00     24.41
 66.87    554.92     23.56
 66.97    625.00     25.00
 67.07    661.91     25.73
 67.17    635.36     25.21
 67.27    757.00     27.51
 67.37    885.00     29.75
 67.47    955.00     30.90
 67.57   1122.00     33.50
 67.67   1338.00     36.58
 67.77   1673.00     40.90
 67.87   1929.00     43.92
 67.97   2158.77     46.46
 68.07   2243.63     47.37
 68.17   2461.00     49.61
 68.27   2352.00     48.50
 68.37   2225.00     47.17
 68.47   1982.00     44.52
 68.57   1783.00     42.23
 68.67   1442.00     37.97
 68.77   1162.00     34.09
 68.87   1021.56     31.96
 68.97    890.38     29.84
 69.07    800.00     28.28
 69.17    723.00     26.89
 69.27    689.00     26.25
 69.37    628.00     25.06
 69.47    592.00     24.33
 69.57    595.00     24.39
 69.67    614.00     24.78
 69.77    540.00     23.24
 69.87    575.00     23.98
 69.97    535.00     23.13
 70.07    588.94     24.27
 70.17    580.98     24.10
 70.27    576.00     24.00
 70.37    577.34     24.03
 70.47    592.00     24.33
 70.57    523.00     22.87
 70.67    555.00     23.56
 70.77    621.00     24.92
 70.87    628.63     25.07
 70.97    625.00     25.00
 71.07    658.36     25.66
 71.17    708.00     26.61
 71.27    842.50     29.03
 71.37    868.00     29.46
 71.47    974.00     31.21
 71.57   1196.00     34.58
 71.67   1368.55     36.99
 71.77   1517.12     38.95
 71.87   1587.00     39.84
 71.97   1891.00     43.49
 72.07   1847.00     42.98
 72.17   1929.00     43.92
 72.27   1827.00     42.74
 72.37   1753.00     41.87
 72.47   1519.00     38.97
 72.57   1322.75     36.37
 72.67   1128.08     33.59
 72.77   1012.39     31.82
 72.87    907.00     30.12
 72.97    803.00     28.34
 73.07    768.00     27.71
 73.17    705.00     26.55
 73.27    693.03     26.33
 73.37    621.00     24.92
 73.47    670.54     25.89
 73.57    674.00     25.96
 73.67    616.86     24.84
 73.77    647.40     25.44
 73.87    562.00     23.71
 73.97    611.00     24.72
 74.07    593.00     24.35
 74.17    577.31     24.03
 74.27    583.00     24.15
 74.37    572.42     23.93
 74.47    542.68     23.30
 74.57    672.00     25.92
 74.67    612.72     24.75
 74.77    582.71     24.14
 74.87    613.16     24.76
 74.97    549.24     23.44
 75.07    597.00     24.43
 75.17    513.38     22.66
 75.27    589.96     24.29
 75.37    583.00     24.15
 75.47    595.00     24.39
 75.57    579.02     24.06
 75.67    573.00     23.94
 75.77    560.00     23.66
 75.87    563.84     23.75
 75.97    620.00     24.90
 76.07    645.00     25.40
 76.17    603.00     24.56
 76.27    682.81     26.13
 76.37    682.00     26.12
 76.47    702.00     26.50
 76.57    703.00     26.51
 76.67    681.79     26.11
 76.77    723.38     26.90
 76.87    659.02     25.67
 76.97    633.97     25.18
 77.07    698.00     26.42
 77.17    593.00     24.35
 77.27    601.00     24.52
 77.37    600.00     24.49
 77.47    516.00     22.72
 77.57    574.00     23.96
 77.67    545.95     23.37
 77.77    494.00     22.23
 77.87    489.27     22.12
 77.97    502.00     22.41
 78.07    478.00     21.86
 78.17    536.00     23.15
 78.27    497.00     22.29
 78.37    508.00     22.54
 78.47    478.20     21.87
 78.57    522.95     22.87
 78.67    531.77     23.06
 78.77    540.23     23.24
 78.87    481.42     21.94
 78.97    535.22     23.13
 79.07    489.57     22.13
 79.17    496.46     22.28
 79.27    579.00     24.06
 79.37    522.80     22.86
 79.47    485.67     22.04
 79.57    532.91     23.08
 79.67    506.00     22.49
 79.77    483.00     21.98
 79.87    541.00     23.26
 79.97    513.98     22.67
 80.07    513.85     22.67
 80.17    545.00     23.35
 80.27    600.65     24.51
 80.37    538.07     23.20
 80.47    540.00     23.24
 80.57    553.00     23.52
 80.67    654.47     25.58
 80.77    655.60     25.60
 80.87    661.00     25.71
 80.97    665.00     25.79
 81.07    676.00     26.00
 81.17    729.00     27.00
 81.27    663.00     25.75
 81.37    718.14     26.80
 81.47    746.00     27.31
 81.57    785.57     28.03
 81.67    789.00     28.09
 81.77    737.00     27.15
 81.87    766.56     27.69
 81.97    717.00     26.78
 82.07    707.00     26.59
 82.17    692.46     26.31
 82.27    624.00     24.98
 82.37    629.44     25.09
 82.47    562.00     23.71
 82.57    562.00     23.71
 82.67    546.64     23.38
 82.77    598.96     24.47
 82.87    566.00     23.79
 82.97    555.00     23.56
 83.07    516.00     22.72
 83.17    551.00     23.47
 83.27    515.00     22.69
 83.37    588.79     24.27
 83.47    529.00     23.00
 83.57    545.00     23.35
 83.67    568.00     23.83
 83.77    556.00     23.58
 83.87    553.00     23.52
 83.97    536.00     23.15
 84.07    550.94     23.47
 84.17    552.00     23.49
 84.27    528.00     22.98
 84.37    549.00     23.43
 84.47    511.00     22.61
 84.57    541.00     23.26
 84.67    542.00     23.28
 84.77    573.84     23.95
 84.87    488.81     22.11
 84.97    520.47     22.81
 85.07    492.90     22.20
 85.17    525.00     22.91
 85.27    496.91     22.29
 85.37    487.76     22.09
 85.47    542.00     23.28
 85.57    539.00     23.22
 85.67    499.00     22.34
 85.77    472.40     21.73
 85.87    534.00     23.11
 85.97    486.87     22.07
 86.07    515.00     22.69
 86.17    509.00     22.56
 86.27    566.00     23.79
 86.37    549.00     23.43
 86.47    516.00     22.72
 86.57    568.00     23.83
 86.67    596.00     24.41
 86.77    508.44     22.55
 86.87    596.00     24.41
 86.97    545.00     23.35
 87.07    538.09     23.20
 87.17    582.34     24.13
 87.27    633.41     25.17
 87.37    589.00     24.27
 87.47    642.22     25.34
 87.57    564.00     23.75
 87.67    653.00     25.55
 87.77    608.00     24.66
 87.87    638.00     25.26
 87.97    604.00     24.58
 88.07    606.10     24.62
 88.17    599.00     24.47
 88.27    583.00     24.15
 88.37    590.34     24.30
 88.47    555.00     23.56
 88.57    583.00     24.15
 88.67    533.06     23.09
 88.77    591.20     24.31
 88.87    582.00     24.12
 88.97    579.00     24.06
 89.07    593.00     24.35
 89.17    589.00     24.27
 89.27    603.00     24.56
 89.37    549.23     23.44
 89.47    610.11     24.70
 89.57    636.32     25.23
 89.67    583.00     24.15
 89.77    594.00     24.37
 89.87    599.38     24.48
 89.97    580.00     24.08
 90.07    515.28     22.70
 90.17    550.00     23.45
 90.27    553.00     23.52
 90.37    500.00     22.36
 90.47    503.00     22.43
 90.57    497.00     22.29
 90.67    564.15     23.75
 90.77    529.00     23.00
 90.87    516.00     22.72
 90.97    561.70     23.70
 91.07    536.00     23.15
 91.17    521.73     22.84
 91.27    516.00     22.72
 91.37    485.96     22.04
 91.47    505.00     22.47
 91.57    533.00     23.09
 91.67    519.39     22.79
 91.77    536.00     23.15
 91.87    556.07     23.58
 91.97    546.00     23.37
 92.07    569.00     23.85
 92.17    544.00     23.32
 92.27    583.00     24.15
 92.37    572.50     23.93
 92.47    611.00     24.72
 92.57    577.00     24.02
 92.67    678.00     26.04
 92.77    670.00     25.88
 92.87    697.18     26.40
 92.97    735.00     27.11
 93.07    734.01     27.09
 93.17    717.00     26.78
 93.27    752.00     27.42
 93.37    738.00     27.17
 93.47    756.70     27.51
 93.57    786.00     28.04
 93.67    764.00     27.64
 93.77    791.58     28.14
 93.87    821.00     28.65
 93.97    799.02     28.27
 94.07    810.14     28.46
 94.17    803.99     28.35
 94.27    781.21     27.95
 94.37    890.10     29.83
 94.47    804.84     28.37
 94.57    874.00     29.56
 94.67    806.57     28.40
 94.77    914.00     30.23
 94.87    980.00     31.30
 94.97    832.58     28.85
 95.07    877.00     29.61
 95.17    835.02     28.90
 95.27    839.00     28.97
 95.37    836.60     28.92
 95.47    794.00     28.18
 95.57    783.00     27.98
 95.67    689.00     26.25
 95.77    731.00     27.04
 95.87    669.00     25.87
 95.97    728.00     26.98
 96.07    710.00     26.65
 96.17    679.68     26.07
 96.27    733.66     27.09
 96.37    692.00     26.31
 96.47    783.74     28.00
 96.57    798.00     28.25
 96.67    903.02     30.05
 96.77    932.00     30.53
 96.87    963.43     31.04
 96.97   1087.00     32.97
 97.07   1172.07     34.24
 97.17   1212.00     34.81
 97.27   1313.00     36.24
 97.37   1331.00     36.48
 97.47   1444.65     38.01
 97.57   1356.44     36.83
 97.67   1509.68     38.85
 97.77   1465.00     38.28
 97.87   1335.00     36.54
 97.97   1394.90     37.35
 98.07   1288.00     35.89
 98.17   1297.00     36.01
 98.27   1234.89     35.14
 98.37   1121.00     33.48
 98.47   1093.07     33.06
 98.57   1005.00     31.70
 98.67    942.03     30.69
 98.77    909.00     30.15
 98.87    854.00     29.22
 98.97    809.00     28.44
 99.07    808.00     28.43
 99.17    888.00     29.80
 99.27    867.03     29.45
 99.37    952.00     30.85
 99.47   1000.00     31.62
 99.57   1059.78     32.55
 99.67   1125.01     33.54
 99.77   1230.00     35.07
 99.87   1263.00     35.54
 99.97   1422.00     37.71
100.07   1503.00     38.77
100.17   1546.23     39.32
100.27   1626.00     40.32
100.37   1775.90     42.14
100.47   1868.00     43.22
100.57   2023.44     44.98
100.67   2063.18     45.42
100.77   2030.00     45.06
100.87   2047.00     45.24
100.97   2063.81     45.43
101.07   1932.34     43.96
101.17   1897.00     43.55
101.27   1894.00     43.52
101.37   1820.79     42.67
101.47   1668.60     40.85
101.57   1591.00     39.89
101.67   1465.00     38.28
101.77   1427.00     37.78
101.87   1405.00     37.48
101.97   1383.00     37.19
102.07   1313.00     36.24
102.17   1214.26     34.85
102.27   1216.10     34.87
102.37   1161.00     34.07
102.47   1186.00     34.44
102.57   1065.00     32.63
102.67   1138.00     33.73
102.77   1078.00     32.83
102.87   1081.00     32.88
102.97   1045.75     32.34
103.07   1048.53     32.38
103.17    997.09     31.58
103.27    881.00     29.68
103.37    886.00     29.77
103.47    876.00     29.60
103.57    862.00     29.36
103.67    734.06     27.09
103.77    691.00     26.29
103.87    675.00     25.98
103.97    684.00     26.15
104.07    638.25     25.26
104.17    635.00     25.20
104.27    563.00     23.73
104.37    557.00     23.60
104.47    620.00     24.90
104.57    569.00     23.85
104.67    558.00     23.62
104.77    560.00     23.66
104.87    561.00     23.69
104.97    559.00     23.64
105.07    562.04     23.71
105.17    519.22     22.79
105.27    542.00     23.28
105.37    544.25     23.33
105.47    493.79     22.22
105.57    554.00     23.54
105.67    568.00     23.83
105.77    524.57     22.90
105.87    528.79     23.00
105.97    544.55     23.34
106.07    569.00     23.85
106.17    546.00     23.37
106.27    615.50     24.81
106.37    626.14     25.02
106.47    650.00     25.50
106.57    606.00     24.62
106.67    610.00     24.70
106.77    592.17     24.33
106.87    633.00     25.16
106.97    654.00     25.57
107.07    638.04     25.26
107.17    693.58     26.34
107.27    682.00     26.12
107.37    649.77     25.49
107.47    691.00     26.29
107.57    645.00     25.40
107.67    733.75     27.09
107.77    676.00     26.00
107.87    663.00     25.75
107.97    688.09     26.23
108.07    709.23     26.63
108.17    663.00     25.75
108.27    647.00     25.44
108.37    646.00     25.42
108.47    655.00     25.59
108.57    713.18     26.71
108.67    678.69     26.05
108.77    691.00     26.29
108.87    702.00     26.50
108.97    681.00     26.10
109.07    714.62     26.73
109.17    672.00     25.92
109.27    700.00     26.46
109.37    626.00     25.02
109.47    704.00     26.53
109.57    630.00     25.10
109.67    639.00     25.28
109.77    636.00     25.22
109.87    613.00     24.76
109.97    579.35     24.07
110.07    621.82     24.94
110.17    606.00     24.62
110.27    544.00     23.32
110.37    593.00     24.35
110.47    554.00     23.54
110.57    597.70     24.45
110.67    523.07     22.87
110.77    557.94     23.62
110.87    617.00     24.84
110.97    528.00     22.98
111.07    570.62     23.89
111.17    541.52     23.27
111.27    535.00     23.13
111.37    601.00     24.52
111.47    577.37     24.03
111.57    527.00     22.96
111.67    507.74     22.53
111.77    533.00     23.09
111.87    586.55     24.22
111.97    577.31     24.03
112.07    575.55     23.99
112.17    555.00     23.56
112.27    527.62     22.97
112.37    575.00     23.98
112.47    545.00     23.35
112.57    562.00     23.71
112.67    572.00     23.92
112.77    551.00     23.47
112.87    585.00     24.19
112.97    658.92     25.67
113.07    613.25     24.76
113.17    655.23     25.60
113.27    685.54     26.18
113.37    594.00     24.37
113.47    623.00     24.96
113.57    697.00     26.40
113.67    659.50     25.68
113.77    696.00     26.38
113.87    700.09     26.46
113.97    786.94     28.05
114.07    775.33     27.84
114.17    832.49     28.85
114.27    921.00     30.35
114.37   1001.00     31.64
114.47   1028.00     32.06
114.57   1161.78     34.08
114.67   1227.18     35.03
114.77   1451.00     38.09
114.87   1594.00     39.92
114.97   1801.00     42.44
115.07   2046.00     45.23
115.17   2096.94     45.79
115.27   2536.00     50.36
115.37   2734.95     52.30
115.47   3189.00     56.47
115.57   3308.00     57.52
115.67   3809.00     61.72
115.77   4163.00     64.52
115.87   4563.90     67.56
115.97   4759.00     68.99
116.07   5178.00     71.96
116.17   5639.93     75.10
116.27   5894.00     76.77
116.37   6129.00     78.29
116.47   6671.00     81.68
116.57   6770.00     82.28
116.67   6550.00     80.93
116.77   6994.00     83.63
116.87   6894.54     83.03
116.97   6767.87     82.27
117.07   6498.06     80.61
117.17   6363.00     79.77
117.27   6111.00     78.17
117.37   5691.00     75.44
117.47   5315.00     72.90
117.57   5022.00     70.87
117.67   4716.00     68.67
117.77   4466.00     66.83
117.87   4115.00     64.15
117.97   3675.27     60.62
118.07   3454.45     58.77
118.17   3039.00     55.13
118.27   2785.00     52.77
118.37   2430.00     49.30
118.47   2199.00     46.89
118.57   1921.00     43.83
118.67   1718.19     41.45
118.77   1548.00     39.34
118.87   1474.50     38.40
118.97   1293.89     35.97
119.07   1174.00     34.26
119.17   1073.02     32.76
119.27    959.98     30.98
119.37    918.85     30.31
119.47    786.68     28.05
119.57    791.27     28.13
119.67    744.00     27.28
119.77    731.08     27.04
119.87    692.00     26.31
119.97    703.35     26.52
120.07    610.80     24.71
120.17    584.00     24.17
120.27    574.00     23.96
120.37    612.44     24.75
120.47    600.00     24.49
120.57    570.00     23.87
120.67    593.00     24.35
120.77    630.00     25.10
120.87    571.00     23.90
120.97    505.00     22.47
121.07    620.04     24.90
121.17    561.00     23.69
121.27    604.97     24.60
121.37    594.00     24.37
121.47    554.00     23.54
121.57    577.00     24.02
121.67    577.00     24.02
121.77    601.47     24.52
121.87    572.14     23.92
121.97    584.00     24.17
122.07    565.00     23.77
122.17    617.00     24.84
122.27    608.05     24.66
122.37    606.70     24.63
122.47    615.00     24.80
122.57    604.00     24.58
122.67    605.00     24.60
122.77    623.00     24.96
122.87    659.57     25.68
122.97    603.00     24.56
123.07    597.50     24.44
123.17    647.00     25.44
123.27    665.00     25.79
123.37    649.00     25.48
123.47    599.30     24.48
123.57    629.00     25.08
123.67    646.70     25.43
123.77    597.00     24.43
123.87    620.00     24.90
123.97    626.00     25.02
124.07    637.72     25.25
124.17    563.71     23.74
124.27    574.00     23.96
124.37    641.98     25.34
124.47    611.00     24.72
124.57    545.17     23.35
124.67    566.45     23.80
124.77    585.87     24.20
124.87    559.34     23.65
124.97    614.00     24.78
