XYDATA



INTER 1.0 1.0 0 0
TEMP 803.908
  9.97    592.00     24.33
 10.07    646.00     25.42
 10.17    559.18     23.65
 10.27    627.00     25.04
 10.37    547.57     23.40
 10.47    625.00     25.00
 10.57    665.00     25.79
 10.67    621.00     24.92
 10.77    633.00     25.16
 10.87    580.39     24.09
 10.97    568.11     23.84
 11.07    550.00     23.45
 11.17    608.12     24.66
 11.27    553.32     23.52
 11.37    606.62     24.63
 11.47    623.00     24.96
 11.57    668.00     25.85
 11.67    632.00     25.14
 11.77    683.00     26.13
 11.87    698.00     26.42
 11.97    671.00     25.90
 12.07    685.72     26.19
 12.17    694.00     26.34
 12.27    740.00     27.20
 12.37    693.00     26.32
 12.47    703.89     26.53
 12.57    685.13     26.17
 12.67    618.00     24.86
 12.77    632.52     25.15
 12.87    622.00     24.94
 12.97    601.00     24.52
 13.07    576.00     24.00
 13.17    632.29     25.15
 13.27    599.00     24.47
 13.37    623.82     24.98
 13.47    556.82     23.60
 13.57    549.00     23.43
 13.67    556.00     23.58
 13.77    625.00     25.00
 13.87    586.00     24.21
 13.97    606.00     24.62
 14.07    594.00     24.37
 14.17    593.00     24.35
 14.27    611.00     24.72
 14.37    551.00     23.47
 14.47    574.00     23.96
 14.57    557.00     23.60
 14.67    577.00     24.02
 14.77    579.00     24.06
 14.87    585.00     24.19
 14.97    637.00     25.24
 15.07    549.87     23.45
 15.17    594.90     24.39
 15.27    560.00     23.66
 15.37    585.00     24.19
 15.47    559.00     23.64
 15.57    588.17     24.25
 15.67    566.00     23.79
 15.77    588.00     24.25
 15.87    614.00     24.78
 15.97    567.00     23.81
 16.07    564.00     23.75
 16.17    589.00     24.27
 16.27    558.94     23.64
 16.37    563.00     23.73
 16.47    607.00     24.64
 16.57    629.29     25.09
 16.67    569.80     23.87
 16.77    574.00     23.96
 16.87    592.00     24.33
 16.97    557.00     23.60
 17.07    609.00     24.68
 17.17    584.00     24.17
 17.27    573.00     23.94
 17.37    615.42     24.81
 17.47    562.00     23.71
 17.57    581.00     24.10
 17.67    560.00     23.66
 17.77    585.00     24.19
 17.87    574.00     23.96
 17.97    556.00     23.58
 18.07    588.00     24.25
 18.17    551.41     23.48
 18.27    625.79     25.02
 18.37    630.44     25.11
 18.47    644.68     25.39
 18.57    585.00     24.19
 18.67    626.44     25.03
 18.77    590.08     24.29
 18.87    545.84     23.36
 18.97    636.75     25.23
 19.07    589.00     24.27
 19.17    547.00     23.39
 19.27    584.68     24.18
 19.37    600.00     24.49
 19.47    579.00     24.06
 19.57    588.00     24.25
 19.67    531.00     23.04
 19.77    585.31     24.19
 19.87    554.00     23.54
 19.97    543.44     23.31
 20.07    626.54     25.03
 20.17    597.83     24.45
 20.27    570.00     23.87
 20.37    545.38     23.35
 20.47    570.00     23.87
 20.57    585.00     24.19
 20.67    550.00     23.45
 20.77    626.01     25.02
 20.87    568.00     23.83
 20.97    576.00     24.00
 21.07    564.00     23.75
 21.17    634.71     25.19
 21.27    514.00     22.67
 21.37    580.00     24.08
 21.47    608.00     24.66
 21.57    598.00     24.45
 21.67    573.00     23.94
 21.77    523.00     22.87
 21.87    604.79     24.59
 21.97    593.00     24.35
 22.07    613.00     24.76
 22.17    586.00     24.21
 22.27    550.95     23.47
 22.37    589.00     24.27
 22.47    547.00     23.39
 22.57    594.00     24.37
 22.67    542.75     23.30
 22.77    607.00     24.64
 22.87    550.92     23.47
 22.97    590.24     24.29
 23.07    632.55     25.15
 23.17    554.00     23.54
 23.27    563.38     23.74
 23.37    560.57     23.68
 23.47    531.15     23.05
 23.57    543.00     23.30
 23.67    585.00     24.19
 23.77    547.00     23.39
 23.87    586.60     24.22
 23.97    615.00     24.80
 24.07    558.00     23.62
 24.17    617.00     24.84
 24.27    639.00     25.28
 24.37    603.13     24.56
 24.47    601.87     24.53
 24.57    625.00     25.00
 24.67    663.00     25.75
 24.77    647.00     25.44
 24.87    669.00     25.87
 24.97    612.52     24.75
 25.07    713.00     26.70
 25.17    668.44     25.85
 25.27    609.00     24.68
 25.37    590.00     24.29
 25.47    553.00     23.52
 25.57    614.00     24.78
 25.67    553.78     23.53
 25.77    607.00     24.64
 25.87    585.00     24.19
 25.97    550.60     23.46
 26.07    533.07     23.09
 26.17    521.08     22.83
 26.27    524.70     22.91
 26.37    651.00     25.51
 26.47    529.53     23.01
 26.57    675.00     25.98
 26.67    614.00     24.78
 26.77    621.00     24.92
 26.87    609.00     24.68
 26.97    592.40     24.34
 27.07    596.11     24.42
 27.17    630.91     25.12
 27.27    622.00     24.94
 27.37    611.31     24.72
 27.47    633.00     25.16
 27.57    722.00     26.87
 27.67    653.00     25.55
 27.77    662.00     25.73
 27.87    626.00     25.02
 27.97    652.53     25.54
 28.07    687.45     26.22
 28.17    828.82     28.79
 28.27    881.59     29.69
 28.37    979.00     31.29
 28.47    957.00     30.94
 28.57    853.00     29.21
 28.67    788.00     28.07
 28.77    748.34     27.36
 28.87    825.89     28.74
 28.97    841.00     29.00
 29.07    910.00     30.17
 29.17    776.30     27.86
 29.27    783.59     27.99
 29.37    742.58     27.25
 29.47    711.00     26.66
 29.57    634.00     25.18
 29.67    626.00     25.02
 29.77    662.00     25.73
 29.87    621.99     24.94
 29.97    643.00     25.36
 30.07    614.29     24.78
 30.17    619.00     24.88
 30.27    615.00     24.80
 30.37    605.60     24.61
 30.47    616.00     24.82
 30.57    609.00     24.68
 30.67    641.00     25.32
 30.77    625.00     25.00
 30.87    616.00     24.82
 30.97    694.00     26.34
 31.07    650.00     25.50
 31.17    680.00     26.08
 31.27    624.00     24.98
 31.37    574.56     23.97
 31.47    531.47     23.05
 31.57    613.00     24.76
 31.67    616.00     24.82
 31.77    591.00     24.31
 31.87    610.18     24.70
 31.97    544.16     23.33
 32.07    576.00     24.00
 32.17    558.00     23.62
 32.27    577.00     24.02
 32.37    555.00     23.56
 32.47    571.00     23.90
 32.57    590.00     24.29
 32.67    545.00     23.35
 32.77    606.61     24.63
 32.87    547.00     23.39
 32.97    576.00     24.00
 33.07    548.00     23.41
 33.17    575.00     23.98
 33.27    539.00     23.22
 33.37    592.00     24.33
 33.47    564.00     23.75
 33.57    640.46     25.31
 33.67    628.19     25.06
 33.77    670.00     25.88
 33.87    714.00     26.72
 33.97    916.00     30.27
 34.07    946.00     30.76
 34.17   1068.00     32.68
 34.27   1017.99     31.91
 34.37    946.00     30.76
 34.47    823.00     28.69
 34.57    708.37     26.62
 34.67    667.00     25.83
 34.77    633.49     25.17
 34.87    567.00     23.81
 34.97    588.00     24.25
 35.07    578.00     24.04
 35.17    556.64     23.59
 35.27    552.00     23.49
 35.37    565.52     23.78
 35.47    539.33     23.22
 35.57    575.00     23.98
 35.67    518.00     22.76
 35.77    530.00     23.02
 35.87    507.32     22.52
 35.97    524.53     22.90
 36.07    492.62     22.19
 36.17    509.57     22.57
 36.27    524.00     22.89
 36.37    520.00     22.80
 36.47    560.20     23.67
 36.57    498.00     22.32
 36.67    501.82     22.40
 36.77    489.00     22.11
 36.87    498.08     22.32
 36.97    518.00     22.76
 37.07    499.00     22.34
 37.17    548.00     23.41
 37.27    530.86     23.04
 37.37    504.00     22.45
 37.47    536.00     23.15
 37.57    575.00     23.98
 37.67    526.00     22.93
 37.77    540.00     23.24
 37.87    543.00     23.30
 37.97    509.00     22.56
 38.07    545.25     23.35
 38.17    518.00     22.76
 38.27    579.56     24.07
 38.37    580.24     24.09
 38.47    563.70     23.74
 38.57    490.00     22.14
 38.67    488.00     22.09
 38.77    484.00     22.00
 38.87    567.75     23.83
 38.97    500.00     22.36
 39.07    513.00     22.65
 39.17    471.00     21.70
 39.27    540.00     23.24
 39.37    476.45     21.83
 39.47    499.00     22.34
 39.57    517.79     22.76
 39.67    481.00     21.93
 39.77    539.00     23.22
 39.87    500.00     22.36
 39.97    513.00     22.65
 40.07    532.87     23.08
 40.17    493.00     22.20
 40.27    500.00     22.36
 40.37    456.00     21.35
 40.47    559.69     23.66
 40.57    539.00     23.22
 40.67    496.00     22.27
 40.77    558.86     23.64
 40.87    543.48     23.31
 40.97    520.12     22.81
 41.07    543.05     23.30
 41.17    476.00     21.82
 41.27    548.00     23.41
 41.37    533.00     23.09
 41.47    533.00     23.09
 41.57    494.00     22.23
 41.67    533.00     23.09
 41.77    472.02     21.73
 41.87    542.00     23.28
 41.97    479.77     21.90
 42.07    492.00     22.18
 42.17    547.00     23.39
 42.27    514.00     22.67
 42.37    553.00     23.52
 42.47    543.00     23.30
 42.57    545.00     23.35
 42.67    558.00     23.62
 42.77    683.22     26.14
 42.87    602.92     24.55
 42.97    561.00     23.69
 43.07    610.33     24.70
 43.17    594.00     24.37
 43.27    527.07     22.96
 43.37    513.23     22.65
 43.47    535.00     23.13
 43.57    492.00     22.18
 43.67    515.00     22.69
 43.77    540.00     23.24
 43.87    564.47     23.76
 43.97    508.84     22.56
 44.07    499.10     22.34
 44.17    528.82     23.00
 44.27    526.00     22.93
 44.37    511.00     22.61
 44.47    506.00     22.49
 44.57    524.00     22.89
 44.67    560.87     23.68
 44.77    534.00     23.11
 44.87    506.00     22.49
 44.97    535.56     23.14
 45.07    574.00     23.96
 45.17    556.98     23.60
 45.27    469.98     21.68
 45.37    501.00     22.38
 45.47    490.00     22.14
 45.57    501.00     22.38
 45.67    518.70     22.78
 45.77    497.11     22.30
 45.87    520.76     22.82
 45.97    557.85     23.62
 46.07    495.00     22.25
 46.17    476.00     21.82
 46.27    494.89     22.25
 46.37    558.00     23.62
 46.47    528.00     22.98
 46.57    521.00     22.83
 46.67    483.08     21.98
 46.77    481.34     21.94
 46.87    521.00     22.83
 46.97    500.00     22.36
 47.07    469.67     21.67
 47.17    555.20     23.56
 47.27    546.80     23.38
 47.37    523.75     22.89
 47.47    551.00     23.47
 47.57    540.00     23.24
 47.67    557.00     23.60
 47.77    615.94     24.82
 47.87    550.92     23.47
 47.97    584.00     24.17
 48.07    636.37     25.23
 48.17    605.00     24.60
 48.27    559.80     23.66
 48.37    538.23     23.20
 48.47    549.00     23.43
 48.57    567.00     23.81
 48.67    515.00     22.69
 48.77    586.24     24.21
 48.87    580.01     24.08
 48.97    534.00     23.11
 49.07    550.00     23.45
 49.17    597.35     24.44
 49.27    548.25     23.41
 49.37    563.00     23.73
 49.47    575.00     23.98
 49.57    628.00     25.06
 49.67    706.00     26.57
 49.77    830.00     28.81
 49.87   1021.75     31.96
 49.97   1296.00     36.00
 50.07   1558.85     39.48
 50.17   1963.67     44.31
 50.27   2192.49     46.82
 50.37   2396.17     48.95
 50.47   2356.00     48.54
 50.57   2119.30     46.04
 50.67   1644.00     40.55
 50.77   1265.00     35.57
 50.87    984.00     31.37
 50.97    912.45     30.21
 51.07    730.00     27.02
 51.17    762.85     27.62
 51.27    708.73     26.62
 51.37    655.00     25.59
 51.47    680.43     26.09
 51.57    569.68     23.87
 51.67    615.00     24.80
 51.77    568.00     23.83
 51.87    619.42     24.89
 51.97    593.37     24.36
 52.07    588.00     24.25
 52.17    578.00     24.04
 52.27    540.10     23.24
 52.37    593.00     24.35
 52.47    547.08     23.39
 52.57    580.00     24.08
 52.67    532.99     23.09
 52.77    590.00     24.29
 52.87    586.00     24.21
 52.97    624.00     24.98
 53.07    648.00     25.46
 53.17    770.00     27.75
 53.27    814.54     28.54
 53.37    917.00     30.28
 53.47   1016.42     31.88
 53.57   1110.61     33.33
 53.67   1202.73     34.68
 53.77   1211.00     34.80
 53.87   1195.00     34.57
 53.97    986.00     31.40
 54.07   1017.85     31.90
 54.17    856.00     29.26
 54.27    784.84     28.01
 54.37    662.00     25.73
 54.47    640.00     25.30
 54.57    666.48     25.82
 54.67    618.58     24.87
 54.77    563.74     23.74
 54.87    583.43     24.15
 54.97    572.00     23.92
 55.07    596.00     24.41
 55.17    552.92     23.51
 55.27    537.83     23.19
 55.37    554.00     23.54
 55.47    529.40     23.01
 55.57    603.66     24.57
 55.67    617.00     24.84
 55.77    572.56     23.93
 55.87    654.97     25.59
 55.97    655.00     25.59
 56.07    646.00     25.42
 56.17    681.19     26.10
 56.27    834.20     28.88
 56.37    873.03     29.55
 56.47    952.00     30.85
 56.57   1261.50     35.52
 56.67   1645.35     40.56
 56.77   1844.00     42.94
 56.87   2247.89     47.41
 56.97   2411.00     49.10
 57.07   2467.59     49.67
 57.17   2571.10     50.71
 57.27   2256.00     47.50
 57.37   2075.79     45.56
 57.47   1684.44     41.04
 57.57   1348.40     36.72
 57.67   1162.00     34.09
 57.77    940.25     30.66
 57.87    911.67     30.19
 57.97    801.00     28.30
 58.07    698.83     26.44
 58.17    653.36     25.56
 58.27    696.92     26.40
 58.37    720.00     26.83
 58.47    729.29     27.01
 58.57    851.24     29.18
 58.67    811.25     28.48
 58.77    952.00     30.85
 58.87   1004.63     31.70
 58.97   1149.03     33.90
 59.07   1133.00     33.66
 59.17   1326.00     36.41
 59.27   1257.00     35.45
 59.37   1272.00     35.67
 59.47   1163.51     34.11
 59.57   1234.00     35.13
 59.67   1194.00     34.55
 59.77   1246.00     35.30
 59.87   1193.00     34.54
 59.97   1199.00     34.63
 60.07   1283.00     35.82
 60.17   1315.92     36.28
 60.27   1383.62     37.20
 60.37   1590.00     39.87
 60.47   1574.00     39.67
 60.57   1565.00     39.56
 60.67   1455.00     38.14
 60.77   1339.00     36.59
 60.87   1044.71     32.32
 60.97   1040.00     32.25
 61.07    833.00     28.86
 61.17    772.00     27.78
 61.27    776.47     27.87
 61.37    716.00     26.76
 61.47    754.87     27.47
 61.57    763.00     27.62
 61.67    747.41     27.34
 61.77    801.00     28.30
 61.87    885.00     29.75
 61.97    988.00     31.43
 62.07   1175.97     34.29
 62.17   1227.96     35.04
 62.27   1261.00     35.51
 62.37   1326.75     36.42
 62.47   1341.00     36.62
 62.57   1307.57     36.16
 62.67   1198.07     34.61
 62.77   1025.00     32.02
 62.87    874.00     29.56
 62.97    834.27     28.88
 63.07    743.00     27.26
 63.17    667.00     25.83
 63.27    636.00     25.22
 63.37    636.00     25.22
 63.47    625.00     25.00
 63.57    628.54     25.07
 63.67    617.29     24.85
 63.77    644.00     25.38
 63.87    618.00     24.86
 63.97    672.20     25.93
 64.07    690.69     26.28
 64.17    683.00     26.13
 64.27    684.00     26.15
 64.37    808.00     28.43
 64.47    880.00     29.66
 64.57    859.00     29.31
 64.67    905.48     30.09
 64.77   1021.00     31.95
 64.87   1040.00     32.25
 64.97   1046.00     32.34
 65.07   1015.00     31.86
 65.17    930.90     30.51
 65.27    911.00     30.18
 65.37    785.00     28.02
 65.47    770.00     27.75
 65.57    776.75     27.87
 65.67    675.00     25.98
 65.77    664.00     25.77
 65.87    608.00     24.66
 65.97    669.36     25.87
 66.07    620.00     24.90
 66.17    568.79     23.85
 66.27    608.00     24.66
 66.37    576.00     24.00
 66.47    587.00     24.23
 66.57    582.25     24.13
 66.67    562.00     23.71
 66.77    629.00     25.08
 66.87    601.00     24.52
 66.97    573.00     23.94
 67.07    685.38     26.18
 67.17    606.24     24.62
 67.27    679.91     26.08
 67.37    715.98     26.76
 67.47    790.00     28.11
 67.57   1028.00     32.06
 67.67   1038.00     32.22
 67.77   1346.55     36.70
 67.87   1373.00     37.05
 67.97   1792.41     42.34
 68.07   1959.00     44.26
 68.17   2191.00     46.81
 68.27   2245.00     47.38
 68.37   2352.00     48.50
 68.47   2411.19     49.10
 68.57   2254.66     47.48
 68.67   2015.00     44.89
 68.77   1781.97     42.21
 68.87   1432.00     37.84
 68.97   1240.00     35.21
 69.07   1143.73     33.82
 69.17    976.00     31.24
 69.27    790.59     28.12
 69.37    699.00     26.44
 69.47    742.00     27.24
 69.57    714.00     26.72
 69.67    633.00     25.16
 69.77    654.00     25.57
 69.87    585.00     24.19
 69.97    608.00     24.66
 70.07    563.48     23.74
 70.17    565.05     23.77
 70.27    602.00     24.54
 70.37    582.00     24.12
 70.47    600.00     24.49
 70.57    569.00     23.85
 70.67    582.00     24.12
 70.77    628.10     25.06
 70.87    608.00     24.66
 70.97    672.00     25.92
 71.07    573.00     23.94
 71.17    681.00     26.10
 71.27    681.35     26.10
 71.37    726.00     26.94
 71.47    832.00     28.84
 71.57    859.00     29.31
 71.67    998.00     31.59
 71.77   1206.00     34.73
 71.87   1360.00     36.88
 71.97   1483.16     38.51
 72.07   1648.00     40.60
 72.17   1709.00     41.34
 72.27   1847.00     42.98
 72.37   1865.00     43.19
 72.47   1820.00     42.66
 72.57   1769.00     42.06
 72.67   1510.00     38.86
 72.77   1256.54     35.45
 72.87   1253.19     35.40
 72.97   1021.41     31.96
 73.07    930.22     30.50
 73.17    816.00     28.57
 73.27    855.00     29.24
 73.37    663.14     25.75
 73.47    699.00     26.44
 73.57    678.00     26.04
 73.67    624.80     25.00
 73.77    653.00     25.55
 73.87    649.00     25.48
 73.97    532.27     23.07
 74.07    646.00     25.42
 74.17    609.67     24.69
 74.27    515.24     22.70
 74.37    557.91     23.62
 74.47    651.00     25.51
 74.57    544.39     23.33
 74.67    602.00     24.54
 74.77    573.16     23.94
 74.87    656.00     25.61
 74.97    601.00     24.52
 75.07    575.19     23.98
 75.17    650.00     25.50
 75.27    615.00     24.80
 75.37    631.00     25.12
 75.47    581.00     24.10
 75.57    585.00     24.19
 75.67    525.49     22.92
 75.77    536.00     23.15
 75.87    561.00     23.69
 75.97    579.56     24.07
 76.07    582.00     24.12
 76.17    562.38     23.71
 76.27    603.00     24.56
 76.37    645.00     25.40
 76.47    671.86     25.92
 76.57    656.00     25.61
 76.67    707.00     26.59
 76.77    701.00     26.48
 76.87    709.00     26.63
 76.97    676.00     26.00
 77.07    640.30     25.30
 77.17    660.95     25.71
 77.27    644.00     25.38
 77.37    639.00     25.28
 77.47    609.00     24.68
 77.57    562.59     23.72
 77.67    580.13     24.09
 77.77    561.00     23.69
 77.87    500.00     22.36
 77.97    515.25     22.70
 78.07    515.00     22.69
 78.17    550.04     23.45
 78.27    530.00     23.02
 78.37    524.00     22.89
 78.47    500.00     22.36
 78.57    484.22     22.01
 78.67    568.45     23.84
 78.77    555.00     23.56
 78.87    526.00     22.93
 78.97    528.67     22.99
 79.07    481.00     21.93
 79.17    460.00     21.45
 79.27    496.92     22.29
 79.37    507.42     22.53
 79.47    516.00     22.72
 79.57    533.00     23.09
 79.67    472.48     21.74
 79.77    512.98     22.65
 79.87    550.00     23.45
 79.97    528.00     22.98
 80.07    522.00     22.85
 80.17    567.00     23.81
 80.27    548.00     23.41
 80.37    571.02     23.90
 80.47    637.00     25.24
 80.57    592.00     24.33
 80.67    629.00     25.08
 80.77    614.00     24.78
 80.87    604.00     24.58
 80.97    605.00     24.60
 81.07    616.72     24.83
 81.17    658.16     25.65
 81.27    680.00     26.08
 81.37    745.00     27.29
 81.47    691.00     26.29
 81.57    706.00     26.57
 81.67    711.42     26.67
 81.77    734.00     27.09
 81.87    737.00     27.15
 81.97    676.00     26.00
 82.07    751.00     27.40
 82.17    712.00     26.68
 82.27    653.00     25.55
 82.37    642.99     25.36
 82.47    714.49     26.73
 82.57    687.32     26.22
 82.67    686.61     26.20
 82.77    616.00     24.82
 82.87    629.45     25.09
 82.97    529.00     23.00
 83.07    541.00     23.26
 83.17    598.39     24.46
 83.27    523.00     22.87
 83.37    605.47     24.61
 83.47    506.77     22.51
 83.57    548.00     23.41
 83.67    556.00     23.58
 83.77    527.23     22.96
 83.87    564.00     23.75
 83.97    574.00     23.96
 84.07    585.30     24.19
 84.17    529.21     23.00
 84.27    556.79     23.60
 84.37    519.00     22.78
 84.47    582.00     24.12
 84.57    621.07     24.92
 84.67    530.75     23.04
 84.77    551.00     23.47
 84.87    552.75     23.51
 84.97    563.81     23.74
 85.07    524.00     22.89
 85.17    496.77     22.29
 85.27    501.00     22.38
 85.37    559.00     23.64
 85.47    470.00     21.68
 85.57    505.00     22.47
 85.67    491.68     22.17
 85.77    505.00     22.47
 85.87    525.00     22.91
 85.97    527.00     22.96
 86.07    533.47     23.10
 86.17    521.00     22.83
 86.27    492.00     22.18
 86.37    518.49     22.77
 86.47    561.00     23.69
 86.57    546.00     23.37
 86.67    570.16     23.88
 86.77    504.58     22.46
 86.87    547.00     23.39
 86.97    563.17     23.73
 87.07    557.00     23.60
 87.17    602.00     24.54
 87.27    599.00     24.47
 87.37    561.00     23.69
 87.47    636.00     25.22
 87.57    589.00     24.27
 87.67    638.00     25.26
 87.77    633.00     25.16
 87.87    607.11     24.64
 87.97    609.51     24.69
 88.07    653.00     25.55
 88.17    569.97     23.87
 88.27    600.00     24.49
 88.37    590.00     24.29
 88.47    557.12     23.60
 88.57    560.00     23.66
 88.67    558.00     23.62
 88.77    570.00     23.87
 88.87    549.00     23.43
 88.97    538.12     23.20
 89.07    565.87     23.79
 89.17    579.00     24.06
 89.27    569.00     23.85
 89.37    591.00     24.31
 89.47    556.00     23.58
 89.57    618.00     24.86
 89.67    603.00     24.56
 89.77    563.00     23.73
 89.87    647.09     25.44
 89.97    621.00     24.92
 90.07    637.53     25.25
 90.17    543.00     23.30
 90.27    571.00     23.90
 90.37    596.20     24.42
 90.47    547.14     23.39
 90.57    562.89     23.73
 90.67    531.00     23.04
 90.77    514.00     22.67
 90.87    548.67     23.42
 90.97    496.08     22.27
 91.07    490.00     22.14
 91.17    574.29     23.96
 91.27    520.00     22.80
 91.37    522.00     22.85
 91.47    490.00     22.14
 91.57    520.00     22.80
 91.67    502.00     22.41
 91.77    490.00     22.14
 91.87    492.19     22.19
 91.97    558.34     23.63
 92.07    485.00     22.02
 92.17    570.42     23.88
 92.27    546.00     23.37
 92.37    555.00     23.56
 92.47    623.00     24.96
 92.57    603.20     24.56
 92.67    553.00     23.52
 92.77    604.00     24.58
 92.87    615.00     24.80
 92.97    679.73     26.07
 93.07    651.00     25.51
 93.17    649.55     25.49
 93.27    679.00     26.06
 93.37    700.95     26.48
 93.47    694.41     26.35
 93.57    740.00     27.20
 93.67    768.00     27.71
 93.77    707.00     26.59
 93.87    775.05     27.84
 93.97    799.00     28.27
 94.07    807.86     28.42
 94.17    827.00     28.76
 94.27    784.38     28.01
 94.37    816.00     28.57
 94.47    868.00     29.46
 94.57    820.00     28.64
 94.67    890.00     29.83
 94.77    872.48     29.54
 94.87    852.18     29.19
 94.97    865.00     29.41
 95.07    872.57     29.54
 95.17    933.00     30.55
 95.27    821.30     28.66
 95.37    888.00     29.80
 95.47    892.00     29.87
 95.57    825.00     28.72
 95.67    789.34     28.10
 95.77    847.00     29.10
 95.87    771.00     27.77
 95.97    726.00     26.94
 96.07    739.00     27.18
 96.17    707.35     26.60
 96.27    666.31     25.81
 96.37    687.00     26.21
 96.47    740.57     27.21
 96.57    720.00     26.83
 96.67    775.00     27.84
 96.77    809.00     28.44
 96.87    798.00     28.25
 96.97    898.00     29.97
 97.07    924.00     30.40
 97.17    966.65     31.09
 97.27   1079.00     32.85
 97.37   1210.00     34.79
 97.47   1235.00     35.14
 97.57   1319.29     36.32
 97.67   1408.44     37.53
 97.77   1403.00     37.46
 97.87   1364.08     36.93
 97.97   1406.00     37.50
 98.07   1429.00     37.80
 98.17   1459.00     38.20
 98.27   1345.00     36.67
 98.37   1329.00     36.46
 98.47   1274.00     35.69
 98.57   1193.00     34.54
 98.67   1204.63     34.71
 98.77   1092.00     33.05
 98.87   1013.34     31.83
 98.97   1012.28     31.82
 99.07    929.00     30.48
 99.17    958.85     30.97
 99.27    927.37     30.45
 99.37    888.00     29.80
 99.47    935.16     30.58
 99.57    913.00     30.22
 99.67    904.00     30.07
 99.77   1036.00     32.19
 99.87   1016.00     31.87
 99.97   1064.57     32.63
100.07   1191.00     34.51
100.17   1246.24     35.30
100.27   1379.00     37.13
100.37   1488.00     38.57
100.47   1544.12     39.30
100.57   1653.00     40.66
100.67   1812.00     42.57
100.77   1842.00     42.92
100.87   1828.00     42.76
100.97   1883.00     43.39
101.07   1943.00     44.08
101.17   1880.00     43.36
101.27   1993.00     44.64
101.37   1840.17     42.90
101.47   1932.00     43.95
101.57   1886.00     43.43
101.67   1815.00     42.60
101.77   1710.93     41.36
101.87   1624.97     40.31
101.97   1654.00     40.67
102.07   1515.00     38.92
102.17   1463.00     38.25
102.27   1380.44     37.15
102.37   1318.00     36.30
102.47   1287.00     35.87
102.57   1182.99     34.39
102.67   1270.54     35.64
102.77   1174.00     34.26
102.87   1191.00     34.51
102.97   1147.00     33.87
103.07   1072.00     32.74
103.17   1135.22     33.69
103.27   1090.00     33.02
103.37   1056.89     32.51
103.47    976.00     31.24
103.57    983.00     31.35
103.67    901.00     30.02
103.77    872.16     29.53
103.87    856.59     29.27
103.97    836.00     28.91
104.07    780.00     27.93
104.17    788.00     28.07
104.27    743.00     27.26
104.37    656.37     25.62
104.47    660.00     25.69
104.57    660.54     25.70
104.67    591.00     24.31
104.77    578.00     24.04
104.87    596.00     24.41
104.97    572.00     23.92
105.07    594.00     24.37
105.17    534.00     23.11
105.27    581.00     24.10
105.37    554.00     23.54
105.47    519.00     22.78
105.57    550.00     23.45
105.67    590.00     24.29
105.77    555.00     23.56
105.87    598.00     24.45
105.97    534.00     23.11
106.07    568.22     23.84
106.17    575.00     23.98
106.27    561.00     23.69
106.37    576.00     24.00
106.47    528.00     22.98
106.57    600.70     24.51
106.67    544.81     23.34
106.77    624.00     24.98
106.87    575.50     23.99
106.97    623.00     24.96
107.07    615.00     24.80
107.17    648.00     25.46
107.27    668.00     25.85
107.37    685.00     26.17
107.47    643.00     25.36
107.57    686.00     26.19
107.67    741.00     27.22
107.77    655.00     25.59
107.87    724.89     26.92
107.97    676.00     26.00
108.07    697.00     26.40
108.17    677.00     26.02
108.27    719.21     26.82
108.37    672.00     25.92
108.47    712.00     26.68
108.57    698.25     26.42
108.67    698.00     26.42
108.77    684.84     26.17
108.87    718.00     26.80
108.97    650.00     25.50
109.07    650.00     25.50
109.17    752.50     27.43
109.27    734.00     27.09
109.37    706.00     26.57
109.47    693.00     26.32
109.57    678.00     26.04
109.67    686.81     26.21
109.77    716.00     26.76
109.87    715.00     26.74
109.97    656.07     25.61
110.07    650.00     25.50
110.17    652.04     25.54
110.27    642.00     25.34
110.37    653.55     25.56
110.47    595.75     24.41
110.57    624.00     24.98
110.67    619.00     24.88
110.77    639.00     25.28
110.87    612.00     24.74
110.97    536.00     23.15
111.07    589.00     24.27
111.17    515.08     22.70
111.27    558.38     23.63
111.37    503.79     22.45
111.47    541.00     23.26
111.57    574.00     23.96
111.67    554.77     23.55
111.77    556.00     23.58
111.87    566.00     23.79
111.97    597.00     24.43
112.07    514.00     22.67
112.17    531.00     23.04
112.27    566.00     23.79
112.37    537.00     23.17
112.47    557.49     23.61
112.57    570.00     23.87
112.67    526.95     22.96
112.77    603.40     24.56
112.87    597.90     24.45
112.97    536.06     23.15
113.07    573.00     23.94
113.17    566.94     23.81
113.27    612.00     24.74
113.37    582.00     24.12
113.47    545.85     23.36
113.57    594.18     24.38
113.67    639.00     25.28
113.77    617.00     24.84
113.87    664.00     25.77
113.97    651.00     25.51
114.07    736.00     27.13
114.17    696.00     26.38
114.27    769.73     27.74
114.37    785.00     28.02
114.47    783.00     27.98
114.57    862.32     29.37
114.67    911.00     30.18
114.77   1063.00     32.60
114.87   1018.77     31.92
114.97   1199.00     34.63
115.07   1352.40     36.77
115.17   1495.00     38.67
115.27   1687.00     41.07
115.37   1719.82     41.47
115.47   2169.00     46.57
115.57   2401.00     49.00
115.67   2591.07     50.90
115.77   2798.21     52.90
115.87   3241.00     56.93
115.97   3545.00     59.54
116.07   3703.49     60.86
116.17   4266.87     65.32
116.27   4651.00     68.20
116.37   4996.00     70.68
116.47   5312.00     72.88
116.57   5528.18     74.35
116.67   6077.00     77.96
116.77   6297.00     79.35
116.87   6427.00     80.17
116.97   6851.00     82.77
117.07   6763.52     82.24
117.17   6949.81     83.37
117.27   7081.31     84.15
117.37   6969.00     83.48
117.47   6736.84     82.08
117.57   6459.75     80.37
117.67   6397.66     79.99
117.77   5911.00     76.88
117.87   5759.13     75.89
117.97   5324.11     72.97
118.07   4955.00     70.39
118.17   4744.20     68.88
118.27   4230.00     65.04
118.37   3939.00     62.76
118.47   3697.00     60.80
118.57   3279.00     57.26
118.67   2881.00     53.67
118.77   2663.00     51.60
118.87   2444.83     49.45
118.97   2184.18     46.74
119.07   1904.00     43.63
119.17   1723.00     41.51
119.27   1563.97     39.55
119.37   1432.00     37.84
119.47   1252.03     35.38
119.57   1269.11     35.62
119.67   1151.00     33.93
119.77   1070.00     32.71
119.87    994.02     31.53
119.97    939.00     30.64
120.07    872.14     29.53
120.17    774.77     27.83
120.27    800.00     28.28
120.37    704.00     26.53
120.47    678.00     26.04
120.57    696.00     26.38
120.67    674.00     25.96
120.77    646.73     25.43
120.87    655.60     25.60
120.97    602.00     24.54
121.07    584.00     24.17
121.17    618.00     24.86
121.27    609.00     24.68
121.37    597.00     24.43
121.47    585.00     24.19
121.57    620.35     24.91
121.67    599.00     24.47
121.77    641.59     25.33
121.87    634.00     25.18
121.97    652.23     25.54
122.07    578.00     24.04
122.17    582.98     24.14
122.27    580.27     24.09
122.37    626.00     25.02
122.47    622.00     24.94
122.57    605.00     24.60
122.67    628.00     25.06
122.77    681.03     26.10
122.87    678.83     26.05
122.97    626.00     25.02
123.07    640.25     25.30
123.17    692.85     26.32
123.27    651.00     25.51
123.37    673.56     25.95
123.47    625.00     25.00
123.57    667.00     25.83
123.67    678.00     26.04
123.77    676.00     26.00
123.87    679.60     26.07
123.97    638.00     25.26
124.07    642.00     25.34
124.17    613.00     24.76
124.27    639.79     25.29
124.37    656.00     25.61
124.47    651.00     25.51
124.57    592.00     24.33
124.67    564.15     23.75
124.77    600.00     24.49
124.87    643.00     25.36
124.97    647.00     25.44
