XYDATA



INTER 1.0 1.0 0 0
TEMP 1035.023
  9.97    563.96     23.75
 10.07    600.00     24.49
 10.17    577.00     24.02
 10.27    628.00     25.06
 10.37    573.92     23.96
 10.47    613.00     24.76
 10.57    586.00     24.21
 10.67    588.00     24.25
 10.77    597.56     24.44
 10.87    555.73     23.57
 10.97    568.00     23.83
 11.07    566.00     23.79
 11.17    612.00     24.74
 11.27    623.00     24.96
 11.37    592.00     24.33
 11.47    587.00     24.23
 11.57    594.00     24.37
 11.67    676.00     26.00
 11.77    680.00     26.08
 11.87    655.00     25.59
 11.97    642.00     25.34
 12.07    682.00     26.12
 12.17    622.00     24.94
 12.27    755.21     27.48
 12.37    621.00     24.92
 12.47    671.64     25.92
 12.57    600.00     24.49
 12.67    574.00     23.96
 12.77    598.00     24.45
 12.87    537.00     23.17
 12.97    542.00     23.28
 13.07    608.00     24.66
 13.17    549.00     23.43
 13.27    533.00     23.09
 13.37    556.97     23.60
 13.47    509.00     22.56
 13.57    555.84     23.58
 13.67    584.00     24.17
 13.77    543.00     23.30
 13.87    566.86     23.81
 13.97    580.82     24.10
 14.07    549.85     23.45
 14.17    542.00     23.28
 14.27    595.00     24.39
 14.37    588.30     24.25
 14.47    578.00     24.04
 14.57    579.00     24.06
 14.67    582.64     24.14
 14.77    587.62     24.24
 14.87    592.00     24.33
 14.97    538.23     23.20
 15.07    598.00     24.45
 15.17    554.00     23.54
 15.27    571.00     23.90
 15.37    541.00     23.26
 15.47    542.68     23.30
 15.57    549.39     23.44
 15.67    535.57     23.14
 15.77    587.00     24.23
 15.87    582.17     24.13
 15.97    573.00     23.94
 16.07    576.00     24.00
 16.17    523.00     22.87
 16.27    540.78     23.25
 16.37    546.00     23.37
 16.47    589.00     24.27
 16.57    573.68     23.95
 16.67    525.41     22.92
 16.77    564.00     23.75
 16.87    538.85     23.21
 16.97    536.00     23.15
 17.07    589.21     24.27
 17.17    570.10     23.88
 17.27    524.00     22.89
 17.37    573.00     23.94
 17.47    549.33     23.44
 17.57    567.00     23.81
 17.67    550.17     23.46
 17.77    520.29     22.81
 17.87    639.00     25.28
 17.97    540.00     23.24
 18.07    565.00     23.77
 18.17    599.10     24.48
 18.27    587.57     24.24
 18.37    562.00     23.71
 18.47    558.00     23.62
 18.57    538.00     23.19
 18.67    576.00     24.00
 18.77    591.70     24.32
 18.87    597.09     24.44
 18.97    587.81     24.24
 19.07    551.00     23.47
 19.17    565.00     23.77
 19.27    578.00     24.04
 19.37    550.00     23.45
 19.47    513.00     22.65
 19.57    575.31     23.99
 19.67    536.78     23.17
 19.77    538.00     23.19
 19.87    600.65     24.51
 19.97    524.13     22.89
 20.07    518.00     22.76
 20.17    564.00     23.75
 20.27    557.00     23.60
 20.37    557.00     23.60
 20.47    562.00     23.71
 20.57    515.00     22.69
 20.67    567.39     23.82
 20.77    562.00     23.71
 20.87    552.68     23.51
 20.97    524.00     22.89
 21.07    570.00     23.87
 21.17    561.00     23.69
 21.27    511.93     22.63
 21.37    559.00     23.64
 21.47    557.00     23.60
 21.57    590.02     24.29
 21.67    587.39     24.24
 21.77    541.00     23.26
 21.87    544.00     23.32
 21.97    588.04     24.25
 22.07    511.00     22.61
 22.17    543.00     23.30
 22.27    571.16     23.90
 22.37    570.00     23.87
 22.47    604.00     24.58
 22.57    542.00     23.28
 22.67    544.00     23.32
 22.77    541.00     23.26
 22.87    568.10     23.83
 22.97    565.38     23.78
 23.07    540.00     23.24
 23.17    571.00     23.90
 23.27    591.43     24.32
 23.37    524.00     22.89
 23.47    514.00     22.67
 23.57    569.53     23.86
 23.67    540.00     23.24
 23.77    549.00     23.43
 23.87    563.00     23.73
 23.97    537.26     23.18
 24.07    527.00     22.96
 24.17    570.08     23.88
 24.27    580.00     24.08
 24.37    527.45     22.97
 24.47    618.00     24.86
 24.57    583.09     24.15
 24.67    601.52     24.53
 24.77    606.00     24.62
 24.87    561.00     23.69
 24.97    609.00     24.68
 25.07    599.00     24.47
 25.17    530.66     23.04
 25.27    567.00     23.81
 25.37    569.00     23.85
 25.47    518.78     22.78
 25.57    565.00     23.77
 25.67    579.00     24.06
 25.77    517.00     22.74
 25.87    546.00     23.37
 25.97    595.00     24.39
 26.07    556.53     23.59
 26.17    498.00     22.32
 26.27    530.73     23.04
 26.37    543.83     23.32
 26.47    531.00     23.04
 26.57    499.00     22.34
 26.67    577.48     24.03
 26.77    559.00     23.64
 26.87    553.20     23.52
 26.97    580.93     24.10
 27.07    540.00     23.24
 27.17    534.28     23.11
 27.27    542.91     23.30
 27.37    580.00     24.08
 27.47    552.29     23.50
 27.57    546.00     23.37
 27.67    523.68     22.88
 27.77    554.00     23.54
 27.87    602.00     24.54
 27.97    667.00     25.83
 28.07    758.00     27.53
 28.17    895.00     29.92
 28.27    934.00     30.56
 28.37    930.52     30.50
 28.47    829.00     28.79
 28.57    713.00     26.70
 28.67    727.00     26.96
 28.77    766.90     27.69
 28.87    796.00     28.21
 28.97    761.00     27.59
 29.07    766.00     27.68
 29.17    721.00     26.85
 29.27    627.00     25.04
 29.37    610.00     24.70
 29.47    562.30     23.71
 29.57    647.00     25.44
 29.67    646.00     25.42
 29.77    647.00     25.44
 29.87    569.00     23.85
 29.97    594.00     24.37
 30.07    554.00     23.54
 30.17    556.00     23.58
 30.27    577.00     24.02
 30.37    500.58     22.37
 30.47    606.00     24.62
 30.57    538.00     23.19
 30.67    526.89     22.95
 30.77    606.30     24.62
 30.87    631.75     25.13
 30.97    629.62     25.09
 31.07    647.94     25.45
 31.17    618.00     24.86
 31.27    578.29     24.05
 31.37    505.00     22.47
 31.47    532.00     23.07
 31.57    541.29     23.27
 31.67    486.88     22.07
 31.77    535.00     23.13
 31.87    551.42     23.48
 31.97    557.56     23.61
 32.07    509.81     22.58
 32.17    522.00     22.85
 32.27    528.00     22.98
 32.37    485.52     22.03
 32.47    548.00     23.41
 32.57    523.00     22.87
 32.67    484.83     22.02
 32.77    507.00     22.52
 32.87    548.85     23.43
 32.97    514.00     22.67
 33.07    563.00     23.73
 33.17    513.15     22.65
 33.27    521.90     22.85
 33.37    522.74     22.86
 33.47    541.00     23.26
 33.57    618.99     24.88
 33.67    669.61     25.88
 33.77    705.45     26.56
 33.87    830.00     28.81
 33.97    965.04     31.07
 34.07   1028.00     32.06
 34.17   1039.38     32.24
 34.27    904.06     30.07
 34.37    757.27     27.52
 34.47    601.00     24.52
 34.57    577.84     24.04
 34.67    560.00     23.66
 34.77    567.00     23.81
 34.87    560.83     23.68
 34.97    551.00     23.47
 35.07    517.00     22.74
 35.17    558.00     23.62
 35.27    572.00     23.92
 35.37    527.00     22.96
 35.47    515.96     22.71
 35.57    514.00     22.67
 35.67    511.97     22.63
 35.77    493.00     22.20
 35.87    554.00     23.54
 35.97    475.75     21.81
 36.07    518.25     22.77
 36.17    523.00     22.87
 36.27    581.00     24.10
 36.37    533.00     23.09
 36.47    530.00     23.02
 36.57    473.03     21.75
 36.67    500.64     22.37
 36.77    523.50     22.88
 36.87    484.00     22.00
 36.97    533.00     23.09
 37.07    504.00     22.45
 37.17    496.51     22.28
 37.27    470.00     21.68
 37.37    529.60     23.01
 37.47    519.00     22.78
 37.57    522.15     22.85
 37.67    485.00     22.02
 37.77    518.00     22.76
 37.87    537.00     23.17
 37.97    541.45     23.27
 38.07    484.00     22.00
 38.17    529.00     23.00
 38.27    520.00     22.80
 38.37    526.71     22.95
 38.47    468.00     21.63
 38.57    499.00     22.34
 38.67    515.77     22.71
 38.77    525.00     22.91
 38.87    523.12     22.87
 38.97    483.72     21.99
 39.07    513.00     22.65
 39.17    524.00     22.89
 39.27    435.00     20.86
 39.37    497.00     22.29
 39.47    492.00     22.18
 39.57    501.00     22.38
 39.67    521.00     22.83
 39.77    500.00     22.36
 39.87    526.92     22.95
 39.97    480.00     21.91
 40.07    525.45     22.92
 40.17    498.00     22.32
 40.27    501.00     22.38
 40.37    499.00     22.34
 40.47    525.06     22.91
 40.57    570.00     23.87
 40.67    483.00     21.98
 40.77    497.00     22.29
 40.87    486.00     22.05
 40.97    534.00     23.11
 41.07    474.00     21.77
 41.17    516.00     22.72
 41.27    495.00     22.25
 41.37    548.02     23.41
 41.47    484.00     22.00
 41.57    523.00     22.87
 41.67    450.00     21.21
 41.77    494.00     22.23
 41.87    519.00     22.78
 41.97    512.00     22.63
 42.07    493.00     22.20
 42.17    539.38     23.22
 42.27    505.00     22.47
 42.37    544.64     23.34
 42.47    609.63     24.69
 42.57    594.00     24.37
 42.67    596.89     24.43
 42.77    661.12     25.71
 42.87    553.00     23.52
 42.97    621.78     24.94
 43.07    524.00     22.89
 43.17    561.00     23.69
 43.27    525.00     22.91
 43.37    483.80     22.00
 43.47    496.00     22.27
 43.57    519.17     22.79
 43.67    473.06     21.75
 43.77    499.00     22.34
 43.87    483.00     21.98
 43.97    520.00     22.80
 44.07    533.00     23.09
 44.17    530.00     23.02
 44.27    487.91     22.09
 44.37    492.00     22.18
 44.47    539.89     23.24
 44.57    518.00     22.76
 44.67    499.99     22.36
 44.77    499.29     22.34
 44.87    526.00     22.93
 44.97    506.00     22.49
 45.07    479.39     21.90
 45.17    508.00     22.54
 45.27    530.00     23.02
 45.37    516.00     22.72
 45.47    531.94     23.06
 45.57    477.00     21.84
 45.67    489.00     22.11
 45.77    520.43     22.81
 45.87    518.00     22.76
 45.97    549.80     23.45
 46.07    564.00     23.75
 46.17    499.00     22.34
 46.27    542.07     23.28
 46.37    467.00     21.61
 46.47    543.07     23.30
 46.57    517.00     22.74
 46.67    499.50     22.35
 46.77    498.00     22.32
 46.87    486.00     22.05
 46.97    549.00     23.43
 47.07    527.77     22.97
 47.17    471.00     21.70
 47.27    531.60     23.06
 47.37    498.03     22.32
 47.47    528.00     22.98
 47.57    534.00     23.11
 47.67    525.00     22.91
 47.77    550.04     23.45
 47.87    614.00     24.78
 47.97    560.60     23.68
 48.07    578.97     24.06
 48.17    574.00     23.96
 48.27    569.00     23.85
 48.37    536.00     23.15
 48.47    580.83     24.10
 48.57    531.66     23.06
 48.67    514.00     22.67
 48.77    537.00     23.17
 48.87    494.00     22.23
 48.97    531.00     23.04
 49.07    571.00     23.90
 49.17    611.00     24.72
 49.27    635.52     25.21
 49.37    702.98     26.51
 49.47    744.00     27.28
 49.57    810.29     28.47
 49.67    921.84     30.36
 49.77   1137.00     33.72
 49.87   1458.28     38.19
 49.97   1741.41     41.73
 50.07   2177.37     46.66
 50.17   2435.00     49.35
 50.27   2545.20     50.45
 50.37   2401.48     49.00
 50.47   1928.00     43.91
 50.57   1526.33     39.07
 50.67   1180.11     34.35
 50.77    881.87     29.70
 50.87    724.00     26.91
 50.97    673.00     25.94
 51.07    629.83     25.10
 51.17    649.00     25.48
 51.27    579.00     24.06
 51.37    604.86     24.59
 51.47    606.00     24.62
 51.57    577.83     24.04
 51.67    509.00     22.56
 51.77    515.00     22.69
 51.87    557.00     23.60
 51.97    533.00     23.09
 52.07    558.00     23.62
 52.17    506.43     22.50
 52.27    571.47     23.91
 52.37    595.00     24.39
 52.47    583.39     24.15
 52.57    602.00     24.54
 52.67    563.00     23.73
 52.77    611.00     24.72
 52.87    618.00     24.86
 52.97    638.52     25.27
 53.07    779.00     27.91
 53.17    849.42     29.14
 53.27   1000.00     31.62
 53.37   1132.00     33.65
 53.47   1143.55     33.82
 53.57   1170.18     34.21
 53.67   1074.00     32.77
 53.77   1054.00     32.47
 53.87    835.00     28.90
 53.97    770.10     27.75
 54.07    679.56     26.07
 54.17    664.00     25.77
 54.27    583.00     24.15
 54.37    575.00     23.98
 54.47    595.00     24.39
 54.57    575.00     23.98
 54.67    539.00     23.22
 54.77    561.00     23.69
 54.87    533.00     23.09
 54.97    569.00     23.85
 55.07    599.00     24.47
 55.17    515.97     22.72
 55.27    573.00     23.94
 55.37    598.00     24.45
 55.47    570.00     23.87
 55.57    593.00     24.35
 55.67    548.00     23.41
 55.77    561.00     23.69
 55.87    625.00     25.00
 55.97    623.00     24.96
 56.07    611.00     24.72
 56.17    711.00     26.66
 56.27    900.77     30.01
 56.37   1052.89     32.45
 56.47   1313.24     36.24
 56.57   1738.00     41.69
 56.67   2058.00     45.37
 56.77   2438.00     49.38
 56.87   2607.00     51.06
 56.97   2690.56     51.87
 57.07   2444.45     49.44
 57.17   2121.00     46.05
 57.27   1715.00     41.41
 57.37   1268.00     35.61
 57.47   1070.00     32.71
 57.57    839.29     28.97
 57.67    703.97     26.53
 57.77    780.00     27.93
 57.87    737.00     27.15
 57.97    657.00     25.63
 58.07    663.00     25.75
 58.17    676.00     26.00
 58.27    724.16     26.91
 58.37    867.00     29.44
 58.47    915.00     30.25
 58.57   1084.83     32.94
 58.67   1283.15     35.82
 58.77   1438.00     37.92
 58.87   1573.15     39.66
 58.97   1592.47     39.91
 59.07   1566.82     39.58
 59.17   1567.00     39.59
 59.27   1426.67     37.77
 59.37   1408.00     37.52
 59.47   1252.00     35.38
 59.57   1203.00     34.68
 59.67   1186.48     34.45
 59.77   1176.00     34.29
 59.87   1136.66     33.71
 59.97   1288.06     35.89
 60.07   1439.00     37.93
 60.17   1498.00     38.70
 60.27   1465.59     38.28
 60.37   1537.34     39.21
 60.47   1387.00     37.24
 60.57   1274.00     35.69
 60.67   1108.76     33.30
 60.77    924.00     30.40
 60.87    795.00     28.20
 60.97    730.00     27.02
 61.07    648.00     25.46
 61.17    658.00     25.65
 61.27    569.00     23.85
 61.37    590.00     24.29
 61.47    688.00     26.23
 61.57    733.00     27.07
 61.67    815.00     28.55
 61.77    911.94     30.20
 61.87   1131.58     33.64
 61.97   1227.00     35.03
 62.07   1360.00     36.88
 62.17   1382.00     37.18
 62.27   1410.00     37.55
 62.37   1411.37     37.57
 62.47   1181.00     34.37
 62.57   1071.00     32.73
 62.67    960.00     30.98
 62.77    803.00     28.34
 62.87    670.00     25.88
 62.97    614.00     24.78
 63.07    623.25     24.97
 63.17    597.00     24.43
 63.27    601.00     24.52
 63.37    610.00     24.70
 63.47    531.03     23.04
 63.57    527.00     22.96
 63.67    591.47     24.32
 63.77    605.00     24.60
 63.87    568.00     23.83
 63.97    599.59     24.49
 64.07    733.00     27.07
 64.17    775.00     27.84
 64.27    830.00     28.81
 64.37    852.41     29.20
 64.47    922.17     30.37
 64.57    981.00     31.32
 64.67   1042.00     32.28
 64.77   1019.00     31.92
 64.87   1021.00     31.95
 64.97    965.62     31.07
 65.07    823.84     28.70
 65.17    771.95     27.78
 65.27    705.00     26.55
 65.37    727.73     26.98
 65.47    692.02     26.31
 65.57    616.00     24.82
 65.67    641.00     25.32
 65.77    597.00     24.43
 65.87    600.00     24.49
 65.97    616.00     24.82
 66.07    548.81     23.43
 66.17    548.42     23.42
 66.27    515.78     22.71
 66.37    543.00     23.30
 66.47    540.00     23.24
 66.57    504.00     22.45
 66.67    555.36     23.57
 66.77    545.00     23.35
 66.87    575.00     23.98
 66.97    595.72     24.41
 67.07    586.01     24.21
 67.17    631.00     25.12
 67.27    731.00     27.04
 67.37    832.00     28.84
 67.47    991.00     31.48
 67.57   1145.72     33.85
 67.67   1445.88     38.02
 67.77   1758.00     41.93
 67.87   2050.00     45.28
 67.97   2182.00     46.71
 68.07   2458.00     49.58
 68.17   2459.00     49.59
 68.27   2217.60     47.09
 68.37   2012.88     44.87
 68.47   1890.00     43.47
 68.57   1572.00     39.65
 68.67   1304.00     36.11
 68.77   1104.29     33.23
 68.87    898.83     29.98
 68.97    773.00     27.80
 69.07    752.00     27.42
 69.17    623.46     24.97
 69.27    628.00     25.06
 69.37    609.00     24.68
 69.47    574.00     23.96
 69.57    527.43     22.97
 69.67    538.00     23.19
 69.77    618.00     24.86
 69.87    585.00     24.19
 69.97    582.81     24.14
 70.07    576.00     24.00
 70.17    597.00     24.43
 70.27    537.73     23.19
 70.37    547.00     23.39
 70.47    598.00     24.45
 70.57    592.00     24.33
 70.67    558.06     23.62
 70.77    576.00     24.00
 70.87    554.00     23.54
 70.97    598.00     24.45
 71.07    666.00     25.81
 71.17    712.00     26.68
 71.27    753.25     27.45
 71.37    846.36     29.09
 71.47   1030.97     32.11
 71.57   1169.01     34.19
 71.67   1342.36     36.64
 71.77   1628.60     40.36
 71.87   1742.00     41.74
 71.97   1846.00     42.97
 72.07   1861.00     43.14
 72.17   1942.00     44.07
 72.27   1757.00     41.92
 72.37   1620.43     40.25
 72.47   1507.01     38.82
 72.57   1416.00     37.63
 72.67   1243.00     35.26
 72.77   1130.00     33.62
 72.87    962.00     31.02
 72.97    916.00     30.27
 73.07    838.00     28.95
 73.17    786.00     28.04
 73.27    791.96     28.14
 73.37    703.38     26.52
 73.47    661.58     25.72
 73.57    699.21     26.44
 73.67    676.04     26.00
 73.77    592.00     24.33
 73.87    566.84     23.81
 73.97    612.00     24.74
 74.07    594.00     24.37
 74.17    584.00     24.17
 74.27    572.00     23.92
 74.37    616.90     24.84
 74.47    534.00     23.11
 74.57    624.00     24.98
 74.67    649.00     25.48
 74.77    666.00     25.81
 74.87    548.12     23.41
 74.97    680.00     26.08
 75.07    586.00     24.21
 75.17    560.00     23.66
 75.27    515.65     22.71
 75.37    558.55     23.63
 75.47    580.00     24.08
 75.57    532.00     23.07
 75.67    574.48     23.97
 75.77    556.00     23.58
 75.87    560.00     23.66
 75.97    611.00     24.72
 76.07    649.00     25.48
 76.17    617.98     24.86
 76.27    681.00     26.10
 76.37    646.26     25.42
 76.47    727.35     26.97
 76.57    741.00     27.22
 76.67    674.79     25.98
 76.77    689.00     26.25
 76.87    650.00     25.50
 76.97    621.00     24.92
 77.07    621.00     24.92
 77.17    580.16     24.09
 77.27    562.00     23.71
 77.37    534.03     23.11
 77.47    595.81     24.41
 77.57    548.00     23.41
 77.67    484.00     22.00
 77.77    504.00     22.45
 77.87    512.00     22.63
 77.97    494.00     22.23
 78.07    481.00     21.93
 78.17    483.00     21.98
 78.27    532.64     23.08
 78.37    519.00     22.78
 78.47    571.99     23.92
 78.57    509.85     22.58
 78.67    533.00     23.09
 78.77    519.00     22.78
 78.87    529.00     23.00
 78.97    511.00     22.61
 79.07    529.00     23.00
 79.17    571.33     23.90
 79.27    550.00     23.45
 79.37    539.00     23.22
 79.47    527.00     22.96
 79.57    513.00     22.65
 79.67    559.38     23.65
 79.77    536.00     23.15
 79.87    545.08     23.35
 79.97    565.00     23.77
 80.07    559.00     23.64
 80.17    616.00     24.82
 80.27    574.00     23.96
 80.37    571.00     23.90
 80.47    589.00     24.27
 80.57    582.74     24.14
 80.67    648.69     25.47
 80.77    631.00     25.12
 80.87    637.86     25.26
 80.97    725.54     26.94
 81.07    708.55     26.62
 81.17    766.00     27.68
 81.27    781.00     27.95
 81.37    763.91     27.64
 81.47    750.72     27.40
 81.57    763.00     27.62
 81.67    717.43     26.78
 81.77    719.00     26.81
 81.87    705.00     26.55
 81.97    704.00     26.53
 82.07    622.17     24.94
 82.17    669.00     25.87
 82.27    673.67     25.96
 82.37    633.00     25.16
 82.47    576.00     24.00
 82.57    587.71     24.24
 82.67    581.00     24.10
 82.77    512.00     22.63
 82.87    593.00     24.35
 82.97    551.00     23.47
 83.07    552.79     23.51
 83.17    557.00     23.60
 83.27    594.03     24.37
 83.37    520.85     22.82
 83.47    514.77     22.69
 83.57    540.00     23.24
 83.67    533.00     23.09
 83.77    538.00     23.19
 83.87    541.00     23.26
 83.97    587.00     24.23
 84.07    575.00     23.98
 84.17    568.00     23.83
 84.27    595.00     24.39
 84.37    531.00     23.04
 84.47    556.00     23.58
 84.57    535.00     23.13
 84.67    521.71     22.84
 84.77    536.00     23.15
 84.87    576.00     24.00
 84.97    557.42     23.61
 85.07    529.00     23.00
 85.17    529.00     23.00
 85.27    558.55     23.63
 85.37    568.00     23.83
 85.47    554.00     23.54
 85.57    517.93     22.76
 85.67    559.54     23.65
 85.77    478.00     21.86
 85.87    541.00     23.26
 85.97    515.00     22.69
 86.07    538.23     23.20
 86.17    526.08     22.94
 86.27    496.00     22.27
 86.37    580.93     24.10
 86.47    563.00     23.73
 86.57    532.38     23.07
 86.67    547.00     23.39
 86.77    586.00     24.21
 86.87    558.02     23.62
 86.97    598.19     24.46
 87.07    616.00     24.82
 87.17    644.02     25.38
 87.27    616.00     24.82
 87.37    593.00     24.35
 87.47    631.00     25.12
 87.57    673.41     25.95
 87.67    640.00     25.30
 87.77    637.00     25.24
 87.87    631.00     25.12
 87.97    651.00     25.51
 88.07    620.00     24.90
 88.17    628.41     25.07
 88.27    545.99     23.37
 88.37    596.00     24.41
 88.47    517.47     22.75
 88.57    567.00     23.81
 88.67    596.00     24.41
 88.77    578.00     24.04
 88.87    605.00     24.60
 88.97    587.33     24.23
 89.07    605.78     24.61
 89.17    573.00     23.94
 89.27    639.00     25.28
 89.37    579.00     24.06
 89.47    612.00     24.74
 89.57    551.00     23.47
 89.67    632.82     25.16
 89.77    550.73     23.47
 89.87    548.00     23.41
 89.97    569.79     23.87
 90.07    555.00     23.56
 90.17    563.82     23.74
 90.27    537.00     23.17
 90.37    538.98     23.22
 90.47    531.29     23.05
 90.57    533.00     23.09
 90.67    479.00     21.89
 90.77    497.00     22.29
 90.87    536.00     23.15
 90.97    514.00     22.67
 91.07    545.12     23.35
 91.17    519.00     22.78
 91.27    511.00     22.61
 91.37    496.00     22.27
 91.47    568.58     23.84
 91.57    521.00     22.83
 91.67    512.00     22.63
 91.77    504.00     22.45
 91.87    499.56     22.35
 91.97    541.33     23.27
 92.07    568.00     23.83
 92.17    607.87     24.65
 92.27    533.00     23.09
 92.37    600.30     24.50
 92.47    587.00     24.23
 92.57    655.27     25.60
 92.67    675.00     25.98
 92.77    654.00     25.57
 92.87    673.00     25.94
 92.97    745.00     27.29
 93.07    752.29     27.43
 93.17    754.00     27.46
 93.27    791.00     28.12
 93.37    817.00     28.58
 93.47    798.00     28.25
 93.57    804.00     28.35
 93.67    765.26     27.66
 93.77    817.00     28.58
 93.87    858.78     29.30
 93.97    883.00     29.72
 94.07    842.00     29.02
 94.17    799.78     28.28
 94.27    890.00     29.83
 94.37    891.00     29.85
 94.47    893.00     29.88
 94.57    831.08     28.83
 94.67    895.00     29.92
 94.77    855.04     29.24
 94.87    840.58     28.99
 94.97    876.00     29.60
 95.07    823.80     28.70
 95.17    812.04     28.50
 95.27    793.13     28.16
 95.37    831.00     28.83
 95.47    801.00     28.30
 95.57    774.89     27.84
 95.67    711.00     26.66
 95.77    732.00     27.06
 95.87    687.00     26.21
 95.97    672.00     25.92
 96.07    665.00     25.79
 96.17    700.58     26.47
 96.27    742.00     27.24
 96.37    737.00     27.15
 96.47    771.51     27.78
 96.57    829.56     28.80
 96.67    884.00     29.73
 96.77    986.17     31.40
 96.87    976.40     31.25
 96.97   1075.00     32.79
 97.07   1217.12     34.89
 97.17   1321.00     36.35
 97.27   1384.00     37.20
 97.37   1300.00     36.06
 97.47   1356.01     36.82
 97.57   1376.03     37.09
 97.67   1464.00     38.26
 97.77   1448.00     38.05
 97.87   1278.00     35.75
 97.97   1282.00     35.81
 98.07   1228.00     35.04
 98.17   1136.00     33.70
 98.27   1133.88     33.67
 98.37   1045.13     32.33
 98.47    908.41     30.14
 98.57    909.32     30.15
 98.67    804.33     28.36
 98.77    813.84     28.53
 98.87    788.82     28.09
 98.97    757.00     27.51
 99.07    775.00     27.84
 99.17    730.00     27.02
 99.27    853.96     29.22
 99.37    875.53     29.59
 99.47   1020.45     31.94
 99.57   1040.00     32.25
 99.67   1143.00     33.81
 99.77   1285.00     35.85
 99.87   1335.33     36.54
 99.97   1493.00     38.64
100.07   1598.89     39.99
100.17   1608.87     40.11
100.27   1765.04     42.01
100.37   1926.70     43.89
100.47   1974.00     44.43
100.57   2136.00     46.22
100.67   2152.00     46.39
100.77   2109.00     45.92
100.87   1997.31     44.69
100.97   2091.00     45.73
101.07   1974.54     44.44
101.17   1921.04     43.83
101.27   1940.00     44.05
101.37   1840.88     42.91
101.47   1632.01     40.40
101.57   1598.52     39.98
101.67   1453.00     38.12
101.77   1385.19     37.22
101.87   1403.64     37.47
101.97   1307.00     36.15
102.07   1176.00     34.29
102.17   1170.00     34.21
102.27   1106.00     33.26
102.37   1061.96     32.59
102.47   1081.18     32.88
102.57   1078.00     32.83
102.67   1039.00     32.23
102.77   1057.00     32.51
102.87    994.00     31.53
102.97   1012.00     31.81
103.07    906.00     30.10
103.17    921.92     30.36
103.27    909.14     30.15
103.37    774.51     27.83
103.47    746.28     27.32
103.57    734.03     27.09
103.67    737.00     27.15
103.77    626.46     25.03
103.87    677.00     26.02
103.97    608.00     24.66
104.07    554.75     23.55
104.17    599.00     24.47
104.27    572.00     23.92
104.37    542.00     23.28
104.47    530.51     23.03
104.57    511.17     22.61
104.67    511.00     22.61
104.77    542.00     23.28
104.87    512.12     22.63
104.97    576.00     24.00
105.07    502.43     22.41
105.17    546.00     23.37
105.27    534.00     23.11
105.37    505.52     22.48
105.47    529.62     23.01
105.57    572.97     23.94
105.67    552.00     23.49
105.77    511.88     22.62
105.87    573.00     23.94
105.97    540.00     23.24
106.07    578.87     24.06
106.17    629.00     25.08
106.27    554.00     23.54
106.37    606.31     24.62
106.47    609.85     24.70
106.57    660.93     25.71
106.67    665.76     25.80
106.77    614.43     24.79
106.87    651.00     25.51
106.97    607.00     24.64
107.07    648.00     25.46
107.17    665.00     25.79
107.27    681.00     26.10
107.37    671.00     25.90
107.47    696.00     26.38
107.57    700.00     26.46
107.67    665.00     25.79
107.77    731.55     27.05
107.87    677.00     26.02
107.97    655.12     25.60
108.07    660.00     25.69
108.17    708.75     26.62
108.27    711.45     26.67
108.37    670.00     25.88
108.47    633.00     25.16
108.57    694.00     26.34
108.67    687.18     26.21
108.77    715.02     26.74
108.87    732.91     27.07
108.97    638.00     25.26
109.07    732.00     27.06
109.17    661.08     25.71
109.27    704.00     26.53
109.37    667.50     25.84
109.47    659.00     25.67
109.57    638.00     25.26
109.67    583.00     24.15
109.77    567.66     23.83
109.87    614.00     24.78
109.97    615.00     24.80
110.07    616.74     24.83
110.17    547.37     23.40
110.27    585.00     24.19
110.37    557.00     23.60
110.47    538.36     23.20
110.57    549.00     23.43
110.67    501.00     22.38
110.77    559.00     23.64
110.87    573.00     23.94
110.97    558.14     23.63
111.07    574.69     23.97
111.17    559.15     23.65
111.27    550.00     23.45
111.37    500.59     22.37
111.47    555.00     23.56
111.57    517.21     22.74
111.67    531.83     23.06
111.77    517.15     22.74
111.87    522.21     22.85
111.97    540.00     23.24
112.07    567.00     23.81
112.17    543.00     23.30
112.27    568.00     23.83
112.37    597.00     24.43
112.47    595.00     24.39
112.57    633.00     25.16
112.67    641.56     25.33
112.77    578.00     24.04
112.87    636.00     25.22
112.97    638.00     25.26
113.07    713.00     26.70
113.17    666.99     25.83
113.27    743.00     27.26
113.37    761.00     27.59
113.47    841.19     29.00
113.57    814.52     28.54
113.67    927.62     30.46
113.77    950.00     30.82
113.87    975.00     31.22
113.97    960.00     30.98
114.07   1055.90     32.49
114.17   1152.00     33.94
114.27   1171.50     34.23
114.37   1226.00     35.01
114.47   1315.00     36.26
114.57   1455.00     38.14
114.67   1615.00     40.19
114.77   1700.00     41.23
114.87   1893.00     43.51
114.97   2113.00     45.97
115.07   2286.67     47.82
115.17   2529.97     50.30
115.27   2877.00     53.64
115.37   2951.00     54.32
115.47   3410.41     58.40
115.57   3777.25     61.46
115.67   3946.00     62.82
115.77   4529.29     67.30
115.87   4659.00     68.26
115.97   5201.43     72.12
116.07   5594.61     74.80
116.17   5872.46     76.63
116.27   6176.00     78.59
116.37   6555.00     80.96
116.47   6919.23     83.18
116.57   7028.00     83.83
116.67   7067.00     84.07
116.77   6886.96     82.99
116.87   7000.00     83.67
116.97   6882.57     82.96
117.07   6600.40     81.24
117.17   6381.44     79.88
117.27   5867.00     76.60
117.37   5526.00     74.34
117.47   5264.00     72.55
117.57   4931.00     70.22
117.67   4568.87     67.59
117.77   4205.00     64.85
117.87   3605.96     60.05
117.97   3521.00     59.34
118.07   2899.30     53.85
118.17   2677.00     51.74
118.27   2384.00     48.83
118.37   2136.10     46.22
118.47   1859.00     43.12
118.57   1608.00     40.10
118.67   1430.00     37.82
118.77   1323.01     36.37
118.87   1201.42     34.66
118.97   1023.67     31.99
119.07    926.00     30.43
119.17    854.00     29.22
119.27    873.15     29.55
119.37    761.00     27.59
119.47    734.00     27.09
119.57    736.00     27.13
119.67    642.00     25.34
119.77    623.42     24.97
119.87    654.00     25.57
119.97    627.00     25.04
120.07    605.00     24.60
120.17    574.00     23.96
120.27    559.00     23.64
120.37    600.00     24.49
120.47    574.00     23.96
120.57    561.00     23.69
120.67    551.00     23.47
120.77    563.00     23.73
120.87    547.50     23.40
120.97    531.59     23.06
121.07    596.00     24.41
121.17    587.00     24.23
121.27    609.00     24.68
121.37    587.00     24.23
121.47    567.00     23.81
121.57    607.00     24.64
121.67    609.00     24.68
121.77    612.00     24.74
121.87    643.00     25.36
121.97    640.80     25.31
122.07    608.00     24.66
122.17    600.00     24.49
122.27    659.00     25.67
122.37    597.66     24.45
122.47    604.00     24.58
122.57    642.00     25.34
122.67    627.00     25.04
122.77    650.00     25.50
122.87    651.00     25.51
122.97    626.00     25.02
123.07    623.34     24.97
123.17    645.00     25.40
123.27    605.66     24.61
123.37    655.00     25.59
123.47    616.00     24.82
123.57    657.00     25.63
123.67    625.00     25.00
123.77    620.00     24.90
123.87    688.00     26.23
123.97    613.00     24.76
124.07    642.00     25.34
124.17    702.00     26.50
124.27    633.42     25.17
124.37    572.00     23.92
124.47    566.00     23.79
124.57    570.00     23.87
124.67    622.00     24.94
124.77    592.00     24.33
124.87    623.22     24.96
124.97    599.59     24.49
