XYDATA



INTER 1.0 1.0 0 0
TEMP 1005.647
  9.97    596.00     24.41
 10.07    610.00     24.70
 10.17    607.00     24.64
 10.27    538.95     23.22
 10.37    600.00     24.49
 10.47    607.00     24.64
 10.57    551.00     23.47
 10.67    546.84     23.38
 10.77    595.75     24.41
 10.87    591.71     24.32
 10.97    624.00     24.98
 11.07    588.00     24.25
 11.17    568.00     23.83
 11.27    564.00     23.75
 11.37    565.00     23.77
 11.47    580.00     24.08
 11.57    625.00     25.00
 11.67    545.83     23.36
 11.77    663.00     25.75
 11.87    635.00     25.20
 11.97    618.60     24.87
 12.07    618.40     24.87
 12.17    677.00     26.02
 12.27    727.46     26.97
 12.37    638.00     25.26
 12.47    645.00     25.40
 12.57    577.00     24.02
 12.67    630.00     25.10
 12.77    590.89     24.31
 12.87    550.00     23.45
 12.97    519.00     22.78
 13.07    525.00     22.91
 13.17    536.00     23.15
 13.27    553.00     23.52
 13.37    581.00     24.10
 13.47    542.70     23.30
 13.57    583.00     24.15
 13.67    511.00     22.61
 13.77    585.00     24.19
 13.87    554.00     23.54
 13.97    614.09     24.78
 14.07    526.00     22.93
 14.17    571.60     23.91
 14.27    563.00     23.73
 14.37    551.00     23.47
 14.47    559.00     23.64
 14.57    575.01     23.98
 14.67    586.00     24.21
 14.77    582.00     24.12
 14.87    596.00     24.41
 14.97    510.00     22.58
 15.07    562.57     23.72
 15.17    542.00     23.28
 15.27    527.26     22.96
 15.37    553.44     23.53
 15.47    600.00     24.49
 15.57    605.47     24.61
 15.67    570.00     23.87
 15.77    593.00     24.35
 15.87    607.73     24.65
 15.97    525.00     22.91
 16.07    520.98     22.83
 16.17    540.00     23.24
 16.27    606.37     24.62
 16.37    556.00     23.58
 16.47    578.00     24.04
 16.57    591.00     24.31
 16.67    569.45     23.86
 16.77    605.43     24.61
 16.87    565.92     23.79
 16.97    541.00     23.26
 17.07    528.26     22.98
 17.17    527.00     22.96
 17.27    546.00     23.37
 17.37    563.00     23.73
 17.47    576.00     24.00
 17.57    571.00     23.90
 17.67    523.00     22.87
 17.77    578.00     24.04
 17.87    578.00     24.04
 17.97    526.00     22.93
 18.07    577.29     24.03
 18.17    567.00     23.81
 18.27    571.00     23.90
 18.37    518.92     22.78
 18.47    570.93     23.89
 18.57    517.00     22.74
 18.67    524.59     22.90
 18.77    571.00     23.90
 18.87    573.93     23.96
 18.97    530.92     23.04
 19.07    545.00     23.35
 19.17    554.00     23.54
 19.27    549.17     23.43
 19.37    551.06     23.47
 19.47    586.95     24.23
 19.57    540.00     23.24
 19.67    589.99     24.29
 19.77    566.00     23.79
 19.87    559.00     23.64
 19.97    550.00     23.45
 20.07    559.00     23.64
 20.17    576.00     24.00
 20.27    554.00     23.54
 20.37    567.00     23.81
 20.47    498.00     22.32
 20.57    550.00     23.45
 20.67    570.00     23.87
 20.77    541.00     23.26
 20.87    542.00     23.28
 20.97    525.00     22.91
 21.07    578.00     24.04
 21.17    579.51     24.07
 21.27    558.00     23.62
 21.37    548.67     23.42
 21.47    506.25     22.50
 21.57    549.00     23.43
 21.67    563.10     23.73
 21.77    514.65     22.69
 21.87    592.96     24.35
 21.97    514.00     22.67
 22.07    569.41     23.86
 22.17    533.00     23.09
 22.27    601.00     24.52
 22.37    575.72     23.99
 22.47    597.00     24.43
 22.57    541.25     23.26
 22.67    579.31     24.07
 22.77    515.13     22.70
 22.87    547.66     23.40
 22.97    505.04     22.47
 23.07    567.00     23.81
 23.17    534.82     23.13
 23.27    569.00     23.85
 23.37    534.00     23.11
 23.47    514.00     22.67
 23.57    502.75     22.42
 23.67    559.00     23.64
 23.77    549.43     23.44
 23.87    559.00     23.64
 23.97    558.72     23.64
 24.07    552.00     23.49
 24.17    539.00     23.22
 24.27    577.00     24.02
 24.37    580.00     24.08
 24.47    598.00     24.45
 24.57    587.04     24.23
 24.67    610.00     24.70
 24.77    612.00     24.74
 24.87    620.00     24.90
 24.97    652.25     25.54
 25.07    589.00     24.27
 25.17    602.00     24.54
 25.27    543.60     23.32
 25.37    575.00     23.98
 25.47    545.00     23.35
 25.57    552.00     23.49
 25.67    498.99     22.34
 25.77    510.07     22.58
 25.87    572.75     23.93
 25.97    589.38     24.28
 26.07    579.94     24.08
 26.17    584.00     24.17
 26.27    539.00     23.22
 26.37    613.00     24.76
 26.47    562.00     23.71
 26.57    499.45     22.35
 26.67    572.00     23.92
 26.77    521.00     22.83
 26.87    574.98     23.98
 26.97    490.98     22.16
 27.07    581.76     24.12
 27.17    561.50     23.70
 27.27    574.57     23.97
 27.37    557.00     23.60
 27.47    522.00     22.85
 27.57    545.00     23.35
 27.67    534.00     23.11
 27.77    557.00     23.60
 27.87    582.00     24.12
 27.97    655.00     25.59
 28.07    802.00     28.32
 28.17    850.00     29.15
 28.27   1027.00     32.05
 28.37    915.00     30.25
 28.47    796.00     28.21
 28.57    700.00     26.46
 28.67    657.29     25.64
 28.77    697.14     26.40
 28.87    808.00     28.43
 28.97    819.00     28.62
 29.07    864.23     29.40
 29.17    738.32     27.17
 29.27    625.00     25.00
 29.37    606.00     24.62
 29.47    600.74     24.51
 29.57    631.00     25.12
 29.67    534.82     23.13
 29.77    594.00     24.37
 29.87    616.61     24.83
 29.97    569.00     23.85
 30.07    574.48     23.97
 30.17    533.00     23.09
 30.27    527.00     22.96
 30.37    548.00     23.41
 30.47    511.35     22.61
 30.57    543.00     23.30
 30.67    613.00     24.76
 30.77    617.00     24.84
 30.87    631.00     25.12
 30.97    606.00     24.62
 31.07    608.00     24.66
 31.17    574.51     23.97
 31.27    546.97     23.39
 31.37    542.00     23.28
 31.47    550.00     23.45
 31.57    536.00     23.15
 31.67    498.53     22.33
 31.77    530.00     23.02
 31.87    515.70     22.71
 31.97    552.00     23.49
 32.07    518.99     22.78
 32.17    548.00     23.41
 32.27    568.00     23.83
 32.37    511.00     22.61
 32.47    499.90     22.36
 32.57    531.00     23.04
 32.67    554.68     23.55
 32.77    533.73     23.10
 32.87    553.00     23.52
 32.97    563.00     23.73
 33.07    557.03     23.60
 33.17    528.00     22.98
 33.27    542.00     23.28
 33.37    572.83     23.93
 33.47    567.00     23.81
 33.57    575.00     23.98
 33.67    630.00     25.10
 33.77    709.00     26.63
 33.87    855.00     29.24
 33.97    981.00     31.32
 34.07   1078.00     32.83
 34.17   1070.00     32.71
 34.27    922.72     30.38
 34.37    788.00     28.07
 34.47    635.27     25.20
 34.57    609.37     24.69
 34.67    595.86     24.41
 34.77    515.00     22.69
 34.87    514.00     22.67
 34.97    512.00     22.63
 35.07    495.69     22.26
 35.17    481.00     21.93
 35.27    530.00     23.02
 35.37    501.11     22.39
 35.47    528.42     22.99
 35.57    527.53     22.97
 35.67    552.21     23.50
 35.77    480.00     21.91
 35.87    521.00     22.83
 35.97    477.58     21.85
 36.07    527.68     22.97
 36.17    499.00     22.34
 36.27    476.49     21.83
 36.37    488.00     22.09
 36.47    486.00     22.05
 36.57    482.00     21.95
 36.67    507.00     22.52
 36.77    533.00     23.09
 36.87    499.00     22.34
 36.97    476.00     21.82
 37.07    506.83     22.51
 37.17    497.00     22.29
 37.27    530.00     23.02
 37.37    507.00     22.52
 37.47    500.00     22.36
 37.57    500.11     22.36
 37.67    523.14     22.87
 37.77    526.00     22.93
 37.87    563.65     23.74
 37.97    523.00     22.87
 38.07    537.79     23.19
 38.17    558.50     23.63
 38.27    501.72     22.40
 38.37    488.69     22.11
 38.47    494.84     22.24
 38.57    496.00     22.27
 38.67    513.00     22.65
 38.77    492.00     22.18
 38.87    506.44     22.50
 38.97    485.00     22.02
 39.07    490.00     22.14
 39.17    490.52     22.15
 39.27    496.00     22.27
 39.37    509.00     22.56
 39.47    524.00     22.89
 39.57    559.00     23.64
 39.67    478.00     21.86
 39.77    485.00     22.02
 39.87    496.00     22.27
 39.97    457.00     21.38
 40.07    529.03     23.00
 40.17    512.00     22.63
 40.27    527.00     22.96
 40.37    511.57     22.62
 40.47    464.26     21.55
 40.57    493.55     22.22
 40.67    513.12     22.65
 40.77    545.21     23.35
 40.87    499.00     22.34
 40.97    549.40     23.44
 41.07    494.00     22.23
 41.17    476.00     21.82
 41.27    487.00     22.07
 41.37    509.30     22.57
 41.47    518.00     22.76
 41.57    484.00     22.00
 41.67    541.00     23.26
 41.77    489.00     22.11
 41.87    501.00     22.38
 41.97    498.00     22.32
 42.07    483.00     21.98
 42.17    519.00     22.78
 42.27    546.00     23.37
 42.37    513.00     22.65
 42.47    614.45     24.79
 42.57    622.00     24.94
 42.67    556.00     23.58
 42.77    587.40     24.24
 42.87    585.58     24.20
 42.97    541.00     23.26
 43.07    593.00     24.35
 43.17    518.63     22.77
 43.27    510.00     22.58
 43.37    527.00     22.96
 43.47    470.69     21.70
 43.57    510.00     22.58
 43.67    508.00     22.54
 43.77    470.00     21.68
 43.87    539.51     23.23
 43.97    479.80     21.90
 44.07    501.06     22.38
 44.17    543.96     23.32
 44.27    533.00     23.09
 44.37    524.00     22.89
 44.47    460.00     21.45
 44.57    470.16     21.68
 44.67    500.00     22.36
 44.77    480.11     21.91
 44.87    479.00     21.89
 44.97    551.00     23.47
 45.07    486.00     22.05
 45.17    548.00     23.41
 45.27    509.00     22.56
 45.37    534.51     23.12
 45.47    525.87     22.93
 45.57    510.96     22.60
 45.67    535.77     23.15
 45.77    481.00     21.93
 45.87    503.00     22.43
 45.97    500.45     22.37
 46.07    509.00     22.56
 46.17    520.67     22.82
 46.27    476.00     21.82
 46.37    464.00     21.54
 46.47    498.00     22.32
 46.57    515.00     22.69
 46.67    527.03     22.96
 46.77    530.73     23.04
 46.87    478.00     21.86
 46.97    508.00     22.54
 47.07    463.63     21.53
 47.17    512.00     22.63
 47.27    521.00     22.83
 47.37    501.00     22.38
 47.47    526.00     22.93
 47.57    544.00     23.32
 47.67    583.62     24.16
 47.77    593.00     24.35
 47.87    603.00     24.56
 47.97    541.57     23.27
 48.07    561.00     23.69
 48.17    544.00     23.32
 48.27    551.00     23.47
 48.37    560.00     23.66
 48.47    520.00     22.80
 48.57    525.00     22.91
 48.67    514.00     22.67
 48.77    531.00     23.04
 48.87    532.66     23.08
 48.97    526.00     22.93
 49.07    604.52     24.59
 49.17    538.00     23.19
 49.27    611.75     24.73
 49.37    699.00     26.44
 49.47    690.00     26.27
 49.57    737.00     27.15
 49.67    866.00     29.43
 49.77   1076.00     32.80
 49.87   1365.00     36.95
 49.97   1718.00     41.45
 50.07   2180.00     46.69
 50.17   2593.63     50.93
 50.27   2554.62     50.54
 50.37   2437.21     49.37
 50.47   1974.00     44.43
 50.57   1529.00     39.10
 50.67   1104.00     33.23
 50.77    872.93     29.55
 50.87    736.25     27.13
 50.97    659.00     25.67
 51.07    644.00     25.38
 51.17    626.00     25.02
 51.27    616.00     24.82
 51.37    532.33     23.07
 51.47    571.00     23.90
 51.57    587.00     24.23
 51.67    558.65     23.64
 51.77    565.00     23.77
 51.87    501.00     22.38
 51.97    513.61     22.66
 52.07    573.30     23.94
 52.17    544.00     23.32
 52.27    554.87     23.56
 52.37    538.00     23.19
 52.47    590.00     24.29
 52.57    579.00     24.06
 52.67    515.45     22.70
 52.77    628.00     25.06
 52.87    590.00     24.29
 52.97    702.00     26.50
 53.07    754.00     27.46
 53.17    912.00     30.20
 53.27    904.23     30.07
 53.37   1088.00     32.98
 53.47   1155.00     33.99
 53.57   1134.00     33.67
 53.67   1137.53     33.73
 53.77   1062.00     32.59
 53.87    967.86     31.11
 53.97    789.51     28.10
 54.07    675.00     25.98
 54.17    688.00     26.23
 54.27    620.00     24.90
 54.37    631.00     25.12
 54.47    552.35     23.50
 54.57    581.00     24.10
 54.67    569.00     23.85
 54.77    552.00     23.49
 54.87    537.00     23.17
 54.97    543.00     23.30
 55.07    566.00     23.79
 55.17    508.19     22.54
 55.27    528.52     22.99
 55.37    567.09     23.81
 55.47    557.00     23.60
 55.57    532.00     23.07
 55.67    544.00     23.32
 55.77    602.00     24.54
 55.87    542.36     23.29
 55.97    622.00     24.94
 56.07    661.04     25.71
 56.17    708.08     26.61
 56.27    827.00     28.76
 56.37   1022.37     31.97
 56.47   1259.00     35.48
 56.57   1593.00     39.91
 56.67   1970.73     44.39
 56.77   2331.00     48.28
 56.87   2551.09     50.51
 56.97   2713.50     52.09
 57.07   2487.00     49.87
 57.17   2168.51     46.57
 57.27   1816.00     42.61
 57.37   1446.00     38.03
 57.47   1114.00     33.38
 57.57    912.62     30.21
 57.67    772.00     27.78
 57.77    672.13     25.93
 57.87    663.62     25.76
 57.97    672.00     25.92
 58.07    674.00     25.96
 58.17    706.00     26.57
 58.27    727.00     26.96
 58.37    836.00     28.91
 58.47    920.00     30.33
 58.57   1143.36     33.81
 58.67   1205.55     34.72
 58.77   1410.14     37.55
 58.87   1527.00     39.08
 58.97   1545.24     39.31
 59.07   1615.00     40.19
 59.17   1596.00     39.95
 59.27   1465.00     38.28
 59.37   1324.28     36.39
 59.47   1365.00     36.95
 59.57   1263.00     35.54
 59.67   1185.00     34.42
 59.77   1113.55     33.37
 59.87   1206.00     34.73
 59.97   1261.00     35.51
 60.07   1393.00     37.32
 60.17   1586.00     39.82
 60.27   1598.00     39.97
 60.37   1558.00     39.47
 60.47   1496.96     38.69
 60.57   1334.00     36.52
 60.67   1122.79     33.51
 60.77    902.00     30.03
 60.87    819.00     28.62
 60.97    666.00     25.81
 61.07    693.00     26.32
 61.17    591.66     24.32
 61.27    652.96     25.55
 61.37    598.00     24.45
 61.47    675.00     25.98
 61.57    752.76     27.44
 61.67    832.00     28.84
 61.77    882.00     29.70
 61.87   1045.00     32.33
 61.97   1192.64     34.53
 62.07   1245.00     35.28
 62.17   1378.52     37.13
 62.27   1374.00     37.07
 62.37   1418.57     37.66
 62.47   1242.00     35.24
 62.57   1053.00     32.45
 62.67    989.64     31.46
 62.77    825.00     28.72
 62.87    706.00     26.57
 62.97    637.00     25.24
 63.07    586.71     24.22
 63.17    626.65     25.03
 63.27    599.05     24.48
 63.37    580.00     24.08
 63.47    585.17     24.19
 63.57    576.96     24.02
 63.67    552.00     23.49
 63.77    545.73     23.36
 63.87    613.17     24.76
 63.97    642.00     25.34
 64.07    715.57     26.75
 64.17    779.00     27.91
 64.27    821.40     28.66
 64.37    909.00     30.15
 64.47    862.81     29.37
 64.57    965.59     31.07
 64.67   1048.40     32.38
 64.77   1016.00     31.87
 64.87   1013.00     31.83
 64.97    989.36     31.45
 65.07    908.26     30.14
 65.17    802.41     28.33
 65.27    737.00     27.15
 65.37    656.00     25.61
 65.47    668.15     25.85
 65.57    639.14     25.28
 65.67    587.00     24.23
 65.77    594.00     24.37
 65.87    588.00     24.25
 65.97    571.00     23.90
 66.07    525.75     22.93
 66.17    536.93     23.17
 66.27    546.00     23.37
 66.37    513.75     22.67
 66.47    531.00     23.04
 66.57    546.00     23.37
 66.67    553.39     23.52
 66.77    546.00     23.37
 66.87    530.77     23.04
 66.97    551.75     23.49
 67.07    620.00     24.90
 67.17    646.00     25.42
 67.27    642.00     25.34
 67.37    761.00     27.59
 67.47   1003.00     31.67
 67.57   1092.48     33.05
 67.67   1429.00     37.80
 67.77   1633.00     40.41
 67.87   1976.00     44.45
 67.97   2228.48     47.21
 68.07   2429.00     49.28
 68.17   2377.00     48.75
 68.27   2404.85     49.04
 68.37   2147.72     46.34
 68.47   1953.00     44.19
 68.57   1558.57     39.48
 68.67   1312.06     36.22
 68.77   1131.00     33.63
 68.87    915.00     30.25
 68.97    855.04     29.24
 69.07    697.00     26.40
 69.17    674.00     25.96
 69.27    652.00     25.53
 69.37    595.00     24.39
 69.47    607.00     24.64
 69.57    597.00     24.43
 69.67    596.00     24.41
 69.77    616.00     24.82
 69.87    608.00     24.66
 69.97    579.00     24.06
 70.07    593.00     24.35
 70.17    547.58     23.40
 70.27    598.57     24.47
 70.37    583.65     24.16
 70.47    591.00     24.31
 70.57    585.00     24.19
 70.67    591.00     24.31
 70.77    608.00     24.66
 70.87    586.00     24.21
 70.97    615.00     24.80
 71.07    682.48     26.12
 71.17    683.00     26.13
 71.27    760.43     27.58
 71.37    829.32     28.80
 71.47   1012.00     31.81
 71.57   1125.00     33.54
 71.67   1284.00     35.83
 71.77   1536.00     39.19
 71.87   1628.08     40.35
 71.97   1846.00     42.97
 72.07   1968.00     44.36
 72.17   1908.00     43.68
 72.27   1929.19     43.92
 72.37   1643.76     40.54
 72.47   1600.00     40.00
 72.57   1448.00     38.05
 72.67   1342.00     36.63
 72.77   1162.00     34.09
 72.87    987.00     31.42
 72.97   1053.16     32.45
 73.07    898.00     29.97
 73.17    914.35     30.24
 73.27    803.31     28.34
 73.37    733.00     27.07
 73.47    678.00     26.04
 73.57    709.89     26.64
 73.67    598.00     24.45
 73.77    630.27     25.11
 73.87    633.79     25.18
 73.97    608.17     24.66
 74.07    562.18     23.71
 74.17    586.00     24.21
 74.27    564.07     23.75
 74.37    594.73     24.39
 74.47    619.00     24.88
 74.57    619.00     24.88
 74.67    655.00     25.59
 74.77    544.74     23.34
 74.87    624.00     24.98
 74.97    527.84     22.97
 75.07    546.93     23.39
 75.17    614.00     24.78
 75.27    538.42     23.20
 75.37    509.45     22.57
 75.47    570.00     23.87
 75.57    595.00     24.39
 75.67    587.00     24.23
 75.77    585.00     24.19
 75.87    615.56     24.81
 75.97    622.35     24.95
 76.07    539.00     23.22
 76.17    606.69     24.63
 76.27    659.00     25.67
 76.37    701.00     26.48
 76.47    677.00     26.02
 76.57    679.00     26.06
 76.67    713.00     26.70
 76.77    681.00     26.10
 76.87    678.31     26.04
 76.97    609.25     24.68
 77.07    623.00     24.96
 77.17    568.84     23.85
 77.27    569.00     23.85
 77.37    565.00     23.77
 77.47    562.00     23.71
 77.57    492.00     22.18
 77.67    526.26     22.94
 77.77    569.89     23.87
 77.87    514.00     22.67
 77.97    536.28     23.16
 78.07    544.79     23.34
 78.17    536.00     23.15
 78.27    529.00     23.00
 78.37    517.21     22.74
 78.47    528.00     22.98
 78.57    503.00     22.43
 78.67    535.00     23.13
 78.77    573.31     23.94
 78.87    511.00     22.61
 78.97    543.00     23.30
 79.07    524.00     22.89
 79.17    514.13     22.67
 79.27    565.70     23.78
 79.37    538.00     23.19
 79.47    521.00     22.83
 79.57    532.00     23.07
 79.67    526.00     22.93
 79.77    535.00     23.13
 79.87    552.00     23.49
 79.97    572.43     23.93
 80.07    533.53     23.10
 80.17    556.00     23.58
 80.27    552.74     23.51
 80.37    574.00     23.96
 80.47    563.00     23.73
 80.57    602.00     24.54
 80.67    605.86     24.61
 80.77    654.69     25.59
 80.87    636.00     25.22
 80.97    664.00     25.77
 81.07    681.07     26.10
 81.17    705.00     26.55
 81.27    768.00     27.71
 81.37    747.67     27.34
 81.47    778.52     27.90
 81.57    785.70     28.03
 81.67    758.83     27.55
 81.77    756.00     27.50
 81.87    723.00     26.89
 81.97    683.00     26.13
 82.07    629.00     25.08
 82.17    702.00     26.50
 82.27    623.00     24.96
 82.37    578.57     24.05
 82.47    635.62     25.21
 82.57    613.00     24.76
 82.67    599.00     24.47
 82.77    569.00     23.85
 82.87    544.00     23.32
 82.97    577.00     24.02
 83.07    522.93     22.87
 83.17    514.00     22.67
 83.27    519.00     22.78
 83.37    586.25     24.21
 83.47    586.50     24.22
 83.57    530.21     23.03
 83.67    534.00     23.11
 83.77    591.00     24.31
 83.87    608.00     24.66
 83.97    548.04     23.41
 84.07    590.00     24.29
 84.17    597.00     24.43
 84.27    547.00     23.39
 84.37    553.00     23.52
 84.47    599.27     24.48
 84.57    580.59     24.10
 84.67    544.00     23.32
 84.77    489.00     22.11
 84.87    543.56     23.31
 84.97    522.00     22.85
 85.07    512.00     22.63
 85.17    556.00     23.58
 85.27    533.00     23.09
 85.37    507.00     22.52
 85.47    478.89     21.88
 85.57    540.00     23.24
 85.67    530.00     23.02
 85.77    558.00     23.62
 85.87    504.00     22.45
 85.97    500.00     22.36
 86.07    480.00     21.91
 86.17    553.22     23.52
 86.27    561.98     23.71
 86.37    580.34     24.09
 86.47    528.00     22.98
 86.57    572.00     23.92
 86.67    578.00     24.04
 86.77    551.62     23.49
 86.87    531.00     23.04
 86.97    610.42     24.71
 87.07    569.97     23.87
 87.17    617.00     24.84
 87.27    630.48     25.11
 87.37    614.00     24.78
 87.47    685.00     26.17
 87.57    650.00     25.50
 87.67    660.00     25.69
 87.77    660.00     25.69
 87.87    634.00     25.18
 87.97    560.58     23.68
 88.07    586.18     24.21
 88.17    606.72     24.63
 88.27    603.00     24.56
 88.37    604.00     24.58
 88.47    567.00     23.81
 88.57    583.00     24.15
 88.67    544.36     23.33
 88.77    589.94     24.29
 88.87    587.00     24.23
 88.97    589.45     24.28
 89.07    626.00     25.02
 89.17    622.00     24.94
 89.27    578.66     24.06
 89.37    596.00     24.41
 89.47    605.00     24.60
 89.57    586.78     24.22
 89.67    616.00     24.82
 89.77    590.38     24.30
 89.87    586.26     24.21
 89.97    548.34     23.42
 90.07    569.00     23.85
 90.17    554.00     23.54
 90.27    539.23     23.22
 90.37    517.38     22.75
 90.47    530.78     23.04
 90.57    551.00     23.47
 90.67    486.17     22.05
 90.77    524.00     22.89
 90.87    521.52     22.84
 90.97    549.00     23.43
 91.07    479.00     21.89
 91.17    550.00     23.45
 91.27    509.00     22.56
 91.37    499.00     22.34
 91.47    505.84     22.49
 91.57    538.00     23.19
 91.67    507.00     22.52
 91.77    495.24     22.25
 91.87    583.81     24.16
 91.97    552.39     23.50
 92.07    532.00     23.07
 92.17    547.00     23.39
 92.27    551.00     23.47
 92.37    616.14     24.82
 92.47    595.00     24.39
 92.57    639.71     25.29
 92.67    664.00     25.77
 92.77    644.53     25.39
 92.87    722.00     26.87
 92.97    731.00     27.04
 93.07    769.00     27.73
 93.17    780.87     27.94
 93.27    811.00     28.48
 93.37    758.00     27.53
 93.47    753.00     27.44
 93.57    764.32     27.65
 93.67    863.00     29.38
 93.77    786.00     28.04
 93.87    830.00     28.81
 93.97    846.00     29.09
 94.07    877.00     29.61
 94.17    884.00     29.73
 94.27    876.18     29.60
 94.37    864.02     29.39
 94.47    870.00     29.50
 94.57    875.00     29.58
 94.67    905.00     30.08
 94.77    938.00     30.63
 94.87    908.00     30.13
 94.97    875.00     29.58
 95.07    887.00     29.78
 95.17    901.29     30.02
 95.27    813.57     28.52
 95.37    844.01     29.05
 95.47    793.00     28.16
 95.57    744.50     27.29
 95.67    800.00     28.28
 95.77    672.24     25.93
 95.87    663.60     25.76
 95.97    635.00     25.20
 96.07    671.00     25.90
 96.17    652.00     25.53
 96.27    685.86     26.19
 96.37    734.00     27.09
 96.47    762.32     27.61
 96.57    805.77     28.39
 96.67    840.00     28.98
 96.77    922.45     30.37
 96.87   1006.00     31.72
 96.97   1046.00     32.34
 97.07   1166.45     34.15
 97.17   1213.00     34.83
 97.27   1246.16     35.30
 97.37   1406.00     37.50
 97.47   1456.00     38.16
 97.57   1385.90     37.23
 97.67   1461.80     38.23
 97.77   1441.00     37.96
 97.87   1317.00     36.29
 97.97   1269.00     35.62
 98.07   1234.72     35.14
 98.17   1231.00     35.09
 98.27   1124.00     33.53
 98.37   1104.91     33.24
 98.47    938.00     30.63
 98.57    929.00     30.48
 98.67    878.00     29.63
 98.77    880.00     29.66
 98.87    830.00     28.81
 98.97    827.00     28.76
 99.07    769.00     27.73
 99.17    817.00     28.58
 99.27    862.16     29.36
 99.37    841.00     29.00
 99.47    951.00     30.84
 99.57   1077.97     32.83
 99.67   1149.39     33.90
 99.77   1216.00     34.87
 99.87   1338.16     36.58
 99.97   1442.00     37.97
100.07   1549.68     39.37
100.17   1781.00     42.20
100.27   1812.00     42.57
100.37   1874.00     43.29
100.47   1891.37     43.49
100.57   2026.25     45.01
100.67   2122.00     46.07
100.77   2095.00     45.77
100.87   2194.00     46.84
100.97   2064.00     45.43
101.07   2075.00     45.55
101.17   1884.00     43.41
101.27   1911.04     43.72
101.37   1788.00     42.28
101.47   1684.00     41.04
101.57   1548.00     39.34
101.67   1490.00     38.60
101.77   1373.00     37.05
101.87   1352.00     36.77
101.97   1360.47     36.88
102.07   1225.00     35.00
102.17   1086.00     32.95
102.27   1195.57     34.58
102.37   1164.00     34.12
102.47   1152.82     33.95
102.57   1052.07     32.44
102.67   1079.00     32.85
102.77   1093.55     33.07
102.87   1000.00     31.62
102.97    952.38     30.86
103.07    982.00     31.34
103.17    895.88     29.93
103.27    857.00     29.27
103.37    822.00     28.67
103.47    839.91     28.98
103.57    725.00     26.93
103.67    665.44     25.80
103.77    703.87     26.53
103.87    668.00     25.85
103.97    631.38     25.13
104.07    605.00     24.60
104.17    610.00     24.70
104.27    564.00     23.75
104.37    574.00     23.96
104.47    580.00     24.08
104.57    540.00     23.24
104.67    561.05     23.69
104.77    583.00     24.15
104.87    543.00     23.30
104.97    558.00     23.62
105.07    546.00     23.37
105.17    526.74     22.95
105.27    497.00     22.29
105.37    578.00     24.04
105.47    573.66     23.95
105.57    515.36     22.70
105.67    494.96     22.25
105.77    544.00     23.32
105.87    580.49     24.09
105.97    546.00     23.37
106.07    561.00     23.69
106.17    615.00     24.80
106.27    561.00     23.69
106.37    593.00     24.35
106.47    641.89     25.34
106.57    583.00     24.15
106.67    594.00     24.37
106.77    593.00     24.35
106.87    639.00     25.28
106.97    604.00     24.58
107.07    635.00     25.20
107.17    643.55     25.37
107.27    709.62     26.64
107.37    689.00     26.25
107.47    676.00     26.00
107.57    719.68     26.83
107.67    680.96     26.10
107.77    734.44     27.10
107.87    686.00     26.19
107.97    692.97     26.32
108.07    687.00     26.21
108.17    718.05     26.80
108.27    639.00     25.28
108.37    708.00     26.61
108.47    663.00     25.75
108.57    714.00     26.72
108.67    684.15     26.16
108.77    675.00     25.98
108.87    682.00     26.12
108.97    663.00     25.75
109.07    658.00     25.65
109.17    642.39     25.35
109.27    679.00     26.06
109.37    690.00     26.27
109.47    649.00     25.48
109.57    654.00     25.57
109.67    593.00     24.35
109.77    596.26     24.42
109.87    571.82     23.91
109.97    609.00     24.68
110.07    545.00     23.35
110.17    595.00     24.39
110.27    542.11     23.28
110.37    594.15     24.38
110.47    570.00     23.87
110.57    500.49     22.37
110.67    521.00     22.83
110.77    536.00     23.15
110.87    512.00     22.63
110.97    543.14     23.31
111.07    550.74     23.47
111.17    517.87     22.76
111.27    548.05     23.41
111.37    490.95     22.16
111.47    584.00     24.17
111.57    568.52     23.84
111.67    533.53     23.10
111.77    564.06     23.75
111.87    576.00     24.00
111.97    528.96     23.00
112.07    537.20     23.18
112.17    564.00     23.75
112.27    582.00     24.12
112.37    560.00     23.66
112.47    589.00     24.27
112.57    556.22     23.58
112.67    626.00     25.02
112.77    584.00     24.17
112.87    634.00     25.18
112.97    656.00     25.61
113.07    623.01     24.96
113.17    687.00     26.21
113.27    737.00     27.15
113.37    725.00     26.93
113.47    787.00     28.05
113.57    835.85     28.91
113.67    896.00     29.93
113.77    905.51     30.09
113.87    891.63     29.86
113.97   1010.00     31.78
114.07   1052.00     32.43
114.17   1124.00     33.53
114.27   1130.00     33.62
114.37   1218.00     34.90
114.47   1248.00     35.33
114.57   1355.00     36.81
114.67   1555.00     39.43
114.77   1624.00     40.30
114.87   1819.71     42.66
114.97   1903.45     43.63
115.07   2171.42     46.60
115.17   2449.00     49.49
115.27   2618.00     51.17
115.37   2815.00     53.06
115.47   3212.00     56.67
115.57   3543.00     59.52
115.67   3867.02     62.19
115.77   4264.00     65.30
115.87   4625.18     68.01
115.97   4873.00     69.81
116.07   5349.00     73.14
116.17   5901.92     76.82
116.27   5980.00     77.33
116.37   6616.00     81.34
116.47   6822.00     82.60
116.57   7063.96     84.05
116.67   7113.00     84.34
116.77   7048.00     83.95
116.87   7104.00     84.29
116.97   7010.00     83.73
117.07   6807.00     82.50
117.17   6391.56     79.95
117.27   6055.33     77.82
117.37   5697.00     75.48
117.47   5303.00     72.82
117.57   5058.00     71.12
117.67   4593.00     67.77
117.77   4414.66     66.44
117.87   3773.03     61.42
117.97   3686.00     60.71
118.07   3159.67     56.21
118.17   2887.00     53.73
118.27   2408.12     49.07
118.37   2191.00     46.81
118.47   2000.00     44.72
118.57   1704.00     41.28
118.67   1480.61     38.48
118.77   1391.56     37.30
118.87   1233.00     35.11
118.97   1071.00     32.73
119.07   1007.00     31.73
119.17    921.00     30.35
119.27    849.99     29.15
119.37    842.86     29.03
119.47    764.03     27.64
119.57    702.00     26.50
119.67    720.00     26.83
119.77    657.00     25.63
119.87    631.00     25.12
119.97    571.00     23.90
120.07    611.00     24.72
120.17    599.00     24.47
120.27    603.94     24.58
120.37    549.54     23.44
120.47    536.00     23.15
120.57    568.85     23.85
120.67    595.06     24.39
120.77    557.00     23.60
120.87    583.00     24.15
120.97    612.01     24.74
121.07    580.81     24.10
121.17    527.85     22.98
121.27    544.00     23.32
121.37    556.78     23.60
121.47    621.39     24.93
121.57    611.05     24.72
121.67    581.00     24.10
121.77    557.70     23.62
121.87    592.00     24.33
121.97    565.22     23.77
122.07    647.11     25.44
122.17    616.00     24.82
122.27    648.00     25.46
122.37    594.00     24.37
122.47    603.00     24.56
122.57    628.13     25.06
122.67    617.00     24.84
122.77    603.99     24.58
122.87    636.14     25.22
122.97    615.00     24.80
123.07    647.00     25.44
123.17    631.00     25.12
123.27    603.76     24.57
123.37    679.00     26.06
123.47    614.60     24.79
123.57    655.00     25.59
123.67    622.00     24.94
123.77    663.79     25.76
123.87    649.00     25.48
123.97    603.13     24.56
124.07    595.39     24.40
124.17    641.00     25.32
124.27    619.97     24.90
124.37    642.00     25.34
124.47    589.31     24.28
124.57    606.00     24.62
124.67    563.00     23.73
124.77    616.37     24.83
124.87    572.00     23.92
124.97    567.00     23.81
