XYDATA



INTER 1.0 1.0 0 0
TEMP 1074.0
  9.97    607.00     24.64
 10.07    583.97     24.17
 10.17    584.00     24.17
 10.27    610.00     24.70
 10.37    599.70     24.49
 10.47    534.44     23.12
 10.57    603.95     24.58
 10.67    590.47     24.30
 10.77    529.82     23.02
 10.87    570.00     23.87
 10.97    624.00     24.98
 11.07    604.06     24.58
 11.17    599.00     24.47
 11.27    570.34     23.88
 11.37    609.00     24.68
 11.47    575.29     23.99
 11.57    580.27     24.09
 11.67    605.59     24.61
 11.77    614.40     24.79
 11.87    632.00     25.14
 11.97    662.00     25.73
 12.07    690.00     26.27
 12.17    720.00     26.83
 12.27    673.00     25.94
 12.37    654.71     25.59
 12.47    632.00     25.14
 12.57    647.51     25.45
 12.67    619.00     24.88
 12.77    573.00     23.94
 12.87    579.61     24.08
 12.97    583.00     24.15
 13.07    575.00     23.98
 13.17    537.00     23.17
 13.27    555.92     23.58
 13.37    587.73     24.24
 13.47    555.00     23.56
 13.57    602.71     24.55
 13.67    582.53     24.14
 13.77    527.91     22.98
 13.87    589.00     24.27
 13.97    583.22     24.15
 14.07    544.42     23.33
 14.17    588.00     24.25
 14.27    560.00     23.66
 14.37    606.00     24.62
 14.47    576.00     24.00
 14.57    539.00     23.22
 14.67    557.00     23.60
 14.77    581.00     24.10
 14.87    522.16     22.85
 14.97    535.54     23.14
 15.07    548.03     23.41
 15.17    546.65     23.38
 15.27    544.00     23.32
 15.37    580.67     24.10
 15.47    598.00     24.45
 15.57    616.00     24.82
 15.67    551.00     23.47
 15.77    579.61     24.08
 15.87    543.09     23.30
 15.97    562.00     23.71
 16.07    569.00     23.85
 16.17    577.00     24.02
 16.27    562.00     23.71
 16.37    511.00     22.61
 16.47    574.64     23.97
 16.57    550.00     23.45
 16.67    587.00     24.23
 16.77    557.14     23.60
 16.87    555.00     23.56
 16.97    526.00     22.93
 17.07    565.00     23.77
 17.17    517.00     22.74
 17.27    546.00     23.37
 17.37    596.00     24.41
 17.47    520.80     22.82
 17.57    590.00     24.29
 17.67    526.00     22.93
 17.77    603.00     24.56
 17.87    531.63     23.06
 17.97    559.00     23.64
 18.07    555.00     23.56
 18.17    541.00     23.26
 18.27    600.00     24.49
 18.37    537.33     23.18
 18.47    589.00     24.27
 18.57    503.00     22.43
 18.67    593.00     24.35
 18.77    575.00     23.98
 18.87    556.00     23.58
 18.97    512.93     22.65
 19.07    579.00     24.06
 19.17    552.00     23.49
 19.27    542.00     23.28
 19.37    513.38     22.66
 19.47    534.75     23.12
 19.57    567.00     23.81
 19.67    538.79     23.21
 19.77    580.00     24.08
 19.87    580.00     24.08
 19.97    551.00     23.47
 20.07    590.60     24.30
 20.17    558.00     23.62
 20.27    573.27     23.94
 20.37    587.20     24.23
 20.47    541.83     23.28
 20.57    584.00     24.17
 20.67    589.24     24.27
 20.77    548.00     23.41
 20.87    526.00     22.93
 20.97    555.00     23.56
 21.07    552.43     23.50
 21.17    560.00     23.66
 21.27    568.00     23.83
 21.37    574.92     23.98
 21.47    557.00     23.60
 21.57    568.00     23.83
 21.67    520.84     22.82
 21.77    585.00     24.19
 21.87    563.00     23.73
 21.97    545.00     23.35
 22.07    550.65     23.47
 22.17    538.00     23.19
 22.27    592.85     24.35
 22.37    531.07     23.04
 22.47    550.00     23.45
 22.57    526.00     22.93
 22.67    544.65     23.34
 22.77    590.00     24.29
 22.87    544.00     23.32
 22.97    531.41     23.05
 23.07    503.38     22.44
 23.17    592.38     24.34
 23.27    537.00     23.17
 23.37    567.00     23.81
 23.47    541.00     23.26
 23.57    558.00     23.62
 23.67    523.26     22.87
 23.77    542.00     23.28
 23.87    547.00     23.39
 23.97    554.00     23.54
 24.07    594.96     24.39
 24.17    549.00     23.43
 24.27    598.55     24.47
 24.37    552.64     23.51
 24.47    537.78     23.19
 24.57    652.00     25.53
 24.67    646.00     25.42
 24.77    579.00     24.06
 24.87    635.00     25.20
 24.97    571.00     23.90
 25.07    643.00     25.36
 25.17    578.00     24.04
 25.27    604.00     24.58
 25.37    529.34     23.01
 25.47    560.14     23.67
 25.57    529.00     23.00
 25.67    530.64     23.04
 25.77    530.00     23.02
 25.87    505.00     22.47
 25.97    559.50     23.65
 26.07    560.90     23.68
 26.17    551.00     23.47
 26.27    520.00     22.80
 26.37    568.00     23.83
 26.47    511.64     22.62
 26.57    524.11     22.89
 26.67    545.00     23.35
 26.77    546.00     23.37
 26.87    497.55     22.31
 26.97    549.00     23.43
 27.07    517.42     22.75
 27.17    508.00     22.54
 27.27    592.00     24.33
 27.37    553.00     23.52
 27.47    557.00     23.60
 27.57    554.15     23.54
 27.67    598.00     24.45
 27.77    536.16     23.16
 27.87    612.03     24.74
 27.97    670.00     25.88
 28.07    753.00     27.44
 28.17    864.62     29.40
 28.27    949.00     30.81
 28.37    952.00     30.85
 28.47    799.00     28.27
 28.57    677.00     26.02
 28.67    683.00     26.13
 28.77    717.00     26.78
 28.87    856.37     29.26
 28.97    809.00     28.44
 29.07    756.45     27.50
 29.17    649.00     25.48
 29.27    613.00     24.76
 29.37    600.00     24.49
 29.47    624.00     24.98
 29.57    573.00     23.94
 29.67    572.57     23.93
 29.77    569.00     23.85
 29.87    537.00     23.17
 29.97    569.25     23.86
 30.07    563.00     23.73
 30.17    583.00     24.15
 30.27    621.00     24.92
 30.37    555.71     23.57
 30.47    596.00     24.41
 30.57    592.00     24.33
 30.67    597.00     24.43
 30.77    545.00     23.35
 30.87    637.00     25.24
 30.97    576.00     24.00
 31.07    621.00     24.92
 31.17    538.29     23.20
 31.27    604.00     24.58
 31.37    576.00     24.00
 31.47    545.28     23.35
 31.57    553.60     23.53
 31.67    526.00     22.93
 31.77    572.93     23.94
 31.87    558.00     23.62
 31.97    501.94     22.40
 32.07    513.77     22.67
 32.17    526.63     22.95
 32.27    523.00     22.87
 32.37    573.00     23.94
 32.47    541.00     23.26
 32.57    547.00     23.39
 32.67    542.04     23.28
 32.77    492.21     22.19
 32.87    500.02     22.36
 32.97    594.00     24.37
 33.07    508.69     22.55
 33.17    522.00     22.85
 33.27    542.22     23.29
 33.37    550.00     23.45
 33.47    551.00     23.47
 33.57    572.00     23.92
 33.67    604.22     24.58
 33.77    728.00     26.98
 33.87    920.94     30.35
 33.97    996.00     31.56
 34.07   1094.63     33.09
 34.17   1028.00     32.06
 34.27    887.00     29.78
 34.37    751.00     27.40
 34.47    653.00     25.55
 34.57    579.93     24.08
 34.67    577.00     24.02
 34.77    521.05     22.83
 34.87    519.00     22.78
 34.97    550.00     23.45
 35.07    528.00     22.98
 35.17    490.00     22.14
 35.27    515.00     22.69
 35.37    543.56     23.31
 35.47    521.00     22.83
 35.57    542.18     23.28
 35.67    551.00     23.47
 35.77    516.86     22.73
 35.87    580.00     24.08
 35.97    550.56     23.46
 36.07    524.00     22.89
 36.17    520.00     22.80
 36.27    486.72     22.06
 36.37    473.00     21.75
 36.47    474.15     21.77
 36.57    530.00     23.02
 36.67    460.00     21.45
 36.77    515.30     22.70
 36.87    500.58     22.37
 36.97    550.93     23.47
 37.07    541.75     23.28
 37.17    518.00     22.76
 37.27    533.76     23.10
 37.37    488.69     22.11
 37.47    479.00     21.89
 37.57    536.00     23.15
 37.67    492.09     22.18
 37.77    513.86     22.67
 37.87    543.00     23.30
 37.97    553.51     23.53
 38.07    526.00     22.93
 38.17    498.00     22.32
 38.27    514.00     22.67
 38.37    449.00     21.19
 38.47    488.00     22.09
 38.57    533.37     23.09
 38.67    484.00     22.00
 38.77    506.00     22.49
 38.87    516.93     22.74
 38.97    504.00     22.45
 39.07    524.00     22.89
 39.17    500.00     22.36
 39.27    500.00     22.36
 39.37    547.80     23.41
 39.47    511.97     22.63
 39.57    532.00     23.07
 39.67    488.00     22.09
 39.77    473.13     21.75
 39.87    536.00     23.15
 39.97    479.00     21.89
 40.07    536.00     23.15
 40.17    523.68     22.88
 40.27    473.10     21.75
 40.37    528.79     23.00
 40.47    547.13     23.39
 40.57    487.00     22.07
 40.67    515.00     22.69
 40.77    546.05     23.37
 40.87    516.00     22.72
 40.97    528.81     23.00
 41.07    480.56     21.92
 41.17    462.00     21.49
 41.27    480.00     21.91
 41.37    482.46     21.97
 41.47    476.00     21.82
 41.57    492.00     22.18
 41.67    453.00     21.28
 41.77    533.80     23.10
 41.87    457.00     21.38
 41.97    527.00     22.96
 42.07    519.00     22.78
 42.17    529.86     23.02
 42.27    566.67     23.80
 42.37    559.00     23.64
 42.47    543.00     23.30
 42.57    604.00     24.58
 42.67    634.00     25.18
 42.77    631.00     25.12
 42.87    622.00     24.94
 42.97    615.08     24.80
 43.07    532.00     23.07
 43.17    522.00     22.85
 43.27    518.00     22.76
 43.37    518.36     22.77
 43.47    476.00     21.82
 43.57    492.00     22.18
 43.67    505.99     22.49
 43.77    549.00     23.43
 43.87    477.00     21.84
 43.97    514.13     22.67
 44.07    507.00     22.52
 44.17    511.00     22.61
 44.27    530.00     23.02
 44.37    480.00     21.91
 44.47    502.38     22.41
 44.57    524.00     22.89
 44.67    516.00     22.72
 44.77    525.52     22.92
 44.87    492.00     22.18
 44.97    531.14     23.05
 45.07    511.18     22.61
 45.17    500.00     22.36
 45.27    494.00     22.23
 45.37    488.31     22.10
 45.47    507.00     22.52
 45.57    466.71     21.60
 45.67    494.00     22.23
 45.77    548.09     23.41
 45.87    538.41     23.20
 45.97    478.00     21.86
 46.07    463.00     21.52
 46.17    485.00     22.02
 46.27    514.60     22.68
 46.37    509.38     22.57
 46.47    541.11     23.26
 46.57    505.00     22.47
 46.67    532.00     23.07
 46.77    505.60     22.49
 46.87    545.00     23.35
 46.97    509.19     22.57
 47.07    489.70     22.13
 47.17    530.30     23.03
 47.27    545.00     23.35
 47.37    541.00     23.26
 47.47    536.00     23.15
 47.57    559.00     23.64
 47.67    562.21     23.71
 47.77    617.00     24.84
 47.87    619.75     24.89
 47.97    601.00     24.52
 48.07    607.00     24.64
 48.17    600.24     24.50
 48.27    541.00     23.26
 48.37    545.00     23.35
 48.47    536.61     23.16
 48.57    557.81     23.62
 48.67    508.00     22.54
 48.77    578.25     24.05
 48.87    545.00     23.35
 48.97    553.69     23.53
 49.07    529.00     23.00
 49.17    554.00     23.54
 49.27    570.00     23.87
 49.37    601.00     24.52
 49.47    676.00     26.00
 49.57    719.00     26.81
 49.67    883.00     29.72
 49.77   1154.95     33.98
 49.87   1468.00     38.31
 49.97   1899.89     43.59
 50.07   2205.00     46.96
 50.17   2409.61     49.09
 50.27   2501.86     50.02
 50.37   2254.00     47.48
 50.47   1901.00     43.60
 50.57   1410.69     37.56
 50.67   1060.60     32.57
 50.77    832.98     28.86
 50.87    709.00     26.63
 50.97    697.00     26.40
 51.07    623.79     24.98
 51.17    627.00     25.04
 51.27    602.00     24.54
 51.37    589.88     24.29
 51.47    533.00     23.09
 51.57    591.00     24.31
 51.67    569.00     23.85
 51.77    574.25     23.96
 51.87    540.23     23.24
 51.97    520.99     22.83
 52.07    571.00     23.90
 52.17    531.00     23.04
 52.27    498.66     22.33
 52.37    542.00     23.28
 52.47    535.89     23.15
 52.57    599.00     24.47
 52.67    568.42     23.84
 52.77    626.00     25.02
 52.87    606.55     24.63
 52.97    755.53     27.49
 53.07    791.78     28.14
 53.17    960.56     30.99
 53.27   1044.67     32.32
 53.37   1102.00     33.20
 53.47   1149.00     33.90
 53.57   1207.00     34.74
 53.67   1068.00     32.68
 53.77    977.53     31.27
 53.87    862.00     29.36
 53.97    735.36     27.12
 54.07    709.15     26.63
 54.17    605.00     24.60
 54.27    604.00     24.58
 54.37    571.00     23.90
 54.47    552.40     23.50
 54.57    597.00     24.43
 54.67    552.00     23.49
 54.77    567.61     23.82
 54.87    539.00     23.22
 54.97    629.00     25.08
 55.07    540.32     23.24
 55.17    588.48     24.26
 55.27    582.96     24.14
 55.37    568.00     23.83
 55.47    585.00     24.19
 55.57    579.48     24.07
 55.67    532.00     23.07
 55.77    593.03     24.35
 55.87    579.00     24.06
 55.97    651.00     25.51
 56.07    690.00     26.27
 56.17    774.02     27.82
 56.27    849.00     29.14
 56.37   1193.58     34.55
 56.47   1520.82     39.00
 56.57   1815.00     42.60
 56.67   2207.00     46.98
 56.77   2427.00     49.26
 56.87   2552.23     50.52
 56.97   2593.18     50.92
 57.07   2407.39     49.07
 57.17   2024.29     44.99
 57.27   1641.68     40.52
 57.37   1255.08     35.43
 57.47   1041.00     32.26
 57.57    865.59     29.42
 57.67    760.00     27.57
 57.77    743.00     27.26
 57.87    689.00     26.25
 57.97    673.00     25.94
 58.07    726.90     26.96
 58.17    708.00     26.61
 58.27    790.00     28.11
 58.37    834.00     28.88
 58.47    967.76     31.11
 58.57   1038.00     32.22
 58.67   1103.00     33.21
 58.77   1217.00     34.89
 58.87   1380.59     37.16
 58.97   1436.00     37.89
 59.07   1408.73     37.53
 59.17   1400.37     37.42
 59.27   1371.39     37.03
 59.37   1348.34     36.72
 59.47   1280.00     35.78
 59.57   1239.00     35.20
 59.67   1140.00     33.76
 59.77   1125.29     33.55
 59.87   1126.96     33.57
 59.97   1343.00     36.65
 60.07   1497.00     38.69
 60.17   1491.00     38.61
 60.27   1580.00     39.75
 60.37   1464.00     38.26
 60.47   1435.08     37.88
 60.57   1280.00     35.78
 60.67   1094.00     33.08
 60.77    945.00     30.74
 60.87    741.00     27.22
 60.97    712.00     26.68
 61.07    678.00     26.04
 61.17    678.00     26.04
 61.27    674.00     25.96
 61.37    648.00     25.46
 61.47    695.00     26.36
 61.57    723.00     26.89
 61.67    833.00     28.86
 61.77    944.00     30.72
 61.87   1111.00     33.33
 61.97   1303.15     36.10
 62.07   1325.00     36.40
 62.17   1383.00     37.19
 62.27   1334.00     36.52
 62.37   1326.00     36.41
 62.47   1244.89     35.28
 62.57   1021.18     31.96
 62.67    951.00     30.84
 62.77    740.00     27.20
 62.87    714.20     26.72
 62.97    658.24     25.66
 63.07    608.00     24.66
 63.17    568.22     23.84
 63.27    603.28     24.56
 63.37    583.00     24.15
 63.47    615.00     24.80
 63.57    585.00     24.19
 63.67    565.86     23.79
 63.77    618.00     24.86
 63.87    608.00     24.66
 63.97    671.25     25.91
 64.07    699.00     26.44
 64.17    804.00     28.35
 64.27    810.00     28.46
 64.37    922.00     30.36
 64.47    955.85     30.92
 64.57   1032.00     32.12
 64.67    976.86     31.25
 64.77   1013.00     31.83
 64.87    957.00     30.94
 64.97    871.38     29.52
 65.07    818.20     28.60
 65.17    769.00     27.73
 65.27    731.51     27.05
 65.37    703.00     26.51
 65.47    633.00     25.16
 65.57    642.87     25.35
 65.67    572.79     23.93
 65.77    613.00     24.76
 65.87    554.00     23.54
 65.97    561.00     23.69
 66.07    547.00     23.39
 66.17    551.01     23.47
 66.27    585.00     24.19
 66.37    529.00     23.00
 66.47    569.53     23.86
 66.57    574.15     23.96
 66.67    606.64     24.63
 66.77    614.31     24.79
 66.87    607.00     24.64
 66.97    642.13     25.34
 67.07    630.00     25.10
 67.17    661.00     25.71
 67.27    809.84     28.46
 67.37    947.00     30.77
 67.47   1092.00     33.05
 67.57   1280.00     35.78
 67.67   1603.00     40.04
 67.77   1812.00     42.57
 67.87   2014.83     44.89
 67.97   2309.00     48.05
 68.07   2514.00     50.14
 68.17   2392.00     48.91
 68.27   2262.00     47.56
 68.37   2035.00     45.11
 68.47   1770.00     42.07
 68.57   1531.00     39.13
 68.67   1323.14     36.38
 68.77   1042.00     32.28
 68.87    898.92     29.98
 68.97    831.90     28.84
 69.07    668.61     25.86
 69.17    688.55     26.24
 69.27    637.00     25.24
 69.37    643.00     25.36
 69.47    596.00     24.41
 69.57    605.73     24.61
 69.67    609.00     24.68
 69.77    568.32     23.84
 69.87    635.00     25.20
 69.97    537.35     23.18
 70.07    574.00     23.96
 70.17    556.00     23.58
 70.27    558.00     23.62
 70.37    584.22     24.17
 70.47    527.00     22.96
 70.57    592.47     24.34
 70.67    600.00     24.49
 70.77    586.00     24.21
 70.87    629.28     25.09
 70.97    664.00     25.77
 71.07    643.00     25.36
 71.17    696.73     26.40
 71.27    875.11     29.58
 71.37    949.00     30.81
 71.47   1072.00     32.74
 71.57   1223.69     34.98
 71.67   1480.00     38.47
 71.77   1583.00     39.79
 71.87   1847.22     42.98
 71.97   1883.30     43.40
 72.07   1907.00     43.67
 72.17   1818.00     42.64
 72.27   1749.00     41.82
 72.37   1718.00     41.45
 72.47   1471.00     38.35
 72.57   1302.00     36.08
 72.67   1127.00     33.57
 72.77    993.00     31.51
 72.87    888.00     29.80
 72.97    833.00     28.86
 73.07    812.83     28.51
 73.17    787.24     28.06
 73.27    646.00     25.42
 73.37    675.00     25.98
 73.47    606.00     24.62
 73.57    636.00     25.22
 73.67    579.71     24.08
 73.77    555.00     23.56
 73.87    570.18     23.88
 73.97    609.12     24.68
 74.07    592.00     24.33
 74.17    548.62     23.42
 74.27    584.65     24.18
 74.37    575.91     24.00
 74.47    674.00     25.96
 74.57    609.00     24.68
 74.67    652.00     25.53
 74.77    683.00     26.13
 74.87    608.00     24.66
 74.97    588.00     24.25
 75.07    598.00     24.45
 75.17    568.00     23.83
 75.27    604.00     24.58
 75.37    575.00     23.98
 75.47    581.00     24.10
 75.57    579.00     24.06
 75.67    540.00     23.24
 75.77    610.00     24.70
 75.87    559.89     23.66
 75.97    624.00     24.98
 76.07    673.00     25.94
 76.17    679.00     26.06
 76.27    660.00     25.69
 76.37    711.23     26.67
 76.47    692.00     26.31
 76.57    715.00     26.74
 76.67    734.13     27.09
 76.77    711.16     26.67
 76.87    609.00     24.68
 76.97    659.00     25.67
 77.07    607.00     24.64
 77.17    591.10     24.31
 77.27    542.00     23.28
 77.37    565.00     23.77
 77.47    551.00     23.47
 77.57    522.00     22.85
 77.67    455.00     21.33
 77.77    540.00     23.24
 77.87    500.00     22.36
 77.97    511.00     22.61
 78.07    500.00     22.36
 78.17    521.00     22.83
 78.27    528.14     22.98
 78.37    513.00     22.65
 78.47    509.00     22.56
 78.57    491.66     22.17
 78.67    485.00     22.02
 78.77    522.79     22.86
 78.87    492.93     22.20
 78.97    490.18     22.14
 79.07    481.00     21.93
 79.17    486.44     22.06
 79.27    493.00     22.20
 79.37    535.00     23.13
 79.47    516.97     22.74
 79.57    496.00     22.27
 79.67    518.14     22.76
 79.77    542.00     23.28
 79.87    555.00     23.56
 79.97    528.00     22.98
 80.07    587.00     24.23
 80.17    536.00     23.15
 80.27    545.00     23.35
 80.37    592.00     24.33
 80.47    566.00     23.79
 80.57    579.00     24.06
 80.67    585.00     24.19
 80.77    670.00     25.88
 80.87    660.00     25.69
 80.97    687.00     26.21
 81.07    734.00     27.09
 81.17    781.15     27.95
 81.27    796.00     28.21
 81.37    801.00     28.30
 81.47    746.00     27.31
 81.57    692.64     26.32
 81.67    693.59     26.34
 81.77    746.00     27.31
 81.87    670.77     25.90
 81.97    733.00     27.07
 82.07    666.00     25.81
 82.17    649.00     25.48
 82.27    646.00     25.42
 82.37    609.21     24.68
 82.47    612.00     24.74
 82.57    626.00     25.02
 82.67    608.11     24.66
 82.77    525.00     22.91
 82.87    516.00     22.72
 82.97    564.00     23.75
 83.07    525.01     22.91
 83.17    552.00     23.49
 83.27    542.00     23.28
 83.37    584.92     24.19
 83.47    544.00     23.32
 83.57    555.00     23.56
 83.67    549.00     23.43
 83.77    526.28     22.94
 83.87    578.52     24.05
 83.97    579.00     24.06
 84.07    552.00     23.49
 84.17    590.04     24.29
 84.27    569.00     23.85
 84.37    537.00     23.17
 84.47    570.00     23.87
 84.57    517.88     22.76
 84.67    579.96     24.08
 84.77    537.00     23.17
 84.87    559.94     23.66
 84.97    534.22     23.11
 85.07    527.00     22.96
 85.17    550.84     23.47
 85.27    522.00     22.85
 85.37    521.00     22.83
 85.47    512.74     22.64
 85.57    496.89     22.29
 85.67    548.97     23.43
 85.77    540.00     23.24
 85.87    559.00     23.64
 85.97    501.00     22.38
 86.07    582.00     24.12
 86.17    512.00     22.63
 86.27    549.00     23.43
 86.37    562.00     23.71
 86.47    576.00     24.00
 86.57    534.59     23.12
 86.67    529.20     23.00
 86.77    575.63     23.99
 86.87    601.00     24.52
 86.97    652.00     25.53
 87.07    615.87     24.82
 87.17    582.00     24.12
 87.27    666.00     25.81
 87.37    640.00     25.30
 87.47    646.56     25.43
 87.57    622.00     24.94
 87.67    628.91     25.08
 87.77    624.00     24.98
 87.87    609.16     24.68
 87.97    630.00     25.10
 88.07    580.78     24.10
 88.17    577.00     24.02
 88.27    569.61     23.87
 88.37    567.00     23.81
 88.47    528.94     23.00
 88.57    556.00     23.58
 88.67    593.30     24.36
 88.77    571.00     23.90
 88.87    574.00     23.96
 88.97    605.00     24.60
 89.07    590.00     24.29
 89.17    576.00     24.00
 89.27    618.00     24.86
 89.37    591.00     24.31
 89.47    578.33     24.05
 89.57    599.00     24.47
 89.67    575.00     23.98
 89.77    618.00     24.86
 89.87    551.00     23.47
 89.97    587.68     24.24
 90.07    576.36     24.01
 90.17    580.00     24.08
 90.27    511.00     22.61
 90.37    512.32     22.63
 90.47    571.75     23.91
 90.57    501.00     22.38
 90.67    506.69     22.51
 90.77    539.00     23.22
 90.87    529.58     23.01
 90.97    521.00     22.83
 91.07    484.90     22.02
 91.17    515.00     22.69
 91.27    524.00     22.89
 91.37    501.11     22.39
 91.47    485.53     22.03
 91.57    509.00     22.56
 91.67    566.55     23.80
 91.77    507.00     22.52
 91.87    513.00     22.65
 91.97    584.77     24.18
 92.07    572.59     23.93
 92.17    550.79     23.47
 92.27    540.00     23.24
 92.37    560.63     23.68
 92.47    564.00     23.75
 92.57    629.42     25.09
 92.67    637.50     25.25
 92.77    707.00     26.59
 92.87    671.00     25.90
 92.97    636.00     25.22
 93.07    781.00     27.95
 93.17    737.00     27.15
 93.27    795.00     28.20
 93.37    736.04     27.13
 93.47    821.00     28.65
 93.57    759.66     27.56
 93.67    833.00     28.86
 93.77    778.95     27.91
 93.87    807.23     28.41
 93.97    861.00     29.34
 94.07    845.00     29.07
 94.17    821.52     28.66
 94.27    897.00     29.95
 94.37    841.00     29.00
 94.47    848.81     29.13
 94.57    815.92     28.56
 94.67    923.00     30.38
 94.77    934.00     30.56
 94.87    947.00     30.77
 94.97    885.01     29.75
 95.07    892.73     29.88
 95.17    916.00     30.27
 95.27    777.51     27.88
 95.37    830.00     28.81
 95.47    766.00     27.68
 95.57    740.46     27.21
 95.67    738.00     27.17
 95.77    734.77     27.11
 95.87    672.03     25.92
 95.97    699.00     26.44
 96.07    705.00     26.55
 96.17    703.00     26.51
 96.27    726.85     26.96
 96.37    785.00     28.02
 96.47    802.00     28.32
 96.57    879.75     29.66
 96.67    948.73     30.80
 96.77   1041.00     32.26
 96.87   1058.08     32.53
 96.97   1178.25     34.33
 97.07   1168.00     34.18
 97.17   1335.72     36.55
 97.27   1397.00     37.38
 97.37   1348.00     36.72
 97.47   1362.00     36.91
 97.57   1436.63     37.90
 97.67   1362.75     36.92
 97.77   1365.00     36.95
 97.87   1302.00     36.08
 97.97   1260.00     35.50
 98.07   1261.59     35.52
 98.17   1164.73     34.13
 98.27   1083.00     32.91
 98.37   1042.45     32.29
 98.47    967.20     31.10
 98.57    856.15     29.26
 98.67    871.00     29.51
 98.77    804.00     28.35
 98.87    838.90     28.96
 98.97    832.00     28.84
 99.07    852.00     29.19
 99.17    872.00     29.53
 99.27    897.00     29.95
 99.37    954.00     30.89
 99.47   1068.55     32.69
 99.57   1105.93     33.26
 99.67   1257.80     35.47
 99.77   1256.12     35.44
 99.87   1504.00     38.78
 99.97   1534.14     39.17
100.07   1636.74     40.46
100.17   1630.00     40.37
100.27   1756.91     41.92
100.37   1953.00     44.19
100.47   2060.00     45.39
100.57   1922.26     43.84
100.67   2103.85     45.87
100.77   2054.00     45.32
100.87   2023.00     44.98
100.97   1978.00     44.47
101.07   1925.00     43.87
101.17   1803.00     42.46
101.27   1749.00     41.82
101.37   1571.00     39.64
101.47   1640.00     40.50
101.57   1548.21     39.35
101.67   1452.66     38.11
101.77   1318.00     36.30
101.87   1373.57     37.06
101.97   1223.00     34.97
102.07   1180.00     34.35
102.17   1098.00     33.14
102.27   1122.87     33.51
102.37   1143.00     33.81
102.47   1112.98     33.36
102.57   1081.34     32.88
102.67   1061.00     32.57
102.77   1007.00     31.73
102.87   1041.50     32.27
102.97    927.00     30.45
103.07    920.00     30.33
103.17    861.36     29.35
103.27    820.00     28.64
103.37    857.28     29.28
103.47    721.02     26.85
103.57    730.24     27.02
103.67    689.00     26.25
103.77    719.41     26.82
103.87    684.00     26.15
103.97    628.00     25.06
104.07    627.62     25.05
104.17    602.00     24.54
104.27    579.00     24.06
104.37    534.00     23.11
104.47    602.00     24.54
104.57    567.00     23.81
104.67    578.00     24.04
104.77    490.50     22.15
104.87    557.17     23.60
104.97    544.00     23.32
105.07    547.00     23.39
105.17    540.00     23.24
105.27    517.13     22.74
105.37    520.14     22.81
105.47    566.00     23.79
105.57    491.23     22.16
105.67    567.96     23.83
105.77    545.00     23.35
105.87    539.00     23.22
105.97    573.61     23.95
106.07    564.00     23.75
106.17    608.00     24.66
106.27    596.00     24.41
106.37    589.00     24.27
106.47    569.00     23.85
106.57    571.00     23.90
106.67    645.00     25.40
106.77    692.00     26.31
106.87    660.00     25.69
106.97    618.00     24.86
107.07    642.00     25.34
107.17    674.63     25.97
107.27    679.00     26.06
107.37    660.30     25.70
107.47    716.83     26.77
107.57    753.01     27.44
107.67    693.00     26.32
107.77    687.88     26.23
107.87    670.38     25.89
107.97    639.00     25.28
108.07    660.66     25.70
108.17    687.00     26.21
108.27    682.00     26.12
108.37    715.75     26.75
108.47    682.00     26.12
108.57    721.59     26.86
108.67    690.00     26.27
108.77    646.08     25.42
108.87    646.29     25.42
108.97    661.00     25.71
109.07    660.57     25.70
109.17    684.00     26.15
109.27    692.00     26.31
109.37    691.26     26.29
109.47    658.00     25.65
109.57    624.00     24.98
109.67    639.00     25.28
109.77    626.00     25.02
109.87    590.17     24.29
109.97    589.00     24.27
110.07    593.00     24.35
110.17    630.00     25.10
110.27    561.16     23.69
110.37    587.00     24.23
110.47    569.00     23.85
110.57    521.00     22.83
110.67    512.31     22.63
110.77    509.85     22.58
110.87    565.00     23.77
110.97    541.00     23.26
111.07    548.21     23.41
111.17    525.00     22.91
111.27    538.00     23.19
111.37    543.00     23.30
111.47    557.00     23.60
111.57    537.00     23.17
111.67    514.42     22.68
111.77    547.00     23.39
111.87    537.00     23.17
111.97    584.00     24.17
112.07    551.70     23.49
112.17    545.00     23.35
112.27    536.00     23.15
112.37    570.00     23.87
112.47    587.33     24.23
112.57    602.00     24.54
112.67    584.00     24.17
112.77    618.00     24.86
112.87    661.22     25.71
112.97    636.00     25.22
113.07    635.00     25.20
113.17    728.51     26.99
113.27    749.67     27.38
113.37    675.57     25.99
113.47    727.79     26.98
113.57    827.00     28.76
113.67    785.00     28.02
113.77    868.23     29.47
113.87    901.00     30.02
113.97    939.68     30.65
114.07    909.67     30.16
114.17   1006.00     31.72
114.27   1042.00     32.28
114.37   1226.00     35.01
114.47   1262.00     35.52
114.57   1461.00     38.22
114.67   1558.22     39.47
114.77   1625.02     40.31
114.87   1923.00     43.85
114.97   1946.25     44.12
115.07   2194.76     46.85
115.17   2464.59     49.64
115.27   2868.00     53.55
115.37   3163.00     56.24
115.47   3500.00     59.16
115.57   3735.00     61.11
115.67   4259.00     65.26
115.77   4499.10     67.08
115.87   4922.88     70.16
115.97   5247.12     72.44
116.07   5627.00     75.01
116.17   5951.00     77.14
116.27   6392.45     79.95
116.37   6584.00     81.14
116.47   6784.00     82.37
116.57   6744.50     82.12
116.67   6892.00     83.02
116.77   6899.00     83.06
116.87   6800.84     82.47
116.97   6439.00     80.24
117.07   6347.00     79.67
117.17   6100.57     78.11
117.27   5759.59     75.89
117.37   5213.00     72.20
117.47   5111.03     71.49
117.57   4579.00     67.67
117.67   4245.00     65.15
117.77   3875.78     62.26
117.87   3620.00     60.17
117.97   3203.00     56.60
118.07   2855.00     53.43
118.17   2554.00     50.54
118.27   2297.00     47.93
118.37   1938.00     44.02
118.47   1755.00     41.89
118.57   1628.05     40.35
118.67   1424.00     37.74
118.77   1272.00     35.67
118.87   1142.00     33.79
118.97   1046.00     32.34
119.07    942.00     30.69
119.17    866.00     29.43
119.27    827.00     28.76
119.37    749.00     27.37
119.47    756.00     27.50
119.57    693.00     26.32
119.67    736.25     27.13
119.77    652.12     25.54
119.87    601.00     24.52
119.97    612.00     24.74
120.07    623.32     24.97
120.17    582.00     24.12
120.27    628.00     25.06
120.37    586.00     24.21
120.47    565.00     23.77
120.57    593.00     24.35
120.67    607.00     24.64
120.77    590.00     24.29
120.87    581.00     24.10
120.97    531.07     23.04
121.07    551.00     23.47
121.17    579.93     24.08
121.27    510.00     22.58
121.37    566.00     23.79
121.47    577.00     24.02
121.57    558.00     23.62
121.67    625.00     25.00
121.77    563.67     23.74
121.87    584.00     24.17
121.97    602.00     24.54
122.07    608.00     24.66
122.17    627.01     25.04
122.27    626.00     25.02
122.37    573.00     23.94
122.47    599.00     24.47
122.57    654.00     25.57
122.67    606.00     24.62
122.77    636.00     25.22
122.87    628.00     25.06
122.97    663.50     25.76
123.07    667.00     25.83
123.17    627.00     25.04
123.27    642.39     25.35
123.37    625.00     25.00
123.47    667.59     25.84
123.57    678.94     26.06
123.67    612.00     24.74
123.77    620.00     24.90
123.87    601.80     24.53
123.97    618.00     24.86
124.07    640.00     25.30
124.17    604.00     24.58
124.27    683.00     26.13
124.37    558.65     23.64
124.47    624.00     24.98
124.57    630.63     25.11
124.67    591.00     24.31
124.77    609.00     24.68
124.87    567.00     23.81
124.97    604.00     24.58
