XYDATA



INTER 1.0 1.0 0 0
TEMP 634.383
  9.97    720.00     26.83
 10.07    698.00     26.42
 10.17    688.00     26.23
 10.27    710.00     26.65
 10.37    670.00     25.88
 10.47    662.00     25.73
 10.57    713.00     26.70
 10.67    699.00     26.44
 10.77    651.01     25.51
 10.87    685.00     26.17
 10.97    623.02     24.96
 11.07    689.00     26.25
 11.17    674.00     25.96
 11.27    686.00     26.19
 11.37    682.00     26.12
 11.47    734.00     27.09
 11.57    679.83     26.07
 11.67    710.88     26.66
 11.77    708.00     26.61
 11.87    715.00     26.74
 11.97    682.98     26.13
 12.07    673.24     25.95
 12.17    831.00     28.83
 12.27    764.29     27.65
 12.37    770.00     27.75
 12.47    806.32     28.40
 12.57    683.00     26.13
 12.67    704.99     26.55
 12.77    664.47     25.78
 12.87    640.57     25.31
 12.97    659.00     25.67
 13.07    688.85     26.25
 13.17    629.13     25.08
 13.27    567.00     23.81
 13.37    637.00     25.24
 13.47    635.00     25.20
 13.57    636.00     25.22
 13.67    627.00     25.04
 13.77    631.00     25.12
 13.87    613.00     24.76
 13.97    650.00     25.50
 14.07    635.00     25.20
 14.17    658.00     25.65
 14.27    615.00     24.80
 14.37    627.00     25.04
 14.47    588.00     24.25
 14.57    620.00     24.90
 14.67    663.00     25.75
 14.77    615.65     24.81
 14.87    672.00     25.92
 14.97    539.00     23.22
 15.07    627.25     25.04
 15.17    588.00     24.25
 15.27    580.00     24.08
 15.37    663.00     25.75
 15.47    631.00     25.12
 15.57    657.69     25.65
 15.67    636.00     25.22
 15.77    614.00     24.78
 15.87    655.00     25.59
 15.97    580.00     24.08
 16.07    653.61     25.57
 16.17    597.08     24.44
 16.27    650.00     25.50
 16.37    609.00     24.68
 16.47    658.00     25.65
 16.57    620.00     24.90
 16.67    622.00     24.94
 16.77    634.00     25.18
 16.87    594.00     24.37
 16.97    628.00     25.06
 17.07    628.51     25.07
 17.17    648.71     25.47
 17.27    637.00     25.24
 17.37    600.07     24.50
 17.47    630.00     25.10
 17.57    586.00     24.21
 17.67    606.00     24.62
 17.77    665.00     25.79
 17.87    642.38     25.35
 17.97    568.00     23.83
 18.07    665.00     25.79
 18.17    584.00     24.17
 18.27    597.00     24.43
 18.37    567.00     23.81
 18.47    636.00     25.22
 18.57    617.00     24.84
 18.67    586.74     24.22
 18.77    605.00     24.60
 18.87    585.00     24.19
 18.97    606.00     24.62
 19.07    585.00     24.19
 19.17    634.78     25.19
 19.27    583.00     24.15
 19.37    608.36     24.66
 19.47    604.00     24.58
 19.57    604.00     24.58
 19.67    650.08     25.50
 19.77    566.55     23.80
 19.87    560.00     23.66
 19.97    562.00     23.71
 20.07    604.00     24.58
 20.17    633.07     25.16
 20.27    566.00     23.79
 20.37    600.00     24.49
 20.47    595.00     24.39
 20.57    563.59     23.74
 20.67    600.17     24.50
 20.77    605.00     24.60
 20.87    564.00     23.75
 20.97    582.36     24.13
 21.07    578.00     24.04
 21.17    586.56     24.22
 21.27    627.00     25.04
 21.37    661.00     25.71
 21.47    555.00     23.56
 21.57    583.00     24.15
 21.67    664.00     25.77
 21.77    593.00     24.35
 21.87    629.60     25.09
 21.97    583.61     24.16
 22.07    593.25     24.36
 22.17    576.00     24.00
 22.27    632.00     25.14
 22.37    584.26     24.17
 22.47    597.00     24.43
 22.57    595.00     24.39
 22.67    572.00     23.92
 22.77    635.00     25.20
 22.87    612.57     24.75
 22.97    651.28     25.52
 23.07    630.94     25.12
 23.17    574.57     23.97
 23.27    640.03     25.30
 23.37    560.43     23.67
 23.47    603.00     24.56
 23.57    568.04     23.83
 23.67    644.73     25.39
 23.77    644.00     25.38
 23.87    575.95     24.00
 23.97    664.00     25.77
 24.07    573.02     23.94
 24.17    650.69     25.51
 24.27    634.00     25.18
 24.37    610.97     24.72
 24.47    654.39     25.58
 24.57    662.28     25.73
 24.67    689.00     26.25
 24.77    690.00     26.27
 24.87    749.00     27.37
 24.97    704.00     26.53
 25.07    666.49     25.82
 25.17    650.00     25.50
 25.27    693.57     26.34
 25.37    633.93     25.18
 25.47    649.00     25.48
 25.57    624.00     24.98
 25.67    641.00     25.32
 25.77    611.00     24.72
 25.87    577.00     24.02
 25.97    641.00     25.32
 26.07    621.00     24.92
 26.17    659.00     25.67
 26.27    578.71     24.06
 26.37    610.24     24.70
 26.47    584.82     24.18
 26.57    591.09     24.31
 26.67    634.00     25.18
 26.77    603.00     24.56
 26.87    660.00     25.69
 26.97    625.00     25.00
 27.07    699.13     26.44
 27.17    657.00     25.63
 27.27    618.78     24.88
 27.37    624.48     24.99
 27.47    712.83     26.70
 27.57    730.00     27.02
 27.67    808.00     28.43
 27.77    833.74     28.87
 27.87    963.00     31.03
 27.97   1166.00     34.15
 28.07   1826.00     42.73
 28.17   2696.00     51.92
 28.27   4005.00     63.29
 28.37   5024.00     70.88
 28.47   5377.00     73.33
 28.57   4427.00     66.54
 28.67   3300.00     57.45
 28.77   2584.18     50.83
 28.87   2358.00     48.56
 28.97   2803.38     52.95
 29.07   3034.00     55.08
 29.17   3094.00     55.62
 29.27   2666.00     51.63
 29.37   1968.00     44.36
 29.47   1409.83     37.55
 29.57   1111.00     33.33
 29.67    888.48     29.81
 29.77    800.68     28.30
 29.87    852.00     29.19
 29.97    768.00     27.71
 30.07    711.00     26.66
 30.17    717.00     26.78
 30.27    770.00     27.75
 30.37    698.00     26.42
 30.47    639.00     25.28
 30.57    658.00     25.65
 30.67    605.41     24.61
 30.77    661.00     25.71
 30.87    728.28     26.99
 30.97    743.21     27.26
 31.07    696.00     26.38
 31.17    753.80     27.46
 31.27    722.00     26.87
 31.37    714.49     26.73
 31.47    692.47     26.31
 31.57    644.00     25.38
 31.67    649.00     25.48
 31.77    654.00     25.57
 31.87    635.00     25.20
 31.97    610.00     24.70
 32.07    566.04     23.79
 32.17    571.33     23.90
 32.27    645.00     25.40
 32.37    609.00     24.68
 32.47    588.00     24.25
 32.57    633.00     25.16
 32.67    633.90     25.18
 32.77    555.41     23.57
 32.87    575.00     23.98
 32.97    612.00     24.74
 33.07    609.40     24.69
 33.17    604.00     24.58
 33.27    624.00     24.98
 33.37    614.00     24.78
 33.47    636.00     25.22
 33.57    628.37     25.07
 33.67    656.00     25.61
 33.77    691.00     26.29
 33.87    741.00     27.22
 33.97    855.00     29.24
 34.07   1030.00     32.09
 34.17   1137.00     33.72
 34.27   1217.90     34.90
 34.37   1057.27     32.52
 34.47    949.31     30.81
 34.57    910.00     30.17
 34.67    763.32     27.63
 34.77    708.00     26.61
 34.87    618.47     24.87
 34.97    650.00     25.50
 35.07    645.00     25.40
 35.17    604.38     24.58
 35.27    616.00     24.82
 35.37    601.00     24.52
 35.47    582.96     24.14
 35.57    569.63     23.87
 35.67    595.00     24.39
 35.77    565.00     23.77
 35.87    574.85     23.98
 35.97    580.20     24.09
 36.07    586.00     24.21
 36.17    576.00     24.00
 36.27    576.00     24.00
 36.37    625.00     25.00
 36.47    539.00     23.22
 36.57    596.82     24.43
 36.67    588.00     24.25
 36.77    600.20     24.50
 36.87    590.00     24.29
 36.97    538.00     23.19
 37.07    524.00     22.89
 37.17    566.00     23.79
 37.27    603.42     24.56
 37.37    560.74     23.68
 37.47    561.00     23.69
 37.57    612.00     24.74
 37.67    587.84     24.25
 37.77    597.66     24.45
 37.87    592.10     24.33
 37.97    688.00     26.23
 38.07    669.25     25.87
 38.17    725.00     26.93
 38.27    681.00     26.10
 38.37    651.00     25.51
 38.47    674.00     25.96
 38.57    625.00     25.00
 38.67    640.00     25.30
 38.77    565.44     23.78
 38.87    555.45     23.57
 38.97    527.00     22.96
 39.07    585.99     24.21
 39.17    566.00     23.79
 39.27    549.53     23.44
 39.37    533.84     23.10
 39.47    572.00     23.92
 39.57    566.00     23.79
 39.67    552.64     23.51
 39.77    564.00     23.75
 39.87    570.00     23.87
 39.97    559.00     23.64
 40.07    604.00     24.58
 40.17    578.00     24.04
 40.27    540.00     23.24
 40.37    516.29     22.72
 40.47    596.76     24.43
 40.57    552.00     23.49
 40.67    512.00     22.63
 40.77    604.22     24.58
 40.87    597.00     24.43
 40.97    609.42     24.69
 41.07    564.00     23.75
 41.17    539.00     23.22
 41.27    548.96     23.43
 41.37    610.31     24.70
 41.47    525.00     22.91
 41.57    565.00     23.77
 41.67    515.26     22.70
 41.77    558.00     23.62
 41.87    564.00     23.75
 41.97    530.00     23.02
 42.07    576.98     24.02
 42.17    551.00     23.47
 42.27    537.00     23.17
 42.37    535.00     23.13
 42.47    597.00     24.43
 42.57    612.00     24.74
 42.67    641.93     25.34
 42.77    614.00     24.78
 42.87    684.00     26.15
 42.97    649.00     25.48
 43.07    727.15     26.97
 43.17    607.44     24.65
 43.27    682.16     26.12
 43.37    628.00     25.06
 43.47    619.00     24.88
 43.57    620.00     24.90
 43.67    568.00     23.83
 43.77    542.00     23.28
 43.87    574.00     23.96
 43.97    594.49     24.38
 44.07    530.44     23.03
 44.17    567.00     23.81
 44.27    560.00     23.66
 44.37    561.24     23.69
 44.47    570.00     23.87
 44.57    522.71     22.86
 44.67    520.00     22.80
 44.77    521.00     22.83
 44.87    572.92     23.94
 44.97    604.00     24.58
 45.07    561.00     23.69
 45.17    606.96     24.64
 45.27    548.00     23.41
 45.37    572.00     23.92
 45.47    580.82     24.10
 45.57    562.00     23.71
 45.67    530.00     23.02
 45.77    578.76     24.06
 45.87    574.61     23.97
 45.97    575.00     23.98
 46.07    513.18     22.65
 46.17    577.65     24.03
 46.27    586.67     24.22
 46.37    610.00     24.70
 46.47    575.00     23.98
 46.57    565.00     23.77
 46.67    601.74     24.53
 46.77    607.51     24.65
 46.87    570.00     23.87
 46.97    564.20     23.75
 47.07    553.00     23.52
 47.17    591.77     24.33
 47.27    541.92     23.28
 47.37    611.38     24.73
 47.47    583.00     24.15
 47.57    534.00     23.11
 47.67    590.00     24.29
 47.77    637.00     25.24
 47.87    610.00     24.70
 47.97    659.46     25.68
 48.07    637.00     25.24
 48.17    669.00     25.87
 48.27    666.00     25.81
 48.37    677.00     26.02
 48.47    616.00     24.82
 48.57    619.00     24.88
 48.67    614.00     24.78
 48.77    640.10     25.30
 48.87    598.00     24.45
 48.97    589.79     24.29
 49.07    603.00     24.56
 49.17    579.00     24.06
 49.27    578.00     24.04
 49.37    578.00     24.04
 49.47    593.03     24.35
 49.57    667.82     25.84
 49.67    641.00     25.32
 49.77    732.00     27.06
 49.87    844.00     29.05
 49.97   1011.00     31.80
 50.07   1338.00     36.58
 50.17   1751.00     41.84
 50.27   2177.00     46.66
 50.37   2562.78     50.62
 50.47   2729.15     52.24
 50.57   2899.47     53.85
 50.67   2449.86     49.50
 50.77   2131.00     46.16
 50.87   1640.00     40.50
 50.97   1254.00     35.41
 51.07   1006.00     31.72
 51.17    862.00     29.36
 51.27    766.00     27.68
 51.37    714.00     26.72
 51.47    675.48     25.99
 51.57    679.00     26.06
 51.67    699.91     26.46
 51.77    696.82     26.40
 51.87    664.00     25.77
 51.97    640.00     25.30
 52.07    652.00     25.53
 52.17    663.00     25.75
 52.27    677.00     26.02
 52.37    641.00     25.32
 52.47    676.00     26.00
 52.57    606.00     24.62
 52.67    668.90     25.86
 52.77    628.00     25.06
 52.87    599.55     24.49
 52.97    659.00     25.67
 53.07    719.79     26.83
 53.17    759.61     27.56
 53.27    790.85     28.12
 53.37    842.00     29.02
 53.47    892.00     29.87
 53.57    979.05     31.29
 53.67   1134.00     33.67
 53.77   1272.62     35.67
 53.87   1252.00     35.38
 53.97   1225.00     35.00
 54.07   1136.41     33.71
 54.17   1148.66     33.89
 54.27    911.00     30.18
 54.37    834.00     28.88
 54.47    763.23     27.63
 54.57    731.00     27.04
 54.67    694.26     26.35
 54.77    700.00     26.46
 54.87    657.00     25.63
 54.97    671.99     25.92
 55.07    656.00     25.61
 55.17    643.10     25.36
 55.27    664.00     25.77
 55.37    592.00     24.33
 55.47    588.87     24.27
 55.57    642.00     25.34
 55.67    637.00     25.24
 55.77    673.00     25.94
 55.87    613.00     24.76
 55.97    671.00     25.90
 56.07    665.00     25.79
 56.17    665.00     25.79
 56.27    723.00     26.89
 56.37    774.00     27.82
 56.47    846.81     29.10
 56.57    998.18     31.59
 56.67   1169.00     34.19
 56.77   1464.00     38.26
 56.87   1792.00     42.33
 56.97   2163.00     46.51
 57.07   2299.88     47.96
 57.17   2701.00     51.97
 57.27   2694.81     51.91
 57.37   2592.00     50.91
 57.47   2275.00     47.70
 57.57   2006.00     44.79
 57.67   1515.00     38.92
 57.77   1365.06     36.95
 57.87   1119.00     33.45
 57.97    919.00     30.32
 58.07    881.00     29.68
 58.17    835.00     28.90
 58.27    711.34     26.67
 58.37    765.00     27.66
 58.47    797.00     28.23
 58.57    820.00     28.64
 58.67    798.00     28.25
 58.77    876.74     29.61
 58.87    919.00     30.32
 58.97   1167.59     34.17
 59.07   1165.00     34.13
 59.17   1183.00     34.39
 59.27   1321.81     36.36
 59.37   1310.00     36.19
 59.47   1283.00     35.82
 59.57   1287.51     35.88
 59.67   1254.00     35.41
 59.77   1138.31     33.74
 59.87   1218.00     34.90
 59.97   1230.12     35.07
 60.07   1128.63     33.60
 60.17   1209.30     34.78
 60.27   1382.23     37.18
 60.37   1520.00     38.99
 60.47   1516.00     38.94
 60.57   1592.00     39.90
 60.67   1599.00     39.99
 60.77   1427.59     37.78
 60.87   1412.73     37.59
 60.97   1285.00     35.85
 61.07   1154.58     33.98
 61.17   1010.00     31.78
 61.27    823.00     28.69
 61.37    805.00     28.37
 61.47    775.00     27.84
 61.57    780.00     27.93
 61.67    806.00     28.39
 61.77    768.00     27.71
 61.87    871.03     29.51
 61.97    937.00     30.61
 62.07   1034.00     32.16
 62.17   1112.00     33.35
 62.27   1352.00     36.77
 62.37   1462.00     38.24
 62.47   1473.61     38.39
 62.57   1530.00     39.12
 62.67   1462.00     38.24
 62.77   1436.79     37.90
 62.87   1382.76     37.19
 62.97   1113.80     33.37
 63.07    987.19     31.42
 63.17    969.03     31.13
 63.27    803.75     28.35
 63.37    721.18     26.85
 63.47    739.00     27.18
 63.57    703.00     26.51
 63.67    697.00     26.40
 63.77    656.00     25.61
 63.87    605.56     24.61
 63.97    687.00     26.21
 64.07    727.89     26.98
 64.17    729.57     27.01
 64.27    748.44     27.36
 64.37    793.05     28.16
 64.47    890.67     29.84
 64.57    998.00     31.59
 64.67   1022.00     31.97
 64.77   1113.31     33.37
 64.87   1223.00     34.97
 64.97   1277.00     35.74
 65.07   1326.00     36.41
 65.17   1269.53     35.63
 65.27   1290.00     35.92
 65.37   1238.84     35.20
 65.47   1177.94     34.32
 65.57   1117.31     33.43
 65.67   1009.00     31.76
 65.77    900.00     30.00
 65.87    805.17     28.38
 65.97    776.00     27.86
 66.07    740.85     27.22
 66.17    706.62     26.58
 66.27    681.00     26.10
 66.37    727.48     26.97
 66.47    629.55     25.09
 66.57    645.00     25.40
 66.67    588.00     24.25
 66.77    642.52     25.35
 66.87    642.00     25.34
 66.97    611.22     24.72
 67.07    683.00     26.13
 67.17    632.29     25.15
 67.27    705.00     26.55
 67.37    766.54     27.69
 67.47    688.00     26.23
 67.57    795.00     28.20
 67.67    905.00     30.08
 67.77    949.00     30.81
 67.87   1114.00     33.38
 67.97   1417.38     37.65
 68.07   1652.00     40.64
 68.17   1817.01     42.63
 68.27   2038.00     45.14
 68.37   2340.00     48.37
 68.47   2491.55     49.92
 68.57   2397.32     48.96
 68.67   2288.00     47.83
 68.77   2268.00     47.62
 68.87   2036.00     45.12
 68.97   1829.00     42.77
 69.07   1450.00     38.08
 69.17   1274.00     35.69
 69.27   1153.00     33.96
 69.37    971.12     31.16
 69.47    937.16     30.61
 69.57    837.00     28.93
 69.67    839.00     28.97
 69.77    783.00     27.98
 69.87    733.87     27.09
 69.97    665.00     25.79
 70.07    716.00     26.76
 70.17    673.00     25.94
 70.27    698.00     26.42
 70.37    703.00     26.51
 70.47    654.63     25.59
 70.57    672.00     25.92
 70.67    644.00     25.38
 70.77    634.21     25.18
 70.87    680.00     26.08
 70.97    605.28     24.60
 71.07    710.00     26.65
 71.17    705.00     26.55
 71.27    754.00     27.46
 71.37    680.71     26.09
 71.47    812.67     28.51
 71.57    758.25     27.54
 71.67    925.12     30.42
 71.77   1000.81     31.64
 71.87   1112.00     33.35
 71.97   1260.00     35.50
 72.07   1481.00     38.48
 72.17   1533.00     39.15
 72.27   1779.00     42.18
 72.37   1887.63     43.45
 72.47   2013.51     44.87
 72.57   1974.00     44.43
 72.67   1901.00     43.60
 72.77   1752.11     41.86
 72.87   1667.00     40.83
 72.97   1441.51     37.97
 73.07   1349.68     36.74
 73.17   1126.27     33.56
 73.27    997.00     31.58
 73.37    887.00     29.78
 73.47    779.00     27.91
 73.57    748.11     27.35
 73.67    769.27     27.74
 73.77    674.98     25.98
 73.87    651.00     25.51
 73.97    659.00     25.67
 74.07    620.16     24.90
 74.17    635.00     25.20
 74.27    613.00     24.76
 74.37    630.00     25.10
 74.47    605.00     24.60
 74.57    651.35     25.52
 74.67    686.00     26.19
 74.77    625.51     25.01
 74.87    647.00     25.44
 74.97    623.18     24.96
 75.07    693.00     26.32
 75.17    599.26     24.48
 75.27    672.79     25.94
 75.37    654.00     25.57
 75.47    620.33     24.91
 75.57    706.00     26.57
 75.67    666.00     25.81
 75.77    667.00     25.83
 75.87    637.00     25.24
 75.97    626.00     25.02
 76.07    640.56     25.31
 76.17    657.00     25.63
 76.27    673.00     25.94
 76.37    660.00     25.69
 76.47    728.00     26.98
 76.57    701.00     26.48
 76.67    743.00     27.26
 76.77    850.27     29.16
 76.87    845.17     29.07
 76.97    811.72     28.49
 77.07    903.00     30.05
 77.17    927.19     30.45
 77.27    893.62     29.89
 77.37    784.51     28.01
 77.47    769.00     27.73
 77.57    750.00     27.39
 77.67    781.00     27.95
 77.77    675.37     25.99
 77.87    728.27     26.99
 77.97    638.00     25.26
 78.07    674.00     25.96
 78.17    576.00     24.00
 78.27    636.89     25.24
 78.37    593.00     24.35
 78.47    602.00     24.54
 78.57    586.15     24.21
 78.67    573.00     23.94
 78.77    567.33     23.82
 78.87    576.00     24.00
 78.97    587.52     24.24
 79.07    575.00     23.98
 79.17    529.00     23.00
 79.27    558.36     23.63
 79.37    578.01     24.04
 79.47    538.40     23.20
 79.57    633.74     25.17
 79.67    563.00     23.73
 79.77    543.10     23.30
 79.87    582.00     24.12
 79.97    589.00     24.27
 80.07    606.00     24.62
 80.17    554.47     23.55
 80.27    613.50     24.77
 80.37    626.00     25.02
 80.47    622.00     24.94
 80.57    651.60     25.53
 80.67    696.31     26.39
 80.77    727.00     26.96
 80.87    748.23     27.35
 80.97    866.75     29.44
 81.07    862.00     29.36
 81.17    948.00     30.79
 81.27   1010.00     31.78
 81.37   1057.00     32.51
 81.47   1135.38     33.70
 81.57   1128.00     33.59
 81.67   1185.00     34.42
 81.77   1124.64     33.54
 81.87   1170.38     34.21
 81.97   1087.00     32.97
 82.07   1077.00     32.82
 82.17   1061.00     32.57
 82.27    969.48     31.14
 82.37    909.87     30.16
 82.47    880.00     29.66
 82.57    773.83     27.82
 82.67    777.33     27.88
 82.77    727.00     26.96
 82.87    730.00     27.02
 82.97    704.13     26.54
 83.07    723.33     26.89
 83.17    712.05     26.68
 83.27    609.00     24.68
 83.37    633.95     25.18
 83.47    633.16     25.16
 83.57    648.00     25.46
 83.67    655.04     25.59
 83.77    619.00     24.88
 83.87    562.00     23.71
 83.97    630.35     25.11
 84.07    565.00     23.77
 84.17    611.00     24.72
 84.27    628.00     25.06
 84.37    617.00     24.84
 84.47    661.70     25.72
 84.57    629.00     25.08
 84.67    603.00     24.56
 84.77    581.00     24.10
 84.87    588.19     24.25
 84.97    596.00     24.41
 85.07    602.00     24.54
 85.17    602.00     24.54
 85.27    566.47     23.80
 85.37    629.00     25.08
 85.47    556.00     23.58
 85.57    593.00     24.35
 85.67    575.90     24.00
 85.77    589.00     24.27
 85.87    540.87     23.26
 85.97    575.00     23.98
 86.07    576.13     24.00
 86.17    598.00     24.45
 86.27    579.80     24.08
 86.37    670.00     25.88
 86.47    589.78     24.29
 86.57    583.00     24.15
 86.67    609.00     24.68
 86.77    554.57     23.55
 86.87    594.00     24.37
 86.97    591.01     24.31
 87.07    626.00     25.02
 87.17    655.00     25.59
 87.27    643.00     25.36
 87.37    659.00     25.67
 87.47    646.16     25.42
 87.57    648.65     25.47
 87.67    685.82     26.19
 87.77    691.00     26.29
 87.87    685.00     26.17
 87.97    726.00     26.94
 88.07    677.12     26.02
 88.17    730.00     27.02
 88.27    673.00     25.94
 88.37    661.00     25.71
 88.47    666.65     25.82
 88.57    707.71     26.60
 88.67    640.00     25.30
 88.77    671.00     25.90
 88.87    669.00     25.87
 88.97    610.00     24.70
 89.07    646.00     25.42
 89.17    642.00     25.34
 89.27    595.00     24.39
 89.37    635.00     25.20
 89.47    630.00     25.10
 89.57    622.00     24.94
 89.67    629.00     25.08
 89.77    629.00     25.08
 89.87    655.58     25.60
 89.97    664.00     25.77
 90.07    672.49     25.93
 90.17    675.00     25.98
 90.27    667.04     25.83
 90.37    644.08     25.38
 90.47    612.00     24.74
 90.57    630.00     25.10
 90.67    624.88     25.00
 90.77    618.28     24.87
 90.87    605.61     24.61
 90.97    580.00     24.08
 91.07    617.69     24.85
 91.17    573.00     23.94
 91.27    540.00     23.24
 91.37    563.76     23.74
 91.47    562.66     23.72
 91.57    595.91     24.41
 91.67    488.00     22.09
 91.77    561.00     23.69
 91.87    562.00     23.71
 91.97    560.00     23.66
 92.07    519.16     22.79
 92.17    553.00     23.52
 92.27    523.22     22.87
 92.37    562.00     23.71
 92.47    564.00     23.75
 92.57    592.00     24.33
 92.67    623.96     24.98
 92.77    618.24     24.86
 92.87    661.96     25.73
 92.97    636.00     25.22
 93.07    642.00     25.34
 93.17    718.00     26.80
 93.27    700.00     26.46
 93.37    707.50     26.60
 93.47    692.92     26.32
 93.57    779.69     27.92
 93.67    756.00     27.50
 93.77    819.06     28.62
 93.87    789.00     28.09
 93.97    784.43     28.01
 94.07    797.64     28.24
 94.17    837.00     28.93
 94.27    815.02     28.55
 94.37    845.80     29.08
 94.47    845.00     29.07
 94.57    945.00     30.74
 94.67    908.00     30.13
 94.77    920.00     30.33
 94.87    970.94     31.16
 94.97    959.00     30.97
 95.07    941.60     30.69
 95.17    948.00     30.79
 95.27    999.00     31.61
 95.37    981.10     31.32
 95.47   1043.32     32.30
 95.57    960.83     31.00
 95.67   1001.88     31.65
 95.77    947.50     30.78
 95.87    899.31     29.99
 95.97    893.00     29.88
 96.07    828.87     28.79
 96.17    873.00     29.55
 96.27    843.00     29.03
 96.37    762.00     27.60
 96.47    767.00     27.69
 96.57    803.06     28.34
 96.67    834.00     28.88
 96.77    777.00     27.87
 96.87    744.11     27.28
 96.97    827.00     28.76
 97.07    986.00     31.40
 97.17    884.06     29.73
 97.27    996.00     31.56
 97.37   1062.12     32.59
 97.47   1055.07     32.48
 97.57   1110.00     33.32
 97.67   1264.00     35.55
 97.77   1312.00     36.22
 97.87   1388.00     37.26
 97.97   1464.07     38.26
 98.07   1513.24     38.90
 98.17   1643.00     40.53
 98.27   1557.00     39.46
 98.37   1589.00     39.86
 98.47   1440.58     37.95
 98.57   1561.77     39.52
 98.67   1378.00     37.12
 98.77   1331.14     36.48
 98.87   1330.00     36.47
 98.97   1216.66     34.88
 99.07   1176.00     34.29
 99.17   1119.61     33.46
 99.27   1063.00     32.60
 99.37   1013.00     31.83
 99.47    966.00     31.08
 99.57    948.00     30.79
 99.67   1018.00     31.91
 99.77    971.41     31.17
 99.87   1028.00     32.06
 99.97    974.32     31.21
100.07   1066.00     32.65
100.17   1095.00     33.09
100.27   1168.00     34.18
100.37   1266.00     35.58
100.47   1277.00     35.74
100.57   1504.00     38.78
100.67   1503.40     38.77
100.77   1676.00     40.94
100.87   1673.23     40.91
100.97   1775.00     42.13
101.07   1942.00     44.07
101.17   1874.17     43.29
101.27   1892.72     43.51
101.37   2022.00     44.97
101.47   2054.49     45.33
101.57   2132.00     46.17
101.67   2027.42     45.03
101.77   2001.85     44.74
101.87   1949.22     44.15
101.97   2034.00     45.10
102.07   1882.00     43.38
102.17   1740.72     41.72
102.27   1756.86     41.91
102.37   1663.56     40.79
102.47   1681.12     41.00
102.57   1528.00     39.09
102.67   1407.00     37.51
102.77   1362.00     36.91
102.87   1325.20     36.40
102.97   1270.00     35.64
103.07   1341.69     36.63
103.17   1324.76     36.40
103.27   1306.12     36.14
103.37   1188.00     34.47
103.47   1084.00     32.92
103.57   1151.00     33.93
103.67   1081.62     32.89
103.77   1098.00     33.14
103.87   1025.00     32.02
103.97    983.20     31.36
104.07    940.00     30.66
104.17    909.00     30.15
104.27    894.00     29.90
104.37    783.82     28.00
104.47    833.00     28.86
104.57    791.00     28.12
104.67    752.96     27.44
104.77    725.00     26.93
104.87    653.00     25.55
104.97    700.00     26.46
105.07    635.53     25.21
105.17    693.00     26.32
105.27    618.00     24.86
105.37    642.00     25.34
105.47    618.00     24.86
105.57    619.00     24.88
105.67    597.00     24.43
105.77    623.00     24.96
105.87    588.00     24.25
105.97    587.00     24.23
106.07    639.00     25.28
106.17    576.00     24.00
106.27    572.00     23.92
106.37    643.00     25.36
106.47    607.83     24.65
106.57    588.00     24.25
106.67    553.83     23.53
106.77    637.00     25.24
106.87    644.00     25.38
106.97    662.00     25.73
107.07    613.43     24.77
107.17    636.56     25.23
107.27    685.00     26.17
107.37    683.83     26.15
107.47    640.47     25.31
107.57    746.28     27.32
107.67    730.00     27.02
107.77    719.00     26.81
107.87    699.00     26.44
107.97    722.22     26.87
108.07    809.00     28.44
108.17    738.00     27.17
108.27    778.00     27.89
108.37    737.21     27.15
108.47    776.00     27.86
108.57    731.74     27.05
108.67    750.00     27.39
108.77    771.00     27.77
108.87    702.28     26.50
108.97    700.00     26.46
109.07    717.00     26.78
109.17    757.00     27.51
109.27    715.00     26.74
109.37    725.00     26.93
109.47    737.00     27.15
109.57    756.00     27.50
109.67    727.79     26.98
109.77    774.62     27.83
109.87    755.14     27.48
109.97    688.00     26.23
110.07    730.00     27.02
110.17    723.16     26.89
110.27    698.87     26.44
110.37    723.00     26.89
110.47    740.57     27.21
110.57    718.00     26.80
110.67    670.00     25.88
110.77    681.64     26.11
110.87    687.00     26.21
110.97    659.94     25.69
111.07    637.00     25.24
111.17    671.00     25.90
111.27    618.00     24.86
111.37    642.00     25.34
111.47    566.08     23.79
111.57    597.00     24.43
111.67    598.00     24.45
111.77    590.00     24.29
111.87    608.69     24.67
111.97    583.00     24.15
112.07    578.93     24.06
112.17    594.00     24.37
112.27    576.00     24.00
112.37    596.00     24.41
112.47    604.00     24.58
112.57    558.00     23.62
112.67    631.37     25.13
112.77    602.24     24.54
112.87    568.00     23.83
112.97    615.00     24.80
113.07    555.23     23.56
113.17    591.85     24.33
113.27    572.00     23.92
113.37    578.96     24.06
113.47    622.35     24.95
113.57    596.91     24.43
113.67    608.60     24.67
113.77    628.00     25.06
113.87    659.13     25.67
113.97    583.00     24.15
114.07    667.00     25.83
114.17    643.00     25.36
114.27    653.00     25.55
114.37    699.00     26.44
114.47    711.00     26.66
114.57    738.00     27.17
114.67    752.54     27.43
114.77    795.00     28.20
114.87    809.58     28.45
114.97    889.00     29.82
115.07    988.88     31.45
115.17    920.00     30.33
115.27   1047.00     32.36
115.37   1277.77     35.75
115.47   1303.00     36.10
115.57   1547.58     39.34
115.67   1717.00     41.44
115.77   1774.00     42.12
115.87   2037.00     45.13
115.97   2301.63     47.98
116.07   2761.00     52.55
116.17   2950.00     54.31
116.27   3294.00     57.39
116.37   3593.00     59.94
116.47   3896.00     62.42
116.57   4347.00     65.93
116.67   4654.00     68.22
116.77   5130.00     71.62
116.87   5455.15     73.86
116.97   5805.00     76.19
117.07   6004.00     77.49
117.17   6675.00     81.70
117.27   6827.00     82.63
117.37   6937.47     83.29
117.47   7396.00     86.00
117.57   7168.53     84.67
117.67   7466.00     86.41
117.77   7185.90     84.77
117.87   7216.21     84.95
117.97   7191.00     84.80
118.07   6693.00     81.81
118.17   6507.00     80.67
118.27   6143.00     78.38
118.37   6036.06     77.69
118.47   5299.00     72.79
118.57   5175.00     71.94
118.67   4860.00     69.71
118.77   4440.00     66.63
118.87   4130.75     64.27
118.97   3782.39     61.50
119.07   3235.96     56.89
119.17   3080.00     55.50
119.27   2789.00     52.81
119.37   2521.00     50.21
119.47   2367.00     48.65
119.57   2049.99     45.28
119.67   1848.00     42.99
119.77   1707.00     41.32
119.87   1423.50     37.73
119.97   1358.00     36.85
120.07   1313.00     36.24
120.17   1121.39     33.49
120.27   1106.00     33.26
120.37   1097.00     33.12
120.47    966.00     31.08
120.57    929.00     30.48
120.67    867.00     29.44
120.77    811.00     28.48
120.87    824.00     28.71
120.97    746.00     27.31
121.07    808.98     28.44
121.17    713.00     26.70
121.27    682.00     26.12
121.37    696.79     26.40
121.47    715.00     26.74
121.57    732.32     27.06
121.67    623.00     24.96
121.77    669.36     25.87
121.87    597.00     24.43
121.97    667.00     25.83
122.07    643.00     25.36
122.17    672.00     25.92
122.27    684.00     26.15
122.37    684.00     26.15
122.47    643.00     25.36
122.57    649.00     25.48
122.67    695.00     26.36
122.77    633.00     25.16
122.87    721.41     26.86
122.97    730.00     27.02
123.07    713.41     26.71
123.17    662.29     25.73
123.27    664.62     25.78
123.37    657.87     25.65
123.47    717.00     26.78
123.57    716.00     26.76
123.67    740.00     27.20
123.77    713.16     26.71
123.87    719.66     26.83
123.97    738.00     27.17
124.07    687.88     26.23
124.17    764.00     27.64
124.27    765.00     27.66
124.37    708.00     26.61
124.47    769.00     27.73
124.57    754.00     27.46
124.67    733.00     27.07
124.77    700.00     26.46
124.87    732.00     27.06
124.97    750.00     27.39
