  9.97     779.00      27.91
 10.07     690.54      26.28
 10.17     698.65      26.43
 10.27     786.00      28.04
 10.37     681.00      26.10
 10.47     731.00      27.04
 10.57     765.33      27.66
 10.67     699.08      26.44
 10.77     762.00      27.60
 10.87     702.84      26.51
 10.97     710.00      26.65
 11.07     772.00      27.78
 11.17     727.82      26.98
 11.27     784.00      28.00
 11.37     759.00      27.55
 11.47     769.00      27.73
 11.57     721.00      26.85
 11.67     754.00      27.46
 11.77     801.00      28.30
 11.87     794.00      28.18
 11.97     841.00      29.00
 12.07     773.25      27.81
 12.17     765.43      27.67
 12.27     872.91      29.54
 12.37     832.00      28.84
 12.47     798.00      28.25
 12.57     766.98      27.69
 12.67     790.77      28.12
 12.77     730.00      27.02
 12.87     671.22      25.91
 12.97     698.00      26.42
 13.07     676.00      26.00
 13.17     754.26      27.46
 13.27     662.00      25.73
 13.37     743.17      27.26
 13.47     707.00      26.59
 13.57     674.00      25.96
 13.67     707.00      26.59
 13.77     659.00      25.67
 13.87     654.34      25.58
 13.97     741.00      27.22
 14.07     716.00      26.76
 14.17     692.00      26.31
 14.27     705.43      26.56
 14.37     695.00      26.36
 14.47     717.00      26.78
 14.57     682.00      26.12
 14.67     675.00      25.98
 14.77     691.69      26.30
 14.87     687.49      26.22
 14.97     661.23      25.71
 15.07     673.70      25.96
 15.17     686.00      26.19
 15.27     676.18      26.00
 15.37     635.00      25.20
 15.47     677.00      26.02
 15.57     668.20      25.85
 15.67     675.00      25.98
 15.77     669.00      25.87
 15.87     696.90      26.40
 15.97     661.00      25.71
 16.07     626.00      25.02
 16.17     669.45      25.87
 16.27     679.00      26.06
 16.37     627.37      25.05
 16.47     672.00      25.92
 16.57     678.00      26.04
 16.67     634.72      25.19
 16.77     681.00      26.10
 16.87     651.00      25.51
 16.97     679.71      26.07
 17.07     619.00      24.88
 17.17     683.46      26.14
 17.27     679.00      26.06
 17.37     654.00      25.57
 17.47     627.00      25.04
 17.57     704.65      26.55
 17.67     664.12      25.77
 17.77     672.60      25.93
 17.87     666.00      25.81
 17.97     651.00      25.51
 18.07     620.18      24.90
 18.17     705.08      26.55
 18.27     596.00      24.41
 18.37     674.00      25.96
 18.47     627.00      25.04
 18.57     665.00      25.79
 18.67     661.00      25.71
 18.77     656.00      25.61
 18.87     636.32      25.23
 18.97     645.27      25.40
 19.07     649.00      25.48
 19.17     611.00      24.72
 19.27     671.15      25.91
 19.37     676.00      26.00
 19.47     666.20      25.81
 19.57     663.00      25.75
 19.67     637.00      25.24
 19.77     673.80      25.96
 19.87     620.00      24.90
 19.97     640.00      25.30
 20.07     640.00      25.30
 20.17     695.84      26.38
 20.27     652.89      25.55
 20.37     683.00      26.13
 20.47     628.00      25.06
 20.57     621.10      24.92
 20.67     638.00      25.26
 20.77     679.75      26.07
 20.87     642.00      25.34
 20.97     613.00      24.76
 21.07     596.00      24.41
 21.17     673.30      25.95
 21.27     653.00      25.55
 21.37     574.00      23.96
 21.47     671.27      25.91
 21.57     683.00      26.13
 21.67     651.00      25.51
 21.77     667.00      25.83
 21.87     600.08      24.50
 21.97     610.00      24.70
 22.07     640.00      25.30
 22.17     673.31      25.95
 22.27     636.00      25.22
 22.37     625.00      25.00
 22.47     631.64      25.13
 22.57     590.00      24.29
 22.67     630.00      25.10
 22.77     621.00      24.92
 22.87     627.24      25.04
 22.97     666.70      25.82
 23.07     681.85      26.11
 23.17     608.23      24.66
 23.27     649.69      25.49
 23.37     688.00      26.23
 23.47     610.07      24.70
 23.57     631.00      25.12
 23.67     649.00      25.48
 23.77     647.00      25.44
 23.87     622.00      24.94
 23.97     653.66      25.57
 24.07     627.00      25.04
 24.17     635.00      25.20
 24.27     627.00      25.04
 24.37     647.00      25.44
 24.47     653.00      25.55
 24.57     694.59      26.36
 24.67     710.00      26.65
 24.77     660.09      25.69
 24.87     733.73      27.09
 24.97     675.00      25.98
 25.07     774.93      27.84
 25.17     684.39      26.16
 25.27     710.00      26.65
 25.37     704.94      26.55
 25.47     687.00      26.21
 25.57     652.12      25.54
 25.67     604.00      24.58
 25.77     609.84      24.69
 25.87     639.00      25.28
 25.97     649.00      25.48
 26.07     606.00      24.62
 26.17     658.00      25.65
 26.27     678.00      26.04
 26.37     680.00      26.08
 26.47     717.00      26.78
 26.57     635.85      25.22
 26.67     659.00      25.67
 26.77     693.67      26.34
 26.87     659.22      25.68
 26.97     671.58      25.91
 27.07     715.00      26.74
 27.17     709.00      26.63
 27.27     727.00      26.96
 27.37     791.45      28.13
 27.47     768.00      27.71
 27.57     863.62      29.39
 27.67     922.63      30.37
 27.77     920.71      30.34
 27.87    1047.42      32.36
 27.97    1388.00      37.26
 28.07    2056.00      45.34
 28.17    3357.00      57.94
 28.27    5265.00      72.56
 28.37    7712.40      87.82
 28.47    8759.12      93.59
 28.57    8354.00      91.40
 28.67    6518.45      80.74
 28.77    4807.00      69.33
 28.87    3797.00      61.62
 28.97    3952.00      62.86
 29.07    4640.00      68.12
 29.17    5035.00      70.96
 29.27    4561.00      67.54
 29.37    3658.00      60.48
 29.47    2756.86      52.51
 29.57    1833.00      42.81
 29.67    1393.00      37.32
 29.77    1089.00      33.00
 29.87     963.00      31.03
 29.97     822.45      28.68
 30.07     767.24      27.70
 30.17     764.00      27.64
 30.27     781.00      27.95
 30.37     797.00      28.23
 30.47     757.00      27.51
 30.57     720.00      26.83
 30.67     691.00      26.29
 30.77     680.00      26.08
 30.87     760.21      27.57
 30.97     797.80      28.25
 31.07     780.00      27.93
 31.17     853.27      29.21
 31.27     752.17      27.43
 31.37     775.00      27.84
 31.47     707.93      26.61
 31.57     760.00      27.57
 31.67     697.00      26.40
 31.77     704.07      26.53
 31.87     677.00      26.02
 31.97     671.00      25.90
 32.07     677.00      26.02
 32.17     688.00      26.23
 32.27     654.00      25.57
 32.37     648.00      25.46
 32.47     623.04      24.96
 32.57     640.75      25.31
 32.67     666.00      25.81
 32.77     637.00      25.24
 32.87     627.00      25.04
 32.97     667.53      25.84
 33.07     652.00      25.53
 33.17     654.00      25.57
 33.27     663.00      25.75
 33.37     674.00      25.96
 33.47     673.00      25.94
 33.57     705.58      26.56
 33.67     711.00      26.66
 33.77     729.00      27.00
 33.87     757.00      27.51
 33.97     843.00      29.03
 34.07     986.00      31.40
 34.17    1073.00      32.76
 34.27    1271.36      35.66
 34.37    1319.00      36.32
 34.47    1270.79      35.65
 34.57    1094.00      33.08
 34.67     920.00      30.33
 34.77     865.00      29.41
 34.87     750.37      27.39
 34.97     714.00      26.72
 35.07     677.00      26.02
 35.17     650.25      25.50
 35.27     681.00      26.10
 35.37     611.22      24.72
 35.47     618.00      24.86
 35.57     669.50      25.87
 35.67     672.87      25.94
 35.77     577.83      24.04
 35.87     657.00      25.63
 35.97     632.95      25.16
 36.07     653.00      25.55
 36.17     595.00      24.39
 36.27     578.00      24.04
 36.37     659.64      25.68
 36.47     623.00      24.96
 36.57     581.00      24.10
 36.67     593.21      24.36
 36.77     569.41      23.86
 36.87     611.50      24.73
 36.97     541.00      23.26
 37.07     631.20      25.12
 37.17     619.00      24.88
 37.27     574.00      23.96
 37.37     613.61      24.77
 37.47     598.00      24.45
 37.57     657.00      25.63
 37.67     638.00      25.26
 37.77     634.99      25.20
 37.87     703.24      26.52
 37.97     732.00      27.06
 38.07     717.00      26.78
 38.17     701.88      26.49
 38.27     778.10      27.89
 38.37     747.46      27.34
 38.47     761.00      27.59
 38.57     686.00      26.19
 38.67     734.00      27.09
 38.77     662.00      25.73
 38.87     699.19      26.44
 38.97     643.00      25.36
 39.07     601.00      24.52
 39.17     621.00      24.92
 39.27     640.51      25.31
 39.37     573.00      23.94
 39.47     564.28      23.75
 39.57     622.00      24.94
 39.67     612.00      24.74
 39.77     651.00      25.51
 39.87     582.00      24.12
 39.97     582.36      24.13
 40.07     561.63      23.70
 40.17     582.69      24.14
 40.27     557.87      23.62
 40.37     621.00      24.92
 40.47     651.03      25.52
 40.57     575.00      23.98
 40.67     594.00      24.37
 40.77     593.13      24.35
 40.87     614.00      24.78
 40.97     588.31      24.26
 41.07     574.87      23.98
 41.17     644.35      25.38
 41.27     633.54      25.17
 41.37     589.00      24.27
 41.47     653.52      25.56
 41.57     575.62      23.99
 41.67     582.53      24.14
 41.77     613.00      24.76
 41.87     594.00      24.37
 41.97     587.00      24.23
 42.07     628.23      25.06
 42.17     621.87      24.94
 42.27     653.32      25.56
 42.37     586.00      24.21
 42.47     585.00      24.19
 42.57     614.43      24.79
 42.67     629.00      25.08
 42.77     644.41      25.39
 42.87     647.20      25.44
 42.97     710.00      26.65
 43.07     768.99      27.73
 43.17     663.00      25.75
 43.27     727.00      26.96
 43.37     682.00      26.12
 43.47     695.00      26.36
 43.57     635.87      25.22
 43.67     631.00      25.12
 43.77     647.00      25.44
 43.87     630.00      25.10
 43.97     634.00      25.18
 44.07     582.26      24.13
 44.17     589.44      24.28
 44.27     566.15      23.79
 44.37     653.03      25.55
 44.47     656.00      25.61
 44.57     652.00      25.53
 44.67     616.00      24.82
 44.77     569.83      23.87
 44.87     599.00      24.47
 44.97     562.52      23.72
 45.07     631.10      25.12
 45.17     629.00      25.08
 45.27     628.25      25.06
 45.37     616.00      24.82
 45.47     661.50      25.72
 45.57     651.90      25.53
 45.67     587.11      24.23
 45.77     628.00      25.06
 45.87     660.10      25.69
 45.97     655.00      25.59
 46.07     638.93      25.28
 46.17     592.00      24.33
 46.27     620.16      24.90
 46.37     657.92      25.65
 46.47     654.00      25.57
 46.57     629.00      25.08
 46.67     623.00      24.96
 46.77     620.00      24.90
 46.87     641.00      25.32
 46.97     560.00      23.66
 47.07     584.80      24.18
 47.17     657.00      25.63
 47.27     589.04      24.27
 47.37     617.00      24.84
 47.47     620.00      24.90
 47.57     612.90      24.76
 47.67     642.00      25.34
 47.77     641.00      25.32
 47.87     623.00      24.96
 47.97     638.00      25.26
 48.07     684.00      26.15
 48.17     641.00      25.32
 48.27     705.00      26.55
 48.37     731.63      27.05
 48.47     721.01      26.85
 48.57     661.29      25.72
 48.67     657.00      25.63
 48.77     637.00      25.24
 48.87     670.85      25.90
 48.97     647.00      25.44
 49.07     615.72      24.81
 49.17     636.85      25.24
 49.27     680.00      26.08
 49.37     636.00      25.22
 49.47     653.00      25.55
 49.57     736.05      27.13
 49.67     705.00      26.55
 49.77     765.00      27.66
 49.87     841.00      29.00
 49.97     918.00      30.30
 50.07    1096.00      33.11
 50.17    1474.00      38.39
 50.27    1780.00      42.19
 50.37    2524.02      50.24
 50.47    2923.97      54.07
 50.57    3251.00      57.02
 50.67    3237.00      56.89
 50.77    2874.00      53.61
 50.87    2436.00      49.36
 50.97    1895.61      43.54
 51.07    1490.00      38.60
 51.17    1196.00      34.58
 51.27    1070.23      32.71
 51.37     953.00      30.87
 51.47     891.00      29.85
 51.57     757.00      27.51
 51.67     772.00      27.78
 51.77     792.00      28.14
 51.87     732.48      27.06
 51.97     706.00      26.57
 52.07     732.80      27.07
 52.17     749.00      27.37
 52.27     708.64      26.62
 52.37     746.00      27.31
 52.47     759.00      27.55
 52.57     742.00      27.24
 52.67     710.31      26.65
 52.77     717.00      26.78
 52.87     650.13      25.50
 52.97     651.81      25.53
 53.07     658.00      25.65
 53.17     672.00      25.92
 53.27     707.00      26.59
 53.37     832.14      28.85
 53.47     795.00      28.20
 53.57     917.17      30.28
 53.67    1039.00      32.23
 53.77    1158.31      34.03
 53.87    1248.00      35.33
 53.97    1367.27      36.98
 54.07    1402.36      37.45
 54.17    1202.00      34.67
 54.27    1157.00      34.01
 54.37    1058.00      32.53
 54.47     990.00      31.46
 54.57     881.00      29.68
 54.67     838.00      28.95
 54.77     726.00      26.94
 54.87     714.00      26.72
 54.97     727.00      26.96
 55.07     731.58      27.05
 55.17     683.41      26.14
 55.27     687.00      26.21
 55.37     644.00      25.38
 55.47     654.00      25.57
 55.57     670.00      25.88
 55.67     682.18      26.12
 55.77     701.00      26.48
 55.87     730.42      27.03
 55.97     685.00      26.17
 56.07     719.00      26.81
 56.17     733.35      27.08
 56.27     754.00      27.46
 56.37     731.49      27.05
 56.47     838.00      28.95
 56.57     855.00      29.24
 56.67    1074.92      32.79
 56.77    1156.00      34.00
 56.87    1431.83      37.84
 56.97    1755.77      41.90
 57.07    2101.00      45.84
 57.17    2438.00      49.38
 57.27    2672.00      51.69
 57.37    2719.00      52.14
 57.47    2755.00      52.49
 57.57    2342.83      48.40
 57.67    2185.10      46.75
 57.77    1864.00      43.17
 57.87    1532.77      39.15
 57.97    1253.02      35.40
 58.07    1038.00      32.22
 58.17     965.60      31.07
 58.27     860.00      29.33
 58.37     838.34      28.95
 58.47     766.90      27.69
 58.57     796.93      28.23
 58.67     868.00      29.46
 58.77     865.21      29.41
 58.87     991.00      31.48
 58.97    1105.00      33.24
 59.07    1154.00      33.97
 59.17    1135.00      33.69
 59.27    1268.00      35.61
 59.37    1371.64      37.04
 59.47    1450.09      38.08
 59.57    1425.00      37.75
 59.67    1347.00      36.70
 59.77    1344.00      36.66
 59.87    1320.62      36.34
 59.97    1321.00      36.35
 60.07    1331.00      36.48
 60.17    1299.00      36.04
 60.27    1284.00      35.83
 60.37    1409.00      37.54
 60.47    1535.74      39.19
 60.57    1474.97      38.41
 60.67    1559.00      39.48
 60.77    1666.00      40.82
 60.87    1614.00      40.17
 60.97    1434.40      37.87
 61.07    1379.00      37.13
 61.17    1283.10      35.82
 61.27    1050.00      32.40
 61.37     971.00      31.16
 61.47     891.85      29.86
 61.57     930.00      30.50
 61.67     849.00      29.14
 61.77     811.83      28.49
 61.87     868.00      29.46
 61.97     962.38      31.02
 62.07    1001.00      31.64
 62.17    1090.05      33.02
 62.27    1265.00      35.57
 62.37    1443.00      37.99
 62.47    1605.00      40.06
 62.57    1712.79      41.39
 62.67    1806.00      42.50
 62.77    1836.00      42.85
 62.87    1714.49      41.41
 62.97    1556.00      39.45
 63.07    1426.93      37.77
 63.17    1357.49      36.84
 63.27    1135.00      33.69
 63.37     949.00      30.81
 63.47     951.00      30.84
 63.57     801.00      28.30
 63.67     799.77      28.28
 63.77     794.41      28.19
 63.87     716.66      26.77
 63.97     785.00      28.02
 64.07     723.10      26.89
 64.17     744.94      27.29
 64.27     727.00      26.96
 64.37     812.00      28.50
 64.47     834.00      28.88
 64.57     944.00      30.72
 64.67    1004.00      31.69
 64.77    1067.00      32.66
 64.87    1196.79      34.59
 64.97    1422.26      37.71
 65.07    1499.00      38.72
 65.17    1634.04      40.42
 65.27    1649.00      40.61
 65.37    1658.00      40.72
 65.47    1536.67      39.20
 65.57    1494.31      38.66
 65.67    1441.03      37.96
 65.77    1311.67      36.22
 65.87    1106.00      33.26
 65.97    1006.00      31.72
 66.07     904.00      30.07
 66.17     809.00      28.44
 66.27     806.20      28.39
 66.37     834.00      28.88
 66.47     752.02      27.42
 66.57     784.87      28.02
 66.67     709.84      26.64
 66.77     754.76      27.47
 66.87     637.00      25.24
 66.97     742.00      27.24
 67.07     740.00      27.20
 67.17     714.00      26.72
 67.27     722.00      26.87
 67.37     725.00      26.93
 67.47     728.00      26.98
 67.57     798.00      28.25
 67.67     801.00      28.30
 67.77     912.00      30.20
 67.87     982.70      31.35
 67.97    1181.00      34.37
 68.07    1251.49      35.38
 68.17    1461.54      38.23
 68.27    1778.00      42.17
 68.37    2000.00      44.72
 68.47    2220.00      47.12
 68.57    2515.00      50.15
 68.67    2634.68      51.33
 68.77    2528.75      50.29
 68.87    2496.00      49.96
 68.97    2283.00      47.78
 69.07    2102.00      45.85
 69.17    1750.54      41.84
 69.27    1632.00      40.40
 69.37    1323.00      36.37
 69.47    1161.00      34.07
 69.57    1037.00      32.20
 69.67     957.00      30.94
 69.77     796.82      28.23
 69.87     780.98      27.95
 69.97     720.96      26.85
 70.07     733.15      27.08
 70.17     738.00      27.17
 70.27     731.04      27.04
 70.37     708.00      26.61
 70.47     726.00      26.94
 70.57     711.81      26.68
 70.67     651.74      25.53
 70.77     731.00      27.04
 70.87     717.00      26.78
 70.97     707.00      26.59
 71.07     730.00      27.02
 71.17     733.00      27.07
 71.27     745.00      27.29
 71.37     697.30      26.41
 71.47     744.00      27.28
 71.57     803.00      28.34
 71.67     877.47      29.62
 71.77     896.00      29.93
 71.87     975.55      31.23
 71.97    1052.00      32.43
 72.07    1173.00      34.25
 72.17    1378.00      37.12
 72.27    1461.00      38.22
 72.37    1655.00      40.68
 72.47    1764.11      42.00
 72.57    1963.59      44.31
 72.67    2101.00      45.84
 72.77    2001.00      44.73
 72.87    1938.00      44.02
 72.97    1755.88      41.90
 73.07    1723.00      41.51
 73.17    1473.00      38.38
 73.27    1354.00      36.80
 73.37    1169.67      34.20
 73.47    1053.45      32.46
 73.57     910.00      30.17
 73.67     859.00      29.31
 73.77     833.00      28.86
 73.87     827.00      28.76
 73.97     756.00      27.50
 74.07     740.00      27.20
 74.17     736.00      27.13
 74.27     641.15      25.32
 74.37     742.00      27.24
 74.47     667.00      25.83
 74.57     654.70      25.59
 74.67     650.00      25.50
 74.77     675.00      25.98
 74.87     721.42      26.86
 74.97     665.00      25.79
 75.07     695.00      26.36
 75.17     709.00      26.63
 75.27     711.00      26.66
 75.37     737.00      27.15
 75.47     729.45      27.01
 75.57     749.00      27.37
 75.67     809.00      28.44
 75.77     721.00      26.85
 75.87     696.94      26.40
 75.97     691.00      26.29
 76.07     701.00      26.48
 76.17     695.00      26.36
 76.27     726.00      26.94
 76.37     733.08      27.08
 76.47     752.34      27.43
 76.57     788.00      28.07
 76.67     795.00      28.20
 76.77     894.00      29.90
 76.87     843.00      29.03
 76.97     943.75      30.72
 77.07    1013.52      31.84
 77.17     987.00      31.42
 77.27    1062.00      32.59
 77.37    1018.40      31.91
 77.47    1051.00      32.42
 77.57    1068.42      32.69
 77.67     922.00      30.36
 77.77     924.07      30.40
 77.87     894.00      29.90
 77.97     867.62      29.46
 78.07     779.00      27.91
 78.17     756.45      27.50
 78.27     705.30      26.56
 78.37     743.00      27.26
 78.47     722.00      26.87
 78.57     660.00      25.69
 78.67     651.00      25.51
 78.77     630.48      25.11
 78.87     655.03      25.59
 78.97     662.04      25.73
 79.07     609.00      24.68
 79.17     596.28      24.42
 79.27     619.88      24.90
 79.37     647.00      25.44
 79.47     625.72      25.01
 79.57     632.52      25.15
 79.67     671.88      25.92
 79.77     614.92      24.80
 79.87     613.00      24.76
 79.97     685.98      26.19
 80.07     628.00      25.06
 80.17     660.00      25.69
 80.27     653.00      25.55
 80.37     637.00      25.24
 80.47     723.78      26.90
 80.57     757.12      27.52
 80.67     759.00      27.55
 80.77     783.00      27.98
 80.87     866.00      29.43
 80.97     911.00      30.18
 81.07     994.77      31.54
 81.17    1089.00      33.00
 81.27    1174.60      34.27
 81.37    1265.78      35.58
 81.47    1213.30      34.83
 81.57    1381.85      37.17
 81.67    1519.00      38.97
 81.77    1532.79      39.15
 81.87    1556.00      39.45
 81.97    1587.00      39.84
 82.07    1491.00      38.61
 82.17    1409.00      37.54
 82.27    1373.09      37.06
 82.37    1188.14      34.47
 82.47    1208.00      34.76
 82.57    1137.00      33.72
 82.67     992.00      31.50
 82.77     998.00      31.59
 82.87     898.00      29.97
 82.97     873.00      29.55
 83.07     842.00      29.02
 83.17     776.00      27.86
 83.27     699.00      26.44
 83.37     754.52      27.47
 83.47     673.00      25.94
 83.57     665.00      25.79
 83.67     684.55      26.16
 83.77     727.85      26.98
 83.87     683.00      26.13
 83.97     664.07      25.77
 84.07     654.72      25.59
 84.17     644.00      25.38
 84.27     735.21      27.11
 84.37     701.97      26.49
 84.47     667.00      25.83
 84.57     751.59      27.42
 84.67     710.00      26.65
 84.77     669.00      25.87
 84.87     733.00      27.07
 84.97     706.00      26.57
 85.07     669.00      25.87
 85.17     641.00      25.32
 85.27     735.55      27.12
 85.37     628.00      25.06
 85.47     663.00      25.75
 85.57     674.00      25.96
 85.67     628.69      25.07
 85.77     582.00      24.12
 85.87     610.00      24.70
 85.97     622.47      24.95
 86.07     643.22      25.36
 86.17     642.50      25.35
 86.27     677.72      26.03
 86.37     630.00      25.10
 86.47     608.00      24.66
 86.57     591.88      24.33
 86.67     603.78      24.57
 86.77     605.71      24.61
 86.87     695.00      26.36
 86.97     700.00      26.46
 87.07     631.00      25.12
 87.17     718.82      26.81
 87.27     700.00      26.46
 87.37     679.00      26.06
 87.47     714.59      26.73
 87.57     692.00      26.31
 87.67     708.14      26.61
 87.77     707.00      26.59
 87.87     761.33      27.59
 87.97     738.62      27.18
 88.07     779.00      27.91
 88.17     743.00      27.26
 88.27     729.84      27.02
 88.37     780.00      27.93
 88.47     763.00      27.62
 88.57     764.00      27.64
 88.67     710.00      26.65
 88.77     751.00      27.40
 88.87     701.00      26.48
 88.97     703.00      26.51
 89.07     683.29      26.14
 89.17     658.00      25.65
 89.27     674.00      25.96
 89.37     692.00      26.31
 89.47     695.38      26.37
 89.57     676.00      26.00
 89.67     697.00      26.40
 89.77     667.95      25.84
 89.87     724.84      26.92
 89.97     721.00      26.85
 90.07     735.00      27.11
 90.17     696.00      26.38
 90.27     741.14      27.22
 90.37     701.00      26.48
 90.47     649.00      25.48
 90.57     689.00      26.25
 90.67     681.00      26.10
 90.77     636.00      25.22
 90.87     700.00      26.46
 90.97     650.00      25.50
 91.07     623.00      24.96
 91.17     613.00      24.76
 91.27     602.00      24.54
 91.37     585.00      24.19
 91.47     625.00      25.00
 91.57     625.00      25.00
 91.67     578.00      24.04
 91.77     621.28      24.93
 91.87     586.26      24.21
 91.97     599.00      24.47
 92.07     648.00      25.46
 92.17     593.46      24.36
 92.27     623.69      24.97
 92.37     585.00      24.19
 92.47     627.00      25.04
 92.57     619.00      24.88
 92.67     652.86      25.55
 92.77     682.00      26.12
 92.87     683.42      26.14
 92.97     664.00      25.77
 93.07     656.00      25.61
 93.17     638.00      25.26
 93.27     697.00      26.40
 93.37     695.00      26.36
 93.47     675.00      25.98
 93.57     727.00      26.96
 93.67     768.60      27.72
 93.77     703.00      26.51
 93.87     764.00      27.64
 93.97     790.00      28.11
 94.07     841.82      29.01
 94.17     889.00      29.82
 94.27     825.00      28.72
 94.37     884.00      29.73
 94.47     871.72      29.52
 94.57     926.67      30.44
 94.67     935.17      30.58
 94.77     899.00      29.98
 94.87     952.47      30.86
 94.97     955.00      30.90
 95.07    1029.86      32.09
 95.17    1000.00      31.62
 95.27    1015.00      31.86
 95.37    1051.97      32.43
 95.47    1038.00      32.22
 95.57    1111.00      33.33
 95.67    1061.00      32.57
 95.77    1123.83      33.52
 95.87    1025.00      32.02
 95.97     998.00      31.59
 96.07    1036.48      32.19
 96.17    1023.00      31.98
 96.27     945.00      30.74
 96.37     904.00      30.07
 96.47     905.00      30.08
 96.57     873.00      29.55
 96.67     813.10      28.51
 96.77     830.00      28.81
 96.87     813.76      28.53
 96.97     820.00      28.64
 97.07     801.00      28.30
 97.17     826.00      28.74
 97.27     853.24      29.21
 97.37     977.98      31.27
 97.47     974.38      31.21
 97.57    1055.00      32.48
 97.67    1112.00      33.35
 97.77    1115.57      33.40
 97.87    1199.00      34.63
 97.97    1353.00      36.78
 98.07    1353.00      36.78
 98.17    1480.00      38.47
 98.27    1479.00      38.46
 98.37    1543.00      39.28
 98.47    1634.00      40.42
 98.57    1619.00      40.24
 98.67    1586.76      39.83
 98.77    1559.68      39.49
 98.87    1557.00      39.46
 98.97    1475.00      38.41
 99.07    1458.00      38.18
 99.17    1414.00      37.60
 99.27    1309.00      36.18
 99.37    1228.00      35.04
 99.47    1216.00      34.87
 99.57    1099.27      33.16
 99.67    1153.42      33.96
 99.77    1096.00      33.11
 99.87     997.00      31.58
 99.97    1027.00      32.05
100.07    1035.00      32.17
100.17    1061.15      32.58
100.27    1065.19      32.64
100.37    1144.72      33.83
100.47    1187.00      34.45
100.57    1275.00      35.71
100.67    1383.25      37.19
100.77    1436.00      37.89
100.87    1474.00      38.39
100.97    1584.00      39.80
101.07    1696.61      41.19
101.17    1763.00      41.99
101.27    1891.00      43.49
101.37    1895.00      43.53
101.47    2045.00      45.22
101.57    1994.95      44.66
101.67    2143.84      46.30
101.77    2056.22      45.35
101.87    2225.00      47.17
101.97    2194.55      46.85
102.07    2114.00      45.98
102.17    2108.00      45.91
102.27    2019.00      44.93
102.37    1987.00      44.58
102.47    1963.00      44.31
102.57    1927.61      43.90
102.67    1785.00      42.25
102.77    1650.00      40.62
102.87    1599.61      40.00
102.97    1629.91      40.37
103.07    1488.00      38.57
103.17    1447.00      38.04
103.27    1383.00      37.19
103.37    1338.00      36.58
103.47    1392.00      37.31
103.57    1321.99      36.36
103.67    1366.27      36.96
103.77    1265.00      35.57
103.87    1282.71      35.81
103.97    1165.28      34.14
104.07    1152.00      33.94
104.17    1121.00      33.48
104.27    1044.00      32.31
104.37     997.00      31.58
104.47     989.00      31.45
104.57     935.00      30.58
104.67     888.00      29.80
104.77     910.00      30.17
104.87     864.00      29.39
104.97     825.00      28.72
105.07     781.00      27.95
105.17     776.86      27.87
105.27     731.34      27.04
105.37     739.00      27.18
105.47     690.00      26.27
105.57     692.00      26.31
105.67     696.00      26.38
105.77     642.16      25.34
105.87     641.00      25.32
105.97     645.05      25.40
106.07     644.00      25.38
106.17     624.00      24.98
106.27     617.04      24.84
106.37     595.00      24.39
106.47     603.00      24.56
106.57     614.00      24.78
106.67     623.00      24.96
106.77     630.00      25.10
106.87     658.00      25.65
106.97     652.64      25.55
107.07     678.00      26.04
107.17     705.05      26.55
107.27     653.00      25.55
107.37     665.00      25.79
107.47     686.89      26.21
107.57     681.68      26.11
107.67     696.00      26.38
107.77     732.00      27.06
107.87     750.00      27.39
107.97     781.00      27.95
108.07     769.00      27.73
108.17     782.28      27.97
108.27     760.14      27.57
108.37     784.00      28.00
108.47     772.00      27.78
108.57     795.00      28.20
108.67     857.73      29.29
108.77     819.00      28.62
108.87     759.38      27.56
108.97     796.88      28.23
109.07     787.02      28.05
109.17     802.90      28.34
109.27     797.00      28.23
109.37     829.50      28.80
109.47     729.00      27.00
109.57     694.00      26.34
109.67     747.00      27.33
109.77     764.00      27.64
109.87     857.02      29.27
109.97     749.00      27.37
110.07     796.78      28.23
110.17     855.95      29.26
110.27     793.00      28.16
110.37     768.00      27.71
110.47     820.00      28.64
110.57     775.00      27.84
110.67     783.00      27.98
110.77     807.00      28.41
110.87     770.00      27.75
110.97     703.47      26.52
111.07     694.00      26.34
111.17     714.00      26.72
111.27     767.38      27.70
111.37     660.15      25.69
111.47     656.00      25.61
111.57     694.00      26.34
111.67     694.00      26.34
111.77     686.00      26.19
111.87     683.00      26.13
111.97     630.00      25.10
112.07     625.59      25.01
112.17     650.00      25.50
112.27     665.00      25.79
112.37     642.00      25.34
112.47     647.00      25.44
112.57     623.00      24.96
112.67     625.00      25.00
112.77     654.00      25.57
112.87     652.49      25.54
112.97     647.00      25.44
113.07     648.00      25.46
113.17     645.00      25.40
113.27     586.64      24.22
113.37     663.00      25.75
113.47     671.95      25.92
113.57     622.69      24.95
113.67     672.84      25.94
113.77     634.00      25.18
113.87     619.00      24.88
113.97     665.06      25.79
114.07     659.00      25.67
114.17     705.00      26.55
114.27     683.00      26.13
114.37     694.00      26.34
114.47     733.35      27.08
114.57     674.00      25.96
114.67     713.00      26.70
114.77     724.87      26.92
114.87     727.00      26.96
114.97     795.00      28.20
115.07     883.58      29.73
115.17     883.00      29.72
115.27     940.35      30.67
115.37     904.00      30.07
115.47    1054.00      32.47
115.57    1139.00      33.75
115.67    1157.00      34.01
115.77    1422.93      37.72
115.87    1530.08      39.12
115.97    1741.00      41.73
116.07    1854.00      43.06
116.17    1953.88      44.20
116.27    2288.61      47.84
116.37    2559.00      50.59
116.47    2764.00      52.57
116.57    3224.63      56.79
116.67    3377.73      58.12
116.77    3954.34      62.88
116.87    4288.00      65.48
116.97    4588.18      67.74
117.07    4919.00      70.14
117.17    5424.00      73.65
117.27    5845.63      76.46
117.37    6119.00      78.22
117.47    6513.00      80.70
117.57    6877.66      82.93
117.67    7163.21      84.64
117.77    7473.88      86.45
117.87    7438.02      86.24
117.97    7549.00      86.88
118.07    7627.21      87.33
118.17    7556.00      86.93
118.27    7533.00      86.79
118.37    7168.65      84.67
118.47    6997.36      83.65
118.57    6794.00      82.43
118.67    6350.00      79.69
118.77    5977.00      77.31
118.87    5854.88      76.52
118.97    5219.00      72.24
119.07    4872.73      69.80
119.17    4625.00      68.01
119.27    4344.54      65.91
119.37    3953.00      62.87
119.47    3485.20      59.04
119.57    3299.00      57.44
119.67    3021.00      54.96
119.77    2654.28      51.52
119.87    2326.00      48.23
119.97    2235.93      47.29
120.07    2020.00      44.94
120.17    1823.90      42.71
120.27    1608.99      40.11
120.37    1492.00      38.63
120.47    1426.73      37.77
120.57    1294.00      35.97
120.67    1235.00      35.14
120.77    1150.00      33.91
120.87    1083.00      32.91
120.97    1042.97      32.30
121.07     902.88      30.05
121.17     886.00      29.77
121.27     866.00      29.43
121.37     914.00      30.23
121.47     870.39      29.50
121.57     833.00      28.86
121.67     751.00      27.40
121.77     779.00      27.91
121.87     796.78      28.23
121.97     723.00      26.89
122.07     763.30      27.63
122.17     685.00      26.17
122.27     737.14      27.15
122.37     718.00      26.80
122.47     722.00      26.87
122.57     742.30      27.25
122.67     749.91      27.38
122.77     697.00      26.40
122.87     774.00      27.82
122.97     727.00      26.96
123.07     720.09      26.83
123.17     728.33      26.99
123.27     713.00      26.70
123.37     694.00      26.34
123.47     785.95      28.03
123.57     740.09      27.20
123.67     764.00      27.64
123.77     770.00      27.75
123.87     824.23      28.71
123.97     773.00      27.80
124.07     738.00      27.17
124.17     814.00      28.53
124.27     801.00      28.30
124.37     766.00      27.68
124.47     803.00      28.34
124.57     778.00      27.89
124.67     807.00      28.41
124.77     794.00      28.18
124.87     740.61      27.21
124.97     805.00      28.37
