  9.97     695.00      26.36
 10.07     702.00      26.50
 10.17     714.00      26.72
 10.27     653.00      25.55
 10.37     727.00      26.96
 10.47     697.00      26.40
 10.57     658.63      25.66
 10.67     700.00      26.46
 10.77     675.36      25.99
 10.87     686.00      26.19
 10.97     739.00      27.18
 11.07     731.68      27.05
 11.17     678.00      26.04
 11.27     666.00      25.81
 11.37     698.00      26.42
 11.47     649.47      25.48
 11.57     695.00      26.36
 11.67     689.00      26.25
 11.77     816.00      28.57
 11.87     712.57      26.69
 11.97     801.00      28.30
 12.07     764.45      27.65
 12.17     822.00      28.67
 12.27     829.00      28.79
 12.37     806.15      28.39
 12.47     764.38      27.65
 12.57     723.00      26.89
 12.67     685.00      26.17
 12.77     715.00      26.74
 12.87     703.00      26.51
 12.97     619.00      24.88
 13.07     660.00      25.69
 13.17     672.14      25.93
 13.27     625.00      25.00
 13.37     676.84      26.02
 13.47     678.00      26.04
 13.57     642.54      25.35
 13.67     676.00      26.00
 13.77     710.00      26.65
 13.87     664.30      25.77
 13.97     685.00      26.17
 14.07     653.00      25.55
 14.17     611.85      24.74
 14.27     641.00      25.32
 14.37     680.00      26.08
 14.47     700.00      26.46
 14.57     651.00      25.51
 14.67     608.26      24.66
 14.77     642.00      25.34
 14.87     623.00      24.96
 14.97     607.00      24.64
 15.07     612.09      24.74
 15.17     656.00      25.61
 15.27     671.00      25.90
 15.37     695.57      26.37
 15.47     636.00      25.22
 15.57     609.23      24.68
 15.67     629.70      25.09
 15.77     607.00      24.64
 15.87     661.00      25.71
 15.97     661.00      25.71
 16.07     619.00      24.88
 16.17     612.75      24.75
 16.27     617.00      24.84
 16.37     604.00      24.58
 16.47     627.00      25.04
 16.57     651.32      25.52
 16.67     631.00      25.12
 16.77     612.00      24.74
 16.87     602.56      24.55
 16.97     679.73      26.07
 17.07     610.00      24.70
 17.17     678.00      26.04
 17.27     646.00      25.42
 17.37     689.00      26.25
 17.47     629.44      25.09
 17.57     621.87      24.94
 17.67     682.51      26.12
 17.77     589.00      24.27
 17.87     588.00      24.25
 17.97     635.00      25.20
 18.07     600.74      24.51
 18.17     679.30      26.06
 18.27     669.55      25.88
 18.37     619.60      24.89
 18.47     606.14      24.62
 18.57     638.00      25.26
 18.67     673.36      25.95
 18.77     623.67      24.97
 18.87     596.00      24.41
 18.97     658.00      25.65
 19.07     624.10      24.98
 19.17     601.00      24.52
 19.27     660.18      25.69
 19.37     631.00      25.12
 19.47     626.00      25.02
 19.57     604.74      24.59
 19.67     606.00      24.62
 19.77     609.50      24.69
 19.87     622.00      24.94
 19.97     616.61      24.83
 20.07     582.10      24.13
 20.17     617.00      24.84
 20.27     569.00      23.85
 20.37     630.86      25.12
 20.47     629.00      25.08
 20.57     580.04      24.08
 20.67     574.45      23.97
 20.77     593.00      24.35
 20.87     628.00      25.06
 20.97     617.85      24.86
 21.07     570.00      23.87
 21.17     629.96      25.10
 21.27     628.00      25.06
 21.37     616.00      24.82
 21.47     637.53      25.25
 21.57     655.70      25.61
 21.67     657.04      25.63
 21.77     597.00      24.43
 21.87     567.00      23.81
 21.97     565.00      23.77
 22.07     599.00      24.47
 22.17     543.00      23.30
 22.27     595.49      24.40
 22.37     641.33      25.32
 22.47     601.00      24.52
 22.57     585.15      24.19
 22.67     615.00      24.80
 22.77     602.00      24.54
 22.87     580.00      24.08
 22.97     622.00      24.94
 23.07     596.64      24.43
 23.17     570.00      23.87
 23.27     627.00      25.04
 23.37     634.00      25.18
 23.47     655.55      25.60
 23.57     605.00      24.60
 23.67     657.00      25.63
 23.77     620.85      24.92
 23.87     596.00      24.41
 23.97     638.04      25.26
 24.07     601.68      24.53
 24.17     650.92      25.51
 24.27     601.00      24.52
 24.37     648.00      25.46
 24.47     610.88      24.72
 24.57     610.53      24.71
 24.67     678.00      26.04
 24.77     692.00      26.31
 24.87     671.00      25.90
 24.97     703.00      26.51
 25.07     632.00      25.14
 25.17     683.00      26.13
 25.27     676.00      26.00
 25.37     652.00      25.53
 25.47     680.00      26.08
 25.57     588.28      24.25
 25.67     651.00      25.51
 25.77     577.00      24.02
 25.87     646.75      25.43
 25.97     586.63      24.22
 26.07     594.51      24.38
 26.17     625.91      25.02
 26.27     653.00      25.55
 26.37     646.00      25.42
 26.47     688.00      26.23
 26.57     640.42      25.31
 26.67     605.94      24.62
 26.77     676.00      26.00
 26.87     637.00      25.24
 26.97     698.00      26.42
 27.07     627.23      25.04
 27.17     704.00      26.53
 27.27     666.00      25.81
 27.37     727.75      26.98
 27.47     719.53      26.82
 27.57     702.00      26.50
 27.67     818.00      28.60
 27.77     897.00      29.95
 27.87    1003.06      31.67
 27.97    1347.00      36.70
 28.07    1827.00      42.74
 28.17    3079.00      55.49
 28.27    4770.68      69.07
 28.37    6354.00      79.71
 28.47    6757.39      82.20
 28.57    6123.00      78.25
 28.67    4519.16      67.22
 28.77    3310.00      57.53
 28.87    2963.00      54.43
 28.97    3367.00      58.03
 29.07    3805.00      61.68
 29.17    3899.00      62.44
 29.27    3419.00      58.47
 29.37    2674.56      51.72
 29.47    1710.00      41.35
 29.57    1295.00      35.99
 29.67     979.79      31.30
 29.77     902.84      30.05
 29.87     823.00      28.69
 29.97     710.56      26.66
 30.07     753.00      27.44
 30.17     731.00      27.04
 30.27     696.69      26.39
 30.37     685.00      26.17
 30.47     673.00      25.94
 30.57     697.00      26.40
 30.67     691.00      26.29
 30.77     653.00      25.55
 30.87     700.00      26.46
 30.97     699.07      26.44
 31.07     688.99      26.25
 31.17     762.86      27.62
 31.27     759.00      27.55
 31.37     682.04      26.12
 31.47     669.00      25.87
 31.57     677.00      26.02
 31.67     600.09      24.50
 31.77     702.00      26.50
 31.87     676.00      26.00
 31.97     559.18      23.65
 32.07     662.00      25.73
 32.17     604.00      24.58
 32.27     598.12      24.46
 32.37     618.00      24.86
 32.47     626.00      25.02
 32.57     607.00      24.64
 32.67     588.82      24.27
 32.77     629.00      25.08
 32.87     642.00      25.34
 32.97     578.00      24.04
 33.07     640.00      25.30
 33.17     646.09      25.42
 33.27     626.00      25.02
 33.37     599.90      24.49
 33.47     640.00      25.30
 33.57     587.55      24.24
 33.67     641.00      25.32
 33.77     681.00      26.10
 33.87     729.00      27.00
 33.97     845.44      29.08
 34.07     966.00      31.08
 34.17    1097.00      33.12
 34.27    1158.00      34.03
 34.37    1210.00      34.79
 34.47    1123.00      33.51
 34.57     938.00      30.63
 34.67     818.00      28.60
 34.77     781.33      27.95
 34.87     684.00      26.15
 34.97     652.00      25.53
 35.07     643.00      25.36
 35.17     622.00      24.94
 35.27     643.00      25.36
 35.37     616.00      24.82
 35.47     617.00      24.84
 35.57     620.00      24.90
 35.67     657.00      25.63
 35.77     612.00      24.74
 35.87     550.94      23.47
 35.97     606.00      24.62
 36.07     602.00      24.54
 36.17     582.04      24.13
 36.27     591.00      24.31
 36.37     599.00      24.47
 36.47     534.87      23.13
 36.57     552.00      23.49
 36.67     589.00      24.27
 36.77     582.00      24.12
 36.87     588.00      24.25
 36.97     586.00      24.21
 37.07     617.00      24.84
 37.17     635.09      25.20
 37.27     628.00      25.06
 37.37     541.71      23.27
 37.47     554.61      23.55
 37.57     598.00      24.45
 37.67     629.00      25.08
 37.77     625.73      25.01
 37.87     590.01      24.29
 37.97     698.00      26.42
 38.07     649.91      25.49
 38.17     682.88      26.13
 38.27     721.00      26.85
 38.37     763.00      27.62
 38.47     675.00      25.98
 38.57     668.09      25.85
 38.67     630.00      25.10
 38.77     590.52      24.30
 38.87     590.96      24.31
 38.97     599.00      24.47
 39.07     606.00      24.62
 39.17     549.00      23.43
 39.27     560.00      23.66
 39.37     565.00      23.77
 39.47     561.00      23.69
 39.57     587.00      24.23
 39.67     563.00      23.73
 39.77     597.00      24.43
 39.87     591.00      24.31
 39.97     597.00      24.43
 40.07     602.96      24.56
 40.17     574.00      23.96
 40.27     547.50      23.40
 40.37     606.14      24.62
 40.47     591.80      24.33
 40.57     555.00      23.56
 40.67     544.65      23.34
 40.77     585.00      24.19
 40.87     575.00      23.98
 40.97     574.00      23.96
 41.07     580.00      24.08
 41.17     568.00      23.83
 41.27     622.99      24.96
 41.37     598.00      24.45
 41.47     609.13      24.68
 41.57     553.00      23.52
 41.67     597.00      24.43
 41.77     595.75      24.41
 41.87     545.88      23.36
 41.97     592.00      24.33
 42.07     627.13      25.04
 42.17     583.00      24.15
 42.27     599.00      24.47
 42.37     546.00      23.37
 42.47     612.60      24.75
 42.57     597.00      24.43
 42.67     600.00      24.49
 42.77     586.00      24.21
 42.87     627.00      25.04
 42.97     704.00      26.53
 43.07     680.00      26.08
 43.17     671.00      25.90
 43.27     661.00      25.71
 43.37     604.00      24.58
 43.47     629.00      25.08
 43.57     585.18      24.19
 43.67     571.19      23.90
 43.77     617.16      24.84
 43.87     604.00      24.58
 43.97     627.13      25.04
 44.07     583.00      24.15
 44.17     626.00      25.02
 44.27     571.00      23.90
 44.37     579.00      24.06
 44.47     594.00      24.37
 44.57     645.00      25.40
 44.67     562.00      23.71
 44.77     580.00      24.08
 44.87     612.00      24.74
 44.97     583.00      24.15
 45.07     586.00      24.21
 45.17     611.37      24.73
 45.27     604.00      24.58
 45.37     567.87      23.83
 45.47     610.00      24.70
 45.57     522.00      22.85
 45.67     620.00      24.90
 45.77     639.00      25.28
 45.87     603.13      24.56
 45.97     591.51      24.32
 46.07     629.00      25.08
 46.17     573.00      23.94
 46.27     566.65      23.80
 46.37     581.00      24.10
 46.47     601.00      24.52
 46.57     613.84      24.78
 46.67     599.67      24.49
 46.77     578.00      24.04
 46.87     562.00      23.71
 46.97     598.00      24.45
 47.07     601.00      24.52
 47.17     575.00      23.98
 47.27     573.00      23.94
 47.37     604.68      24.59
 47.47     603.00      24.56
 47.57     581.59      24.12
 47.67     634.00      25.18
 47.77     624.00      24.98
 47.87     632.00      25.14
 47.97     641.00      25.32
 48.07     629.00      25.08
 48.17     664.00      25.77
 48.27     655.00      25.59
 48.37     653.23      25.56
 48.47     647.27      25.44
 48.57     639.00      25.28
 48.67     602.00      24.54
 48.77     582.00      24.12
 48.87     612.00      24.74
 48.97     596.00      24.41
 49.07     612.00      24.74
 49.17     621.00      24.92
 49.27     647.00      25.44
 49.37     608.00      24.66
 49.47     618.80      24.88
 49.57     693.78      26.34
 49.67     696.23      26.39
 49.77     721.00      26.85
 49.87     829.30      28.80
 49.97     966.00      31.08
 50.07    1186.00      34.44
 50.17    1599.00      39.99
 50.27    2103.89      45.87
 50.37    2522.00      50.22
 50.47    2859.31      53.47
 50.57    2994.00      54.72
 50.67    2816.00      53.07
 50.77    2431.00      49.31
 50.87    1964.00      44.32
 50.97    1495.27      38.67
 51.07    1176.00      34.29
 51.17    1038.00      32.22
 51.27     826.35      28.75
 51.37     800.76      28.30
 51.47     732.09      27.06
 51.57     695.53      26.37
 51.67     728.00      26.98
 51.77     726.00      26.94
 51.87     691.30      26.29
 51.97     715.00      26.74
 52.07     700.00      26.46
 52.17     617.80      24.86
 52.27     704.00      26.53
 52.37     695.00      26.36
 52.47     674.00      25.96
 52.57     674.00      25.96
 52.67     694.00      26.34
 52.77     605.78      24.61
 52.87     616.67      24.83
 52.97     702.00      26.50
 53.07     680.00      26.08
 53.17     704.80      26.55
 53.27     782.00      27.96
 53.37     799.00      28.27
 53.47     890.00      29.83
 53.57     999.00      31.61
 53.67    1092.45      33.05
 53.77    1173.00      34.25
 53.87    1323.00      36.37
 53.97    1365.00      36.95
 54.07    1276.00      35.72
 54.17    1187.12      34.45
 54.27     966.00      31.08
 54.37     896.00      29.93
 54.47     822.17      28.67
 54.57     789.20      28.09
 54.67     724.00      26.91
 54.77     674.00      25.96
 54.87     684.62      26.17
 54.97     659.77      25.69
 55.07     608.43      24.67
 55.17     655.78      25.61
 55.27     662.83      25.75
 55.37     616.00      24.82
 55.47     654.00      25.57
 55.57     656.00      25.61
 55.67     617.00      24.84
 55.77     700.56      26.47
 55.87     682.39      26.12
 55.97     686.00      26.19
 56.07     708.81      26.62
 56.17     693.00      26.32
 56.27     698.92      26.44
 56.37     772.00      27.78
 56.47     873.64      29.56
 56.57     943.00      30.71
 56.67    1140.74      33.77
 56.77    1354.00      36.80
 56.87    1618.00      40.22
 56.97    1923.03      43.85
 57.07    2224.89      47.17
 57.17    2566.00      50.66
 57.27    2541.02      50.41
 57.37    2532.20      50.32
 57.47    2465.00      49.65
 57.57    2145.00      46.31
 57.67    1810.00      42.54
 57.77    1459.00      38.20
 57.87    1245.00      35.28
 57.97    1043.00      32.30
 58.07     907.97      30.13
 58.17     826.00      28.74
 58.27     737.00      27.15
 58.37     775.00      27.84
 58.47     819.00      28.62
 58.57     766.00      27.68
 58.67     853.00      29.21
 58.77     908.00      30.13
 58.87     944.27      30.73
 58.97    1093.00      33.06
 59.07    1172.70      34.24
 59.17    1268.00      35.61
 59.27    1283.00      35.82
 59.37    1295.00      35.99
 59.47    1391.36      37.30
 59.57    1358.00      36.85
 59.67    1208.36      34.76
 59.77    1255.00      35.43
 59.87    1193.99      34.55
 59.97    1228.00      35.04
 60.07    1244.00      35.27
 60.17    1309.00      36.18
 60.27    1337.92      36.58
 60.37    1407.79      37.52
 60.47    1514.00      38.91
 60.57    1590.00      39.87
 60.67    1650.00      40.62
 60.77    1530.00      39.12
 60.87    1430.52      37.82
 60.97    1267.26      35.60
 61.07    1218.00      34.90
 61.17    1061.25      32.58
 61.27     915.77      30.26
 61.37     846.85      29.10
 61.47     813.00      28.51
 61.57     805.00      28.37
 61.67     795.00      28.20
 61.77     820.91      28.65
 61.87     840.00      28.98
 61.97     891.00      29.85
 62.07    1093.11      33.06
 62.17    1133.94      33.67
 62.27    1266.00      35.58
 62.37    1447.02      38.04
 62.47    1587.00      39.84
 62.57    1683.00      41.02
 62.67    1628.00      40.35
 62.77    1614.00      40.17
 62.87    1473.00      38.38
 62.97    1268.00      35.61
 63.07    1177.00      34.31
 63.17    1046.91      32.36
 63.27     923.65      30.39
 63.37     829.77      28.81
 63.47     771.00      27.77
 63.57     688.22      26.23
 63.67     729.00      27.00
 63.77     758.00      27.53
 63.87     703.00      26.51
 63.97     667.00      25.83
 64.07     739.04      27.19
 64.17     720.95      26.85
 64.27     697.69      26.41
 64.37     786.00      28.04
 64.47     825.13      28.73
 64.57     903.12      30.05
 64.67    1048.00      32.37
 64.77    1103.00      33.21
 64.87    1148.64      33.89
 64.97    1342.00      36.63
 65.07    1450.00      38.08
 65.17    1469.00      38.33
 65.27    1429.58      37.81
 65.37    1449.17      38.07
 65.47    1400.00      37.42
 65.57    1248.81      35.34
 65.67    1103.00      33.21
 65.77    1056.00      32.50
 65.87     899.00      29.98
 65.97     872.18      29.53
 66.07     854.00      29.22
 66.17     740.00      27.20
 66.27     790.71      28.12
 66.37     668.04      25.85
 66.47     734.26      27.10
 66.57     668.18      25.85
 66.67     661.00      25.71
 66.77     631.00      25.12
 66.87     685.00      26.17
 66.97     648.00      25.46
 67.07     657.32      25.64
 67.17     693.09      26.33
 67.27     645.00      25.40
 67.37     691.00      26.29
 67.47     730.85      27.03
 67.57     764.00      27.64
 67.67     860.74      29.34
 67.77     967.00      31.10
 67.87    1043.00      32.30
 67.97    1242.46      35.25
 68.07    1448.00      38.05
 68.17    1714.22      41.40
 68.27    2003.59      44.76
 68.37    2126.00      46.11
 68.47    2377.00      48.75
 68.57    2515.27      50.15
 68.67    2526.76      50.27
 68.77    2410.00      49.09
 68.87    2355.00      48.53
 68.97    1890.61      43.48
 69.07    1691.26      41.12
 69.17    1502.00      38.76
 69.27    1359.62      36.87
 69.37    1154.35      33.98
 69.47    1036.00      32.19
 69.57     939.00      30.64
 69.67     823.50      28.70
 69.77     871.00      29.51
 69.87     818.00      28.60
 69.97     647.37      25.44
 70.07     781.00      27.95
 70.17     680.00      26.08
 70.27     708.00      26.61
 70.37     669.00      25.87
 70.47     659.00      25.67
 70.57     638.85      25.28
 70.67     701.00      26.48
 70.77     659.00      25.67
 70.87     678.00      26.04
 70.97     627.93      25.06
 71.07     628.61      25.07
 71.17     642.46      25.35
 71.27     737.00      27.15
 71.37     733.00      27.07
 71.47     721.00      26.85
 71.57     785.00      28.02
 71.67     879.00      29.65
 71.77     936.00      30.59
 71.87    1074.00      32.77
 71.97    1234.00      35.13
 72.07    1317.58      36.30
 72.17    1518.00      38.96
 72.27    1674.00      40.91
 72.37    1796.00      42.38
 72.47    1897.66      43.56
 72.57    2029.43      45.05
 72.67    1870.00      43.24
 72.77    1821.93      42.68
 72.87    1778.00      42.17
 72.97    1621.32      40.27
 73.07    1486.00      38.55
 73.17    1264.00      35.55
 73.27    1106.00      33.26
 73.37     990.12      31.47
 73.47     887.00      29.78
 73.57     841.00      29.00
 73.67     741.00      27.22
 73.77     744.00      27.28
 73.87     703.00      26.51
 73.97     690.00      26.27
 74.07     650.00      25.50
 74.17     638.00      25.26
 74.27     698.00      26.42
 74.37     607.00      24.64
 74.47     634.00      25.18
 74.57     622.00      24.94
 74.67     618.43      24.87
 74.77     623.00      24.96
 74.87     702.00      26.50
 74.97     694.00      26.34
 75.07     637.76      25.25
 75.17     688.33      26.24
 75.27     672.97      25.94
 75.37     625.89      25.02
 75.47     700.00      26.46
 75.57     679.00      26.06
 75.67     639.00      25.28
 75.77     633.67      25.17
 75.87     664.05      25.77
 75.97     625.00      25.00
 76.07     618.27      24.87
 76.17     702.10      26.50
 76.27     684.00      26.15
 76.37     729.00      27.00
 76.47     756.00      27.50
 76.57     766.00      27.68
 76.67     764.30      27.65
 76.77     863.00      29.38
 76.87     861.00      29.34
 76.97     973.00      31.19
 77.07     968.23      31.12
 77.17    1014.00      31.84
 77.27     980.62      31.31
 77.37     982.56      31.35
 77.47     941.00      30.68
 77.57     889.81      29.83
 77.67     833.29      28.87
 77.77     790.00      28.11
 77.87     786.00      28.04
 77.97     692.00      26.31
 78.07     667.00      25.83
 78.17     617.00      24.84
 78.27     698.63      26.43
 78.37     622.00      24.94
 78.47     588.07      24.25
 78.57     621.00      24.92
 78.67     577.71      24.04
 78.77     577.00      24.02
 78.87     601.11      24.52
 78.97     643.09      25.36
 79.07     579.76      24.08
 79.17     620.00      24.90
 79.27     600.00      24.49
 79.37     597.00      24.43
 79.47     643.21      25.36
 79.57     615.00      24.80
 79.67     599.00      24.47
 79.77     633.26      25.16
 79.87     614.00      24.78
 79.97     575.00      23.98
 80.07     658.39      25.66
 80.17     621.00      24.92
 80.27     660.75      25.71
 80.37     617.00      24.84
 80.47     673.00      25.94
 80.57     702.68      26.51
 80.67     724.00      26.91
 80.77     793.83      28.17
 80.87     836.14      28.92
 80.97     911.00      30.18
 81.07     890.34      29.84
 81.17     967.77      31.11
 81.27    1126.00      33.56
 81.37    1215.00      34.86
 81.47    1226.00      35.01
 81.57    1196.26      34.59
 81.67    1316.00      36.28
 81.77    1362.00      36.91
 81.87    1323.50      36.38
 81.97    1180.33      34.36
 82.07    1233.65      35.12
 82.17    1240.00      35.21
 82.27    1151.00      33.93
 82.37    1062.34      32.59
 82.47    1058.00      32.53
 82.57     934.66      30.57
 82.67     859.00      29.31
 82.77     817.85      28.60
 82.87     759.00      27.55
 82.97     802.28      28.32
 83.07     770.51      27.76
 83.17     691.00      26.29
 83.27     640.00      25.30
 83.37     660.66      25.70
 83.47     635.00      25.20
 83.57     706.91      26.59
 83.67     619.00      24.88
 83.77     616.00      24.82
 83.87     642.53      25.35
 83.97     647.00      25.44
 84.07     695.60      26.37
 84.17     702.33      26.50
 84.27     633.00      25.16
 84.37     683.00      26.13
 84.47     617.00      24.84
 84.57     574.00      23.96
 84.67     634.00      25.18
 84.77     648.00      25.46
 84.87     616.00      24.82
 84.97     589.00      24.27
 85.07     600.82      24.51
 85.17     640.00      25.30
 85.27     631.76      25.13
 85.37     601.00      24.52
 85.47     564.00      23.75
 85.57     574.00      23.96
 85.67     548.00      23.41
 85.77     609.00      24.68
 85.87     595.00      24.39
 85.97     591.68      24.32
 86.07     608.00      24.66
 86.17     600.00      24.49
 86.27     592.00      24.33
 86.37     610.53      24.71
 86.47     598.58      24.47
 86.57     626.00      25.02
 86.67     579.88      24.08
 86.77     603.19      24.56
 86.87     668.59      25.86
 86.97     660.10      25.69
 87.07     659.95      25.69
 87.17     647.02      25.44
 87.27     673.00      25.94
 87.37     619.63      24.89
 87.47     675.58      25.99
 87.57     690.00      26.27
 87.67     682.00      26.12
 87.77     733.00      27.07
 87.87     693.00      26.32
 87.97     684.62      26.17
 88.07     733.00      27.07
 88.17     752.00      27.42
 88.27     736.00      27.13
 88.37     654.22      25.58
 88.47     706.00      26.57
 88.57     654.56      25.58
 88.67     724.37      26.91
 88.77     686.00      26.19
 88.87     705.55      26.56
 88.97     639.38      25.29
 89.07     556.00      23.58
 89.17     639.84      25.30
 89.27     680.00      26.08
 89.37     636.00      25.22
 89.47     635.13      25.20
 89.57     639.00      25.28
 89.67     653.00      25.55
 89.77     685.00      26.17
 89.87     673.00      25.94
 89.97     661.00      25.71
 90.07     677.00      26.02
 90.17     646.71      25.43
 90.27     638.00      25.26
 90.37     623.00      24.96
 90.47     640.00      25.30
 90.57     630.00      25.10
 90.67     651.51      25.52
 90.77     636.70      25.23
 90.87     572.00      23.92
 90.97     584.00      24.17
 91.07     586.00      24.21
 91.17     569.00      23.85
 91.27     560.00      23.66
 91.37     557.00      23.60
 91.47     587.00      24.23
 91.57     600.00      24.49
 91.67     574.88      23.98
 91.77     600.00      24.49
 91.87     570.00      23.87
 91.97     531.60      23.06
 92.07     592.00      24.33
 92.17     591.00      24.31
 92.27     551.00      23.47
 92.37     564.90      23.77
 92.47     566.66      23.80
 92.57     591.00      24.31
 92.67     590.00      24.29
 92.77     654.44      25.58
 92.87     650.00      25.50
 92.97     680.07      26.08
 93.07     636.24      25.22
 93.17     632.00      25.14
 93.27     639.00      25.28
 93.37     738.43      27.17
 93.47     699.61      26.45
 93.57     764.98      27.66
 93.67     723.54      26.90
 93.77     738.69      27.18
 93.87     787.26      28.06
 93.97     802.00      28.32
 94.07     755.00      27.48
 94.17     802.73      28.33
 94.27     812.00      28.50
 94.37     847.00      29.10
 94.47     890.00      29.83
 94.57     883.00      29.72
 94.67     899.79      30.00
 94.77     934.25      30.57
 94.87     924.00      30.40
 94.97     934.46      30.57
 95.07     970.00      31.14
 95.17    1016.45      31.88
 95.27    1004.00      31.69
 95.37    1051.51      32.43
 95.47    1039.00      32.23
 95.57    1030.00      32.09
 95.67     999.00      31.61
 95.77    1054.65      32.48
 95.87     911.97      30.20
 95.97    1012.00      31.81
 96.07     906.96      30.12
 96.17     906.00      30.10
 96.27     885.00      29.75
 96.37     892.04      29.87
 96.47     854.00      29.22
 96.57     776.00      27.86
 96.67     791.00      28.12
 96.77     814.00      28.53
 96.87     778.00      27.89
 96.97     803.02      28.34
 97.07     886.00      29.77
 97.17     893.00      29.88
 97.27     889.87      29.83
 97.37     975.00      31.22
 97.47    1046.91      32.36
 97.57    1072.77      32.75
 97.67    1163.00      34.10
 97.77    1241.00      35.23
 97.87    1304.00      36.11
 97.97    1410.00      37.55
 98.07    1447.02      38.04
 98.17    1419.85      37.68
 98.27    1570.00      39.62
 98.37    1568.70      39.61
 98.47    1512.00      38.88
 98.57    1570.12      39.62
 98.67    1469.00      38.33
 98.77    1518.18      38.96
 98.87    1395.15      37.35
 98.97    1362.00      36.91
 99.07    1251.00      35.37
 99.17    1334.00      36.52
 99.27    1219.00      34.91
 99.37    1086.00      32.95
 99.47    1026.00      32.03
 99.57     986.00      31.40
 99.67     975.55      31.23
 99.77     913.67      30.23
 99.87     925.67      30.42
 99.97     975.00      31.22
100.07    1047.00      32.36
100.17    1072.00      32.74
100.27    1144.00      33.82
100.37    1186.00      34.44
100.47    1300.00      36.06
100.57    1364.73      36.94
100.67    1406.00      37.50
100.77    1555.00      39.43
100.87    1532.00      39.14
100.97    1718.00      41.45
101.07    1809.00      42.53
101.17    1871.00      43.26
101.27    1988.00      44.59
101.37    1899.47      43.58
101.47    2089.00      45.71
101.57    2113.00      45.97
101.67    2076.19      45.57
101.77    2043.85      45.21
101.87    2027.10      45.02
101.97    1962.37      44.30
102.07    1990.00      44.61
102.17    1952.79      44.19
102.27    1809.08      42.53
102.37    1744.00      41.76
102.47    1674.00      40.91
102.57    1622.00      40.27
102.67    1545.00      39.31
102.77    1410.00      37.55
102.87    1387.00      37.24
102.97    1355.00      36.81
103.07    1374.09      37.07
103.17    1239.00      35.20
103.27    1279.68      35.77
103.37    1196.00      34.58
103.47    1206.12      34.73
103.57    1254.51      35.42
103.67    1162.33      34.09
103.77    1077.00      32.82
103.87    1077.00      32.82
103.97    1023.00      31.98
104.07    1023.11      31.99
104.17     991.33      31.49
104.27     910.00      30.17
104.37     926.44      30.44
104.47     922.19      30.37
104.57     808.00      28.43
104.67     776.00      27.86
104.77     779.00      27.91
104.87     784.00      28.00
104.97     756.00      27.50
105.07     686.82      26.21
105.17     678.00      26.04
105.27     637.00      25.24
105.37     653.95      25.57
105.47     667.00      25.83
105.57     677.00      26.02
105.67     646.00      25.42
105.77     623.46      24.97
105.87     604.36      24.58
105.97     638.00      25.26
106.07     611.10      24.72
106.17     622.00      24.94
106.27     591.00      24.31
106.37     609.00      24.68
106.47     626.00      25.02
106.57     613.00      24.76
106.67     570.41      23.88
106.77     622.00      24.94
106.87     670.00      25.88
106.97     661.00      25.71
107.07     673.00      25.94
107.17     669.00      25.87
107.27     626.48      25.03
107.37     667.00      25.83
107.47     682.00      26.12
107.57     662.00      25.73
107.67     652.52      25.54
107.77     694.09      26.35
107.87     746.00      27.31
107.97     745.00      27.29
108.07     726.84      26.96
108.17     785.00      28.02
108.27     725.00      26.93
108.37     715.35      26.75
108.47     745.00      27.29
108.57     699.00      26.44
108.67     750.63      27.40
108.77     768.56      27.72
108.87     720.00      26.83
108.97     697.00      26.40
109.07     787.91      28.07
109.17     813.42      28.52
109.27     739.00      27.18
109.37     715.00      26.74
109.47     738.00      27.17
109.57     722.00      26.87
109.67     741.00      27.22
109.77     713.00      26.70
109.87     751.98      27.42
109.97     725.62      26.94
110.07     735.00      27.11
110.17     776.00      27.86
110.27     733.00      27.07
110.37     737.00      27.15
110.47     739.78      27.20
110.57     723.00      26.89
110.67     706.00      26.57
110.77     726.00      26.94
110.87     651.00      25.51
110.97     719.00      26.81
111.07     657.00      25.63
111.17     696.32      26.39
111.27     687.15      26.21
111.37     628.49      25.07
111.47     584.95      24.19
111.57     601.57      24.53
111.67     587.04      24.23
111.77     614.59      24.79
111.87     611.00      24.72
111.97     567.00      23.81
112.07     612.00      24.74
112.17     625.00      25.00
112.27     576.00      24.00
112.37     626.00      25.02
112.47     613.65      24.77
112.57     577.00      24.02
112.67     546.56      23.38
112.77     642.00      25.34
112.87     597.00      24.43
112.97     617.52      24.85
113.07     600.00      24.49
113.17     585.29      24.19
113.27     603.00      24.56
113.37     598.00      24.45
113.47     622.28      24.95
113.57     611.00      24.72
113.67     659.00      25.67
113.77     651.69      25.53
113.87     595.74      24.41
113.97     598.00      24.45
114.07     663.00      25.75
114.17     629.00      25.08
114.27     665.86      25.80
114.37     667.05      25.83
114.47     736.05      27.13
114.57     707.00      26.59
114.67     687.25      26.22
114.77     775.83      27.85
114.87     734.00      27.09
114.97     830.00      28.81
115.07     864.85      29.41
115.17     938.00      30.63
115.27     972.00      31.18
115.37    1112.90      33.36
115.47    1146.00      33.85
115.57    1291.00      35.93
115.67    1476.00      38.42
115.77    1632.00      40.40
115.87    1841.57      42.91
115.97    2036.00      45.12
116.07    2206.00      46.97
116.17    2538.38      50.38
116.27    2770.00      52.63
116.37    3171.00      56.31
116.47    3615.99      60.13
116.57    3737.02      61.13
116.67    4206.00      64.85
116.77    4622.00      67.99
116.87    4994.28      70.67
116.97    5355.00      73.18
117.07    5905.86      76.85
117.17    6093.00      78.06
117.27    6628.00      81.41
117.37    6727.00      82.02
117.47    7179.00      84.73
117.57    7316.00      85.53
117.67    7504.81      86.63
117.77    7516.00      86.69
117.87    7458.61      86.36
117.97    7219.43      84.97
118.07    7426.06      86.17
118.17    6894.00      83.03
118.27    6737.00      82.08
118.37    6480.00      80.50
118.47    6045.00      77.75
118.57    5858.00      76.54
118.67    5533.00      74.38
118.77    4988.35      70.63
118.87    4873.00      69.81
118.97    4338.00      65.86
119.07    3945.44      62.81
119.17    3690.00      60.75
119.27    3317.00      57.59
119.37    3073.00      55.43
119.47    2755.95      52.50
119.57    2339.56      48.37
119.67    2135.10      46.21
119.77    2032.00      45.08
119.87    1749.30      41.82
119.97    1679.82      40.99
120.07    1539.00      39.23
120.17    1418.53      37.66
120.27    1320.00      36.33
120.37    1182.00      34.38
120.47    1123.00      33.51
120.57    1086.00      32.95
120.67    1008.43      31.76
120.77     855.09      29.24
120.87     845.71      29.08
120.97     846.00      29.09
121.07     811.00      28.48
121.17     764.00      27.64
121.27     799.00      28.27
121.37     750.81      27.40
121.47     746.00      27.31
121.57     670.00      25.88
121.67     704.00      26.53
121.77     729.57      27.01
121.87     742.52      27.25
121.97     688.18      26.23
122.07     649.00      25.48
122.17     672.25      25.93
122.27     710.22      26.65
122.37     649.91      25.49
122.47     703.79      26.53
122.57     636.00      25.22
122.67     682.00      26.12
122.77     636.00      25.22
122.87     671.00      25.90
122.97     738.00      27.17
123.07     690.00      26.27
123.17     666.00      25.81
123.27     750.87      27.40
123.37     724.16      26.91
123.47     738.65      27.18
123.57     721.00      26.85
123.67     754.95      27.48
123.77     749.86      27.38
123.87     698.47      26.43
123.97     785.00      28.02
124.07     743.00      27.26
124.17     780.00      27.93
124.27     769.75      27.74
124.37     752.00      27.42
124.47     782.48      27.97
124.57     761.05      27.59
124.67     768.00      27.71
124.77     705.51      26.56
124.87     780.00      27.93
124.97     745.99      27.31
