  9.97     508.06      22.54
 10.07     591.00      24.31
 10.17     577.55      24.03
 10.27     583.00      24.15
 10.37     572.00      23.92
 10.47     556.65      23.59
 10.57     586.22      24.21
 10.67     616.00      24.82
 10.77     563.00      23.73
 10.87     564.00      23.75
 10.97     552.00      23.49
 11.07     601.00      24.52
 11.17     575.68      23.99
 11.27     530.33      23.03
 11.37     548.00      23.41
 11.47     622.00      24.94
 11.57     593.00      24.35
 11.67     595.40      24.40
 11.77     602.00      24.54
 11.87     561.80      23.70
 11.97     685.00      26.17
 12.07     636.00      25.22
 12.17     686.00      26.19
 12.27     739.73      27.20
 12.37     710.48      26.65
 12.47     654.00      25.57
 12.57     589.69      24.28
 12.67     629.71      25.09
 12.77     525.00      22.91
 12.87     507.00      22.52
 12.97     526.00      22.93
 13.07     588.00      24.25
 13.17     593.00      24.35
 13.27     567.00      23.81
 13.37     573.00      23.94
 13.47     540.00      23.24
 13.57     563.00      23.73
 13.67     600.82      24.51
 13.77     592.16      24.33
 13.87     560.00      23.66
 13.97     519.00      22.78
 14.07     539.00      23.22
 14.17     605.93      24.62
 14.27     553.38      23.52
 14.37     547.12      23.39
 14.47     555.00      23.56
 14.57     564.00      23.75
 14.67     588.00      24.25
 14.77     533.00      23.09
 14.87     568.00      23.83
 14.97     528.00      22.98
 15.07     552.91      23.51
 15.17     559.00      23.64
 15.27     548.00      23.41
 15.37     551.00      23.47
 15.47     598.33      24.46
 15.57     581.25      24.11
 15.67     543.17      23.31
 15.77     514.93      22.69
 15.87     521.00      22.83
 15.97     544.00      23.32
 16.07     556.00      23.58
 16.17     544.67      23.34
 16.27     538.00      23.19
 16.37     555.00      23.56
 16.47     526.60      22.95
 16.57     582.00      24.12
 16.67     538.35      23.20
 16.77     541.00      23.26
 16.87     529.00      23.00
 16.97     523.00      22.87
 17.07     564.00      23.75
 17.17     541.00      23.26
 17.27     583.19      24.15
 17.37     550.29      23.46
 17.47     584.83      24.18
 17.57     546.00      23.37
 17.67     582.56      24.14
 17.77     546.00      23.37
 17.87     525.83      22.93
 17.97     529.00      23.00
 18.07     590.98      24.31
 18.17     544.00      23.32
 18.27     535.00      23.13
 18.37     534.00      23.11
 18.47     529.00      23.00
 18.57     566.00      23.79
 18.67     540.00      23.24
 18.77     553.00      23.52
 18.87     529.21      23.00
 18.97     515.85      22.71
 19.07     552.46      23.50
 19.17     534.00      23.11
 19.27     538.00      23.19
 19.37     535.00      23.13
 19.47     559.00      23.64
 19.57     538.90      23.21
 19.67     550.00      23.45
 19.77     548.00      23.41
 19.87     548.32      23.42
 19.97     550.94      23.47
 20.07     567.00      23.81
 20.17     543.00      23.30
 20.27     560.00      23.66
 20.37     515.00      22.69
 20.47     557.00      23.60
 20.57     512.00      22.63
 20.67     548.08      23.41
 20.77     537.27      23.18
 20.87     552.00      23.49
 20.97     551.00      23.47
 21.07     588.94      24.27
 21.17     559.00      23.64
 21.27     507.29      22.52
 21.37     543.00      23.30
 21.47     564.43      23.76
 21.57     530.00      23.02
 21.67     511.65      22.62
 21.77     531.00      23.04
 21.87     542.63      23.29
 21.97     588.00      24.25
 22.07     551.48      23.48
 22.17     506.00      22.49
 22.27     524.26      22.90
 22.37     591.00      24.31
 22.47     502.45      22.42
 22.57     601.00      24.52
 22.67     578.00      24.04
 22.77     540.00      23.24
 22.87     538.02      23.20
 22.97     541.00      23.26
 23.07     585.51      24.20
 23.17     579.63      24.08
 23.27     507.00      22.52
 23.37     549.21      23.44
 23.47     537.00      23.17
 23.57     567.00      23.81
 23.67     530.00      23.02
 23.77     558.14      23.62
 23.87     575.71      23.99
 23.97     547.00      23.39
 24.07     564.00      23.75
 24.17     555.00      23.56
 24.27     547.45      23.40
 24.37     612.00      24.74
 24.47     553.00      23.52
 24.57     590.00      24.29
 24.67     569.00      23.85
 24.77     630.00      25.10
 24.87     599.00      24.47
 24.97     663.00      25.75
 25.07     612.00      24.74
 25.17     546.00      23.37
 25.27     591.00      24.31
 25.37     573.00      23.94
 25.47     548.00      23.41
 25.57     588.92      24.27
 25.67     540.00      23.24
 25.77     564.63      23.76
 25.87     542.00      23.28
 25.97     578.00      24.04
 26.07     580.00      24.08
 26.17     546.00      23.37
 26.27     567.00      23.81
 26.37     560.55      23.68
 26.47     583.53      24.16
 26.57     570.00      23.87
 26.67     555.00      23.56
 26.77     574.00      23.96
 26.87     563.28      23.73
 26.97     584.85      24.18
 27.07     580.00      24.08
 27.17     563.00      23.73
 27.27     564.00      23.75
 27.37     525.00      22.91
 27.47     561.13      23.69
 27.57     553.00      23.52
 27.67     574.00      23.96
 27.77     567.00      23.81
 27.87     568.00      23.83
 27.97     618.00      24.86
 28.07     772.00      27.78
 28.17     845.45      29.08
 28.27     914.48      30.24
 28.37     926.00      30.43
 28.47     853.00      29.21
 28.57     797.98      28.25
 28.67     761.00      27.59
 28.77     726.00      26.94
 28.87     755.00      27.48
 28.97     819.95      28.63
 29.07     784.00      28.00
 29.17     782.82      27.98
 29.27     666.00      25.81
 29.37     572.00      23.92
 29.47     575.00      23.98
 29.57     603.00      24.56
 29.67     531.93      23.06
 29.77     603.00      24.56
 29.87     530.40      23.03
 29.97     579.00      24.06
 30.07     569.49      23.86
 30.17     586.47      24.22
 30.27     588.00      24.25
 30.37     548.00      23.41
 30.47     527.41      22.97
 30.57     570.33      23.88
 30.67     544.00      23.32
 30.77     597.00      24.43
 30.87     606.00      24.62
 30.97     603.00      24.56
 31.07     560.31      23.67
 31.17     556.00      23.58
 31.27     542.48      23.29
 31.37     583.00      24.15
 31.47     551.00      23.47
 31.57     520.00      22.80
 31.67     515.00      22.69
 31.77     544.00      23.32
 31.87     564.00      23.75
 31.97     537.00      23.17
 32.07     575.00      23.98
 32.17     530.00      23.02
 32.27     561.09      23.69
 32.37     567.20      23.82
 32.47     547.00      23.39
 32.57     550.00      23.45
 32.67     539.00      23.22
 32.77     527.00      22.96
 32.87     557.13      23.60
 32.97     536.58      23.16
 33.07     549.00      23.43
 33.17     563.00      23.73
 33.27     545.00      23.35
 33.37     511.00      22.61
 33.47     551.39      23.48
 33.57     626.00      25.02
 33.67     673.00      25.94
 33.77     732.59      27.07
 33.87     855.36      29.25
 33.97     957.00      30.94
 34.07     970.50      31.15
 34.17    1047.25      32.36
 34.27     961.00      31.00
 34.37     796.00      28.21
 34.47     715.75      26.75
 34.57     605.94      24.62
 34.67     625.33      25.01
 34.77     564.12      23.75
 34.87     559.18      23.65
 34.97     551.00      23.47
 35.07     518.00      22.76
 35.17     523.00      22.87
 35.27     538.25      23.20
 35.37     502.00      22.41
 35.47     495.00      22.25
 35.57     504.52      22.46
 35.67     492.00      22.18
 35.77     506.00      22.49
 35.87     522.00      22.85
 35.97     510.00      22.58
 36.07     535.35      23.14
 36.17     528.00      22.98
 36.27     509.00      22.56
 36.37     508.00      22.54
 36.47     497.00      22.29
 36.57     518.00      22.76
 36.67     481.80      21.95
 36.77     460.00      21.45
 36.87     515.00      22.69
 36.97     534.39      23.12
 37.07     468.00      21.63
 37.17     533.00      23.09
 37.27     492.97      22.20
 37.37     533.00      23.09
 37.47     534.00      23.11
 37.57     522.00      22.85
 37.67     488.00      22.09
 37.77     494.00      22.23
 37.87     458.00      21.40
 37.97     554.88      23.56
 38.07     472.00      21.73
 38.17     534.47      23.12
 38.27     496.41      22.28
 38.37     478.00      21.86
 38.47     464.00      21.54
 38.57     485.26      22.03
 38.67     462.38      21.50
 38.77     486.00      22.05
 38.87     491.00      22.16
 38.97     496.00      22.27
 39.07     479.83      21.90
 39.17     478.00      21.86
 39.27     502.00      22.41
 39.37     478.00      21.86
 39.47     510.00      22.58
 39.57     492.00      22.18
 39.67     524.00      22.89
 39.77     537.12      23.18
 39.87     506.00      22.49
 39.97     478.00      21.86
 40.07     477.47      21.85
 40.17     503.00      22.43
 40.27     505.00      22.47
 40.37     477.21      21.85
 40.47     504.00      22.45
 40.57     528.89      23.00
 40.67     506.00      22.49
 40.77     456.60      21.37
 40.87     485.00      22.02
 40.97     503.00      22.43
 41.07     478.86      21.88
 41.17     522.03      22.85
 41.27     481.00      21.93
 41.37     502.09      22.41
 41.47     515.00      22.69
 41.57     494.00      22.23
 41.67     501.33      22.39
 41.77     464.31      21.55
 41.87     487.00      22.07
 41.97     487.00      22.07
 42.07     491.56      22.17
 42.17     544.49      23.33
 42.27     492.21      22.19
 42.37     539.94      23.24
 42.47     548.00      23.41
 42.57     581.00      24.10
 42.67     612.00      24.74
 42.77     620.00      24.90
 42.87     585.00      24.19
 42.97     553.00      23.52
 43.07     556.00      23.58
 43.17     573.89      23.96
 43.27     512.00      22.63
 43.37     495.00      22.25
 43.47     546.00      23.37
 43.57     509.00      22.56
 43.67     457.84      21.40
 43.77     537.89      23.19
 43.87     458.00      21.40
 43.97     461.00      21.47
 44.07     493.00      22.20
 44.17     470.86      21.70
 44.27     493.00      22.20
 44.37     478.00      21.86
 44.47     503.32      22.43
 44.57     501.00      22.38
 44.67     523.04      22.87
 44.77     499.00      22.34
 44.87     507.00      22.52
 44.97     474.00      21.77
 45.07     516.57      22.73
 45.17     531.31      23.05
 45.27     525.16      22.92
 45.37     461.22      21.48
 45.47     466.00      21.59
 45.57     546.00      23.37
 45.67     491.84      22.18
 45.77     525.00      22.91
 45.87     524.62      22.90
 45.97     472.20      21.73
 46.07     460.78      21.47
 46.17     525.00      22.91
 46.27     515.05      22.69
 46.37     480.00      21.91
 46.47     476.00      21.82
 46.57     492.00      22.18
 46.67     509.00      22.56
 46.77     520.00      22.80
 46.87     485.00      22.02
 46.97     535.00      23.13
 47.07     485.00      22.02
 47.17     474.00      21.77
 47.27     517.00      22.74
 47.37     500.00      22.36
 47.47     472.00      21.73
 47.57     575.00      23.98
 47.67     547.00      23.39
 47.77     556.00      23.58
 47.87     592.00      24.33
 47.97     549.01      23.43
 48.07     563.98      23.75
 48.17     593.98      24.37
 48.27     584.08      24.17
 48.37     555.00      23.56
 48.47     580.29      24.09
 48.57     533.00      23.09
 48.67     564.00      23.75
 48.77     512.00      22.63
 48.87     528.00      22.98
 48.97     547.00      23.39
 49.07     504.37      22.46
 49.17     525.00      22.91
 49.27     584.00      24.17
 49.37     583.00      24.15
 49.47     604.59      24.59
 49.57     649.00      25.48
 49.67     765.00      27.66
 49.77     932.00      30.53
 49.87    1172.88      34.25
 49.97    1488.52      38.58
 50.07    1873.00      43.28
 50.17    2225.00      47.17
 50.27    2325.00      48.22
 50.37    2364.25      48.62
 50.47    2002.00      44.74
 50.57    1696.60      41.19
 50.67    1292.00      35.94
 50.77    1021.00      31.95
 50.87     830.00      28.81
 50.97     726.87      26.96
 51.07     708.00      26.61
 51.17     600.50      24.51
 51.27     625.28      25.01
 51.37     590.00      24.29
 51.47     616.35      24.83
 51.57     556.36      23.59
 51.67     586.30      24.21
 51.77     535.00      23.13
 51.87     550.00      23.45
 51.97     495.00      22.25
 52.07     491.44      22.17
 52.17     553.00      23.52
 52.27     536.00      23.15
 52.37     497.48      22.30
 52.47     580.00      24.08
 52.57     539.00      23.22
 52.67     545.96      23.37
 52.77     592.00      24.33
 52.87     622.00      24.94
 52.97     632.79      25.16
 53.07     687.00      26.21
 53.17     797.00      28.23
 53.27     862.77      29.37
 53.37    1075.16      32.79
 53.47    1134.79      33.69
 53.57    1232.96      35.11
 53.67    1121.00      33.48
 53.77    1054.95      32.48
 53.87     954.00      30.89
 53.97     882.84      29.71
 54.07     757.31      27.52
 54.17     679.00      26.06
 54.27     667.42      25.83
 54.37     594.00      24.37
 54.47     584.00      24.17
 54.57     543.86      23.32
 54.67     573.00      23.94
 54.77     539.00      23.22
 54.87     560.00      23.66
 54.97     509.00      22.56
 55.07     531.35      23.05
 55.17     555.00      23.56
 55.27     604.00      24.58
 55.37     631.00      25.12
 55.47     540.00      23.24
 55.57     551.00      23.47
 55.67     581.00      24.10
 55.77     587.00      24.23
 55.87     639.00      25.28
 55.97     649.48      25.48
 56.07     677.00      26.02
 56.17     730.00      27.02
 56.27     809.22      28.45
 56.37     975.00      31.22
 56.47    1173.00      34.25
 56.57    1449.00      38.07
 56.67    1919.19      43.81
 56.77    2260.33      47.54
 56.87    2397.63      48.97
 56.97    2636.37      51.35
 57.07    2457.00      49.57
 57.17    2254.80      47.48
 57.27    1921.00      43.83
 57.37    1585.00      39.81
 57.47    1332.00      36.50
 57.57    1030.45      32.10
 57.67     872.11      29.53
 57.77     817.66      28.59
 57.87     701.00      26.48
 57.97     734.00      27.09
 58.07     732.00      27.06
 58.17     699.00      26.44
 58.27     725.30      26.93
 58.37     746.00      27.31
 58.47     835.47      28.90
 58.57     957.75      30.95
 58.67    1004.05      31.69
 58.77    1126.80      33.57
 58.87    1147.76      33.88
 58.97    1163.42      34.11
 59.07    1337.38      36.57
 59.17    1353.39      36.79
 59.27    1338.00      36.58
 59.37    1305.00      36.12
 59.47    1224.25      34.99
 59.57    1211.00      34.80
 59.67    1104.00      33.23
 59.77    1156.00      34.00
 59.87    1191.00      34.51
 59.97    1241.74      35.24
 60.07    1368.00      36.99
 60.17    1494.91      38.66
 60.27    1478.22      38.45
 60.37    1535.00      39.18
 60.47    1510.00      38.86
 60.57    1380.00      37.15
 60.67    1151.51      33.93
 60.77    1050.00      32.40
 60.87     925.00      30.41
 60.97     801.00      28.30
 61.07     706.00      26.57
 61.17     687.00      26.21
 61.27     683.71      26.15
 61.37     674.00      25.96
 61.47     636.13      25.22
 61.57     762.00      27.60
 61.67     806.80      28.40
 61.77     837.17      28.93
 61.87    1036.08      32.19
 61.97    1082.41      32.90
 62.07    1220.00      34.93
 62.17    1305.30      36.13
 62.27    1407.91      37.52
 62.37    1339.87      36.60
 62.47    1213.17      34.83
 62.57    1113.00      33.36
 62.67    1020.00      31.94
 62.77     895.00      29.92
 62.87     756.67      27.51
 62.97     712.00      26.68
 63.07     613.47      24.77
 63.17     654.00      25.57
 63.27     612.00      24.74
 63.37     585.00      24.19
 63.47     560.34      23.67
 63.57     555.00      23.56
 63.67     545.00      23.35
 63.77     571.00      23.90
 63.87     590.26      24.30
 63.97     589.12      24.27
 64.07     646.84      25.43
 64.17     734.76      27.11
 64.27     744.00      27.28
 64.37     880.12      29.67
 64.47     937.93      30.63
 64.57     939.00      30.64
 64.67     982.00      31.34
 64.77    1023.00      31.98
 64.87     973.75      31.20
 64.97     972.00      31.18
 65.07     904.98      30.08
 65.17     905.00      30.08
 65.27     820.14      28.64
 65.37     718.00      26.80
 65.47     674.57      25.97
 65.57     661.00      25.71
 65.67     611.00      24.72
 65.77     582.89      24.14
 65.87     527.00      22.96
 65.97     576.89      24.02
 66.07     529.71      23.02
 66.17     534.00      23.11
 66.27     578.00      24.04
 66.37     543.72      23.32
 66.47     538.00      23.19
 66.57     570.00      23.87
 66.67     534.00      23.11
 66.77     598.00      24.45
 66.87     580.00      24.08
 66.97     617.00      24.84
 67.07     618.00      24.86
 67.17     676.00      26.00
 67.27     692.00      26.31
 67.37     823.37      28.69
 67.47     935.00      30.58
 67.57    1061.00      32.57
 67.67    1287.00      35.87
 67.77    1541.00      39.26
 67.87    1800.00      42.43
 67.97    1979.28      44.49
 68.07    2295.00      47.91
 68.17    2393.00      48.92
 68.27    2345.00      48.43
 68.37    2275.00      47.70
 68.47    2006.02      44.79
 68.57    1857.00      43.09
 68.67    1663.00      40.78
 68.77    1285.00      35.85
 68.87    1144.00      33.82
 68.97     927.00      30.45
 69.07     847.44      29.11
 69.17     775.00      27.84
 69.27     696.78      26.40
 69.37     632.00      25.14
 69.47     607.00      24.64
 69.57     613.00      24.76
 69.67     624.00      24.98
 69.77     573.00      23.94
 69.87     611.11      24.72
 69.97     562.00      23.71
 70.07     568.00      23.83
 70.17     590.00      24.29
 70.27     561.00      23.69
 70.37     571.00      23.90
 70.47     537.00      23.17
 70.57     613.00      24.76
 70.67     596.00      24.41
 70.77     600.10      24.50
 70.87     607.00      24.64
 70.97     640.00      25.30
 71.07     663.18      25.75
 71.17     711.54      26.67
 71.27     697.00      26.40
 71.37     805.00      28.37
 71.47     960.00      30.98
 71.57    1125.47      33.55
 71.67    1302.23      36.09
 71.77    1420.00      37.68
 71.87    1584.00      39.80
 71.97    1760.00      41.95
 72.07    1883.58      43.40
 72.17    1848.00      42.99
 72.27    1789.00      42.30
 72.37    1784.00      42.24
 72.47    1597.00      39.96
 72.57    1439.00      37.93
 72.67    1312.00      36.22
 72.77    1077.86      32.83
 72.87     959.58      30.98
 72.97     919.93      30.33
 73.07     830.00      28.81
 73.17     725.56      26.94
 73.27     693.00      26.32
 73.37     703.00      26.51
 73.47     636.00      25.22
 73.57     624.00      24.98
 73.67     609.00      24.68
 73.77     578.00      24.04
 73.87     612.48      24.75
 73.97     575.05      23.98
 74.07     551.00      23.47
 74.17     606.53      24.63
 74.27     588.32      24.26
 74.37     592.00      24.33
 74.47     551.54      23.48
 74.57     635.00      25.20
 74.67     622.00      24.94
 74.77     617.46      24.85
 74.87     580.61      24.10
 74.97     608.00      24.66
 75.07     556.06      23.58
 75.17     635.00      25.20
 75.27     579.00      24.06
 75.37     595.67      24.41
 75.47     552.00      23.49
 75.57     526.32      22.94
 75.67     519.35      22.79
 75.77     532.75      23.08
 75.87     603.81      24.57
 75.97     610.00      24.70
 76.07     621.00      24.92
 76.17     612.00      24.74
 76.27     664.54      25.78
 76.37     624.16      24.98
 76.47     716.22      26.76
 76.57     673.77      25.96
 76.67     686.03      26.19
 76.77     691.00      26.29
 76.87     656.53      25.62
 76.97     657.00      25.63
 77.07     699.82      26.45
 77.17     641.00      25.32
 77.27     618.89      24.88
 77.37     580.00      24.08
 77.47     582.48      24.13
 77.57     557.00      23.60
 77.67     564.00      23.75
 77.77     502.88      22.42
 77.87     515.37      22.70
 77.97     500.00      22.36
 78.07     473.00      21.75
 78.17     498.00      22.32
 78.27     526.84      22.95
 78.37     503.00      22.43
 78.47     512.53      22.64
 78.57     545.00      23.35
 78.67     502.00      22.41
 78.77     487.81      22.09
 78.87     513.00      22.65
 78.97     519.00      22.78
 79.07     516.00      22.72
 79.17     473.24      21.75
 79.27     500.00      22.36
 79.37     500.00      22.36
 79.47     523.00      22.87
 79.57     510.00      22.58
 79.67     535.77      23.15
 79.77     513.00      22.65
 79.87     529.00      23.00
 79.97     556.92      23.60
 80.07     545.00      23.35
 80.17     532.16      23.07
 80.27     563.00      23.73
 80.37     558.00      23.62
 80.47     546.00      23.37
 80.57     547.00      23.39
 80.67     610.15      24.70
 80.77     667.25      25.83
 80.87     615.35      24.81
 80.97     711.00      26.66
 81.07     679.00      26.06
 81.17     699.00      26.44
 81.27     749.00      27.37
 81.37     727.00      26.96
 81.47     790.00      28.11
 81.57     720.49      26.84
 81.67     741.88      27.24
 81.77     754.00      27.46
 81.87     701.00      26.48
 81.97     703.46      26.52
 82.07     691.00      26.29
 82.17     705.00      26.55
 82.27     635.34      25.21
 82.37     599.00      24.47
 82.47     631.52      25.13
 82.57     578.00      24.04
 82.67     606.00      24.62
 82.77     576.00      24.00
 82.87     543.34      23.31
 82.97     578.50      24.05
 83.07     569.00      23.85
 83.17     538.00      23.19
 83.27     556.00      23.58
 83.37     528.58      22.99
 83.47     568.00      23.83
 83.57     581.60      24.12
 83.67     524.03      22.89
 83.77     557.00      23.60
 83.87     502.00      22.41
 83.97     584.00      24.17
 84.07     559.83      23.66
 84.17     542.00      23.28
 84.27     568.54      23.84
 84.37     526.00      22.93
 84.47     569.00      23.85
 84.57     563.00      23.73
 84.67     540.30      23.24
 84.77     519.00      22.78
 84.87     565.00      23.77
 84.97     522.00      22.85
 85.07     511.00      22.61
 85.17     544.00      23.32
 85.27     533.00      23.09
 85.37     532.00      23.07
 85.47     530.00      23.02
 85.57     513.00      22.65
 85.67     521.00      22.83
 85.77     509.00      22.56
 85.87     506.00      22.49
 85.97     505.00      22.47
 86.07     521.00      22.83
 86.17     561.74      23.70
 86.27     544.18      23.33
 86.37     491.54      22.17
 86.47     495.18      22.25
 86.57     574.00      23.96
 86.67     551.00      23.47
 86.77     536.00      23.15
 86.87     596.48      24.42
 86.97     566.88      23.81
 87.07     578.00      24.04
 87.17     600.83      24.51
 87.27     628.00      25.06
 87.37     626.00      25.02
 87.47     632.99      25.16
 87.57     648.53      25.47
 87.67     663.00      25.75
 87.77     637.00      25.24
 87.87     632.00      25.14
 87.97     584.98      24.19
 88.07     606.00      24.62
 88.17     602.00      24.54
 88.27     544.00      23.32
 88.37     592.00      24.33
 88.47     584.00      24.17
 88.57     573.00      23.94
 88.67     590.85      24.31
 88.77     516.62      22.73
 88.87     551.00      23.47
 88.97     588.98      24.27
 89.07     608.25      24.66
 89.17     606.22      24.62
 89.27     616.00      24.82
 89.37     637.00      25.24
 89.47     620.00      24.90
 89.57     583.00      24.15
 89.67     587.00      24.23
 89.77     632.00      25.14
 89.87     612.00      24.74
 89.97     560.00      23.66
 90.07     553.00      23.52
 90.17     562.00      23.71
 90.27     584.26      24.17
 90.37     510.00      22.58
 90.47     516.50      22.73
 90.57     520.00      22.80
 90.67     521.00      22.83
 90.77     517.00      22.74
 90.87     497.00      22.29
 90.97     474.62      21.79
 91.07     548.07      23.41
 91.17     527.00      22.96
 91.27     504.00      22.45
 91.37     503.00      22.43
 91.47     532.00      23.07
 91.57     493.04      22.20
 91.67     530.00      23.02
 91.77     484.00      22.00
 91.87     518.81      22.78
 91.97     561.88      23.70
 92.07     570.80      23.89
 92.17     541.00      23.26
 92.27     589.76      24.28
 92.37     527.00      22.96
 92.47     564.48      23.76
 92.57     574.00      23.96
 92.67     643.00      25.36
 92.77     597.00      24.43
 92.87     690.00      26.27
 92.97     711.57      26.68
 93.07     724.14      26.91
 93.17     737.00      27.15
 93.27     709.05      26.63
 93.37     790.67      28.12
 93.47     804.00      28.35
 93.57     744.00      27.28
 93.67     814.00      28.53
 93.77     810.00      28.46
 93.87     788.00      28.07
 93.97     817.00      28.58
 94.07     773.57      27.81
 94.17     805.81      28.39
 94.27     865.64      29.42
 94.37     866.00      29.43
 94.47     836.45      28.92
 94.57     886.00      29.77
 94.67     869.00      29.48
 94.77     999.00      31.61
 94.87     912.00      30.20
 94.97     954.00      30.89
 95.07     810.01      28.46
 95.17     813.51      28.52
 95.27     926.00      30.43
 95.37     763.14      27.62
 95.47     842.00      29.02
 95.57     817.71      28.60
 95.67     724.00      26.91
 95.77     740.22      27.21
 95.87     738.00      27.17
 95.97     733.04      27.07
 96.07     670.27      25.89
 96.17     744.00      27.28
 96.27     687.00      26.21
 96.37     740.68      27.22
 96.47     746.00      27.31
 96.57     799.00      28.27
 96.67     799.00      28.27
 96.77     860.70      29.34
 96.87     892.00      29.87
 96.97     994.76      31.54
 97.07    1071.00      32.73
 97.17    1102.39      33.20
 97.27    1151.00      33.93
 97.37    1267.46      35.60
 97.47    1414.52      37.61
 97.57    1361.94      36.90
 97.67    1344.91      36.67
 97.77    1423.00      37.72
 97.87    1404.00      37.47
 97.97    1334.00      36.52
 98.07    1268.61      35.62
 98.17    1338.00      36.58
 98.27    1206.00      34.73
 98.37    1118.00      33.44
 98.47    1076.45      32.81
 98.57     965.38      31.07
 98.67     928.01      30.46
 98.77     933.00      30.55
 98.87     858.64      29.30
 98.97     903.62      30.06
 99.07     768.00      27.71
 99.17     802.62      28.33
 99.27     891.00      29.85
 99.37     925.00      30.41
 99.47     960.00      30.98
 99.57    1006.00      31.72
 99.67    1106.00      33.26
 99.77    1185.00      34.42
 99.87    1242.00      35.24
 99.97    1291.00      35.93
100.07    1407.00      37.51
100.17    1559.26      39.49
100.27    1600.00      40.00
100.37    1717.95      41.45
100.47    1803.00      42.46
100.57    1903.00      43.62
100.67    1882.00      43.38
100.77    1923.00      43.85
100.87    1984.00      44.54
100.97    1946.94      44.12
101.07    1964.41      44.32
101.17    1976.00      44.45
101.27    1837.31      42.86
101.37    1796.00      42.38
101.47    1663.40      40.78
101.57    1664.09      40.79
101.67    1640.27      40.50
101.77    1574.00      39.67
101.87    1394.00      37.34
101.97    1338.00      36.58
102.07    1316.00      36.28
102.17    1199.00      34.63
102.27    1311.00      36.21
102.37    1194.00      34.55
102.47    1154.85      33.98
102.57    1125.98      33.56
102.67    1162.95      34.10
102.77    1064.67      32.63
102.87    1073.56      32.77
102.97    1061.00      32.57
103.07     945.00      30.74
103.17     986.15      31.40
103.27     910.00      30.17
103.37     866.00      29.43
103.47     917.00      30.28
103.57     827.00      28.76
103.67     806.00      28.39
103.77     745.00      27.29
103.87     735.00      27.11
103.97     691.55      26.30
104.07     686.60      26.20
104.17     644.07      25.38
104.27     617.00      24.84
104.37     635.00      25.20
104.47     576.00      24.00
104.57     624.00      24.98
104.67     564.00      23.75
104.77     566.00      23.79
104.87     552.00      23.49
104.97     559.00      23.64
105.07     528.92      23.00
105.17     522.00      22.85
105.27     556.00      23.58
105.37     571.00      23.90
105.47     553.00      23.52
105.57     526.00      22.93
105.67     568.01      23.83
105.77     546.00      23.37
105.87     540.00      23.24
105.97     583.07      24.15
106.07     553.89      23.53
106.17     527.19      22.96
106.27     528.24      22.98
106.37     587.00      24.23
106.47     573.00      23.94
106.57     580.00      24.08
106.67     628.00      25.06
106.77     609.00      24.68
106.87     650.00      25.50
106.97     660.89      25.71
107.07     649.00      25.48
107.17     706.20      26.57
107.27     619.00      24.88
107.37     709.56      26.64
107.47     663.00      25.75
107.57     689.92      26.27
107.67     676.30      26.01
107.77     683.99      26.15
107.87     667.20      25.83
107.97     679.00      26.06
108.07     649.00      25.48
108.17     647.00      25.44
108.27     618.00      24.86
108.37     654.00      25.57
108.47     675.00      25.98
108.57     703.56      26.52
108.67     692.00      26.31
108.77     678.00      26.04
108.87     651.70      25.53
108.97     733.14      27.08
109.07     704.00      26.53
109.17     648.61      25.47
109.27     723.00      26.89
109.37     643.00      25.36
109.47     633.91      25.18
109.57     631.00      25.12
109.67     621.00      24.92
109.77     638.00      25.26
109.87     674.00      25.96
109.97     653.75      25.57
110.07     590.29      24.30
110.17     602.31      24.54
110.27     588.26      24.25
110.37     578.00      24.04
110.47     546.77      23.38
110.57     533.00      23.09
110.67     570.00      23.87
110.77     578.00      24.04
110.87     510.20      22.59
110.97     556.87      23.60
111.07     532.00      23.07
111.17     557.00      23.60
111.27     502.48      22.42
111.37     571.00      23.90
111.47     537.00      23.17
111.57     524.73      22.91
111.67     517.00      22.74
111.77     499.00      22.34
111.87     525.00      22.91
111.97     554.00      23.54
112.07     561.00      23.69
112.17     570.00      23.87
112.27     550.00      23.45
112.37     550.00      23.45
112.47     573.00      23.94
112.57     543.00      23.30
112.67     580.00      24.08
112.77     542.67      23.30
112.87     615.00      24.80
112.97     562.00      23.71
113.07     601.00      24.52
113.17     604.50      24.59
113.27     576.12      24.00
113.37     636.00      25.22
113.47     657.18      25.64
113.57     621.00      24.92
113.67     675.00      25.98
113.77     655.00      25.59
113.87     743.19      27.26
113.97     711.01      26.66
114.07     718.00      26.80
114.17     810.00      28.46
114.27     838.00      28.95
114.37     894.96      29.92
114.47     951.30      30.84
114.57    1039.00      32.23
114.67    1181.91      34.38
114.77    1344.70      36.67
114.87    1424.00      37.74
114.97    1697.00      41.19
115.07    1755.69      41.90
115.17    1904.18      43.64
115.27    2134.41      46.20
115.37    2517.45      50.17
115.47    2757.00      52.51
115.57    3091.00      55.60
115.67    3376.00      58.10
115.77    3847.03      62.02
115.87    4228.00      65.02
115.97    4346.00      65.92
116.07    4821.08      69.43
116.17    5099.29      71.41
116.27    5591.85      74.78
116.37    5779.00      76.02
116.47    6119.00      78.22
116.57    6485.03      80.53
116.67    6676.00      81.71
116.77    6781.00      82.35
116.87    6906.95      83.11
116.97    6719.82      81.97
117.07    6679.72      81.73
117.17    6645.00      81.52
117.27    6368.00      79.80
117.37    6023.00      77.61
117.47    5723.81      75.66
117.57    5467.00      73.94
117.67    5116.00      71.53
117.77    4670.00      68.34
117.87    4490.59      67.01
117.97    4160.00      64.50
118.07    3726.00      61.04
118.17    3269.47      57.18
118.27    2993.00      54.71
118.37    2743.14      52.37
118.47    2590.00      50.89
118.57    2281.00      47.76
118.67    2028.52      45.04
118.77    1700.00      41.23
118.87    1588.00      39.85
118.97    1412.00      37.58
119.07    1335.00      36.54
119.17    1131.00      33.63
119.27    1078.95      32.85
119.37    1000.00      31.62
119.47     869.11      29.48
119.57     834.00      28.88
119.67     817.08      28.58
119.77     727.36      26.97
119.87     747.00      27.33
119.97     693.00      26.32
120.07     655.00      25.59
120.17     613.74      24.77
120.27     601.10      24.52
120.37     587.81      24.24
120.47     621.00      24.92
120.57     608.00      24.66
120.67     581.04      24.10
120.77     583.00      24.15
120.87     623.47      24.97
120.97     562.00      23.71
121.07     533.74      23.10
121.17     578.00      24.04
121.27     539.66      23.23
121.37     539.00      23.22
121.47     578.00      24.04
121.57     552.00      23.49
121.67     567.00      23.81
121.77     603.00      24.56
121.87     559.00      23.64
121.97     588.70      24.26
122.07     586.00      24.21
122.17     599.00      24.47
122.27     571.00      23.90
122.37     629.24      25.08
122.47     597.00      24.43
122.57     609.00      24.68
122.67     605.70      24.61
122.77     661.00      25.71
122.87     611.00      24.72
122.97     625.00      25.00
123.07     644.00      25.38
123.17     642.28      25.34
123.27     633.00      25.16
123.37     608.00      24.66
123.47     639.00      25.28
123.57     613.00      24.76
123.67     644.00      25.38
123.77     616.00      24.82
123.87     615.07      24.80
123.97     631.00      25.12
124.07     559.25      23.65
124.17     551.89      23.49
124.27     588.84      24.27
124.37     577.10      24.02
124.47     628.46      25.07
124.57     570.00      23.87
124.67     617.00      24.84
124.77     597.81      24.45
124.87     531.32      23.05
124.97     563.00      23.73
