  9.97     685.00      26.17
 10.07     692.00      26.31
 10.17     685.00      26.17
 10.27     705.00      26.55
 10.37     674.00      25.96
 10.47     599.62      24.49
 10.57     643.00      25.36
 10.67     659.00      25.67
 10.77     648.00      25.46
 10.87     624.00      24.98
 10.97     627.00      25.04
 11.07     673.00      25.94
 11.17     662.84      25.75
 11.27     680.00      26.08
 11.37     670.00      25.88
 11.47     589.69      24.28
 11.57     676.00      26.00
 11.67     692.76      26.32
 11.77     701.00      26.48
 11.87     628.44      25.07
 11.97     687.10      26.21
 12.07     735.42      27.12
 12.17     780.19      27.93
 12.27     772.00      27.78
 12.37     770.00      27.75
 12.47     728.00      26.98
 12.57     660.09      25.69
 12.67     688.00      26.23
 12.77     653.00      25.55
 12.87     651.00      25.51
 12.97     669.00      25.87
 13.07     642.00      25.34
 13.17     586.00      24.21
 13.27     679.25      26.06
 13.37     622.00      24.94
 13.47     562.00      23.71
 13.57     617.18      24.84
 13.67     639.00      25.28
 13.77     644.00      25.38
 13.87     637.00      25.24
 13.97     637.00      25.24
 14.07     591.00      24.31
 14.17     611.00      24.72
 14.27     614.00      24.78
 14.37     605.59      24.61
 14.47     622.00      24.94
 14.57     619.00      24.88
 14.67     618.00      24.86
 14.77     608.00      24.66
 14.87     608.00      24.66
 14.97     586.00      24.21
 15.07     610.00      24.70
 15.17     612.67      24.75
 15.27     629.00      25.08
 15.37     588.24      24.25
 15.47     579.00      24.06
 15.57     636.00      25.22
 15.67     609.77      24.69
 15.77     652.92      25.55
 15.87     617.32      24.85
 15.97     664.53      25.78
 16.07     642.71      25.35
 16.17     617.04      24.84
 16.27     647.00      25.44
 16.37     639.00      25.28
 16.47     629.00      25.08
 16.57     608.00      24.66
 16.67     622.00      24.94
 16.77     622.00      24.94
 16.87     673.85      25.96
 16.97     627.81      25.06
 17.07     632.25      25.14
 17.17     599.00      24.47
 17.27     630.95      25.12
 17.37     581.44      24.11
 17.47     603.00      24.56
 17.57     670.75      25.90
 17.67     630.00      25.10
 17.77     630.00      25.10
 17.87     596.00      24.41
 17.97     627.74      25.05
 18.07     621.06      24.92
 18.17     651.22      25.52
 18.27     620.00      24.90
 18.37     617.00      24.84
 18.47     603.00      24.56
 18.57     594.54      24.38
 18.67     620.00      24.90
 18.77     568.00      23.83
 18.87     599.00      24.47
 18.97     605.00      24.60
 19.07     593.95      24.37
 19.17     640.96      25.32
 19.27     603.45      24.57
 19.37     640.32      25.30
 19.47     596.31      24.42
 19.57     623.00      24.96
 19.67     621.00      24.92
 19.77     669.33      25.87
 19.87     638.00      25.26
 19.97     592.00      24.33
 20.07     643.18      25.36
 20.17     678.46      26.05
 20.27     627.00      25.04
 20.37     583.13      24.15
 20.47     609.00      24.68
 20.57     572.75      23.93
 20.67     627.00      25.04
 20.77     637.38      25.25
 20.87     595.00      24.39
 20.97     612.00      24.74
 21.07     588.00      24.25
 21.17     656.29      25.62
 21.27     614.00      24.78
 21.37     614.00      24.78
 21.47     580.00      24.08
 21.57     630.00      25.10
 21.67     623.00      24.96
 21.77     616.00      24.82
 21.87     591.00      24.31
 21.97     624.00      24.98
 22.07     583.84      24.16
 22.17     607.00      24.64
 22.27     620.00      24.90
 22.37     568.67      23.85
 22.47     598.00      24.45
 22.57     606.00      24.62
 22.67     588.79      24.26
 22.77     601.23      24.52
 22.87     654.07      25.57
 22.97     608.00      24.66
 23.07     663.56      25.76
 23.17     588.90      24.27
 23.27     650.00      25.50
 23.37     578.49      24.05
 23.47     643.00      25.36
 23.57     613.55      24.77
 23.67     625.00      25.00
 23.77     626.00      25.02
 23.87     597.21      24.44
 23.97     623.00      24.96
 24.07     661.00      25.71
 24.17     610.39      24.71
 24.27     639.18      25.28
 24.37     641.00      25.32
 24.47     680.56      26.09
 24.57     695.00      26.36
 24.67     606.46      24.63
 24.77     715.00      26.74
 24.87     654.50      25.58
 24.97     767.00      27.69
 25.07     735.00      27.11
 25.17     657.01      25.63
 25.27     648.29      25.46
 25.37     611.94      24.74
 25.47     650.00      25.50
 25.57     653.00      25.55
 25.67     586.47      24.22
 25.77     692.00      26.31
 25.87     584.20      24.17
 25.97     613.45      24.77
 26.07     593.78      24.37
 26.17     647.60      25.45
 26.27     673.00      25.94
 26.37     573.32      23.94
 26.47     722.00      26.87
 26.57     563.30      23.73
 26.67     621.12      24.92
 26.77     716.00      26.76
 26.87     684.33      26.16
 26.97     685.99      26.19
 27.07     710.00      26.65
 27.17     705.00      26.55
 27.27     700.00      26.46
 27.37     693.00      26.32
 27.47     667.45      25.83
 27.57     653.79      25.57
 27.67     757.24      27.52
 27.77     797.00      28.23
 27.87     896.00      29.93
 27.97     882.00      29.70
 28.07    1122.00      33.50
 28.17    1512.55      38.89
 28.27    1736.74      41.67
 28.37    1926.00      43.89
 28.47    1817.00      42.63
 28.57    1556.46      39.45
 28.67    1458.56      38.19
 28.77    1203.00      34.68
 28.87    1338.99      36.59
 28.97    1363.00      36.92
 29.07    1416.00      37.63
 29.17    1292.29      35.95
 29.27    1172.22      34.24
 29.37    1014.00      31.84
 29.47     928.00      30.46
 29.57     837.00      28.93
 29.67     799.00      28.27
 29.77     759.00      27.55
 29.87     748.00      27.35
 29.97     781.00      27.95
 30.07     763.00      27.62
 30.17     699.00      26.44
 30.27     663.00      25.75
 30.37     720.00      26.83
 30.47     678.00      26.04
 30.57     691.00      26.29
 30.67     665.28      25.79
 30.77     659.72      25.69
 30.87     680.12      26.08
 30.97     621.48      24.93
 31.07     643.64      25.37
 31.17     731.00      27.04
 31.27     735.00      27.11
 31.37     675.00      25.98
 31.47     597.91      24.45
 31.57     648.76      25.47
 31.67     580.05      24.08
 31.77     688.00      26.23
 31.87     611.00      24.72
 31.97     621.00      24.92
 32.07     611.00      24.72
 32.17     567.00      23.81
 32.27     551.71      23.49
 32.37     625.00      25.00
 32.47     589.13      24.27
 32.57     612.00      24.74
 32.67     571.40      23.90
 32.77     586.78      24.22
 32.87     599.26      24.48
 32.97     585.98      24.21
 33.07     647.00      25.44
 33.17     597.14      24.44
 33.27     656.79      25.63
 33.37     614.00      24.78
 33.47     565.00      23.77
 33.57     639.00      25.28
 33.67     660.00      25.69
 33.77     679.23      26.06
 33.87     717.01      26.78
 33.97     867.19      29.45
 34.07     991.00      31.48
 34.17    1119.00      33.45
 34.27    1122.01      33.50
 34.37     931.89      30.53
 34.47     899.23      29.99
 34.57     792.90      28.16
 34.67     715.00      26.74
 34.77     668.00      25.85
 34.87     586.11      24.21
 34.97     677.00      26.02
 35.07     597.00      24.43
 35.17     628.00      25.06
 35.27     587.00      24.23
 35.37     521.00      22.83
 35.47     591.00      24.31
 35.57     567.55      23.82
 35.67     558.00      23.62
 35.77     568.95      23.85
 35.87     580.45      24.09
 35.97     545.00      23.35
 36.07     587.38      24.24
 36.17     519.00      22.78
 36.27     554.00      23.54
 36.37     592.00      24.33
 36.47     562.00      23.71
 36.57     577.00      24.02
 36.67     557.00      23.60
 36.77     596.12      24.42
 36.87     526.17      22.94
 36.97     567.00      23.81
 37.07     584.97      24.19
 37.17     552.00      23.49
 37.27     553.49      23.53
 37.37     560.00      23.66
 37.47     532.51      23.08
 37.57     540.36      23.25
 37.67     591.00      24.31
 37.77     587.00      24.23
 37.87     598.00      24.45
 37.97     564.00      23.75
 38.07     629.91      25.10
 38.17     642.49      25.35
 38.27     581.00      24.10
 38.37     581.00      24.10
 38.47     538.00      23.19
 38.57     572.00      23.92
 38.67     606.43      24.63
 38.77     549.00      23.43
 38.87     535.00      23.13
 38.97     560.65      23.68
 39.07     541.00      23.26
 39.17     575.00      23.98
 39.27     525.00      22.91
 39.37     552.96      23.52
 39.47     558.51      23.63
 39.57     544.00      23.32
 39.67     541.00      23.26
 39.77     555.00      23.56
 39.87     564.00      23.75
 39.97     522.00      22.85
 40.07     540.00      23.24
 40.17     539.00      23.22
 40.27     589.26      24.27
 40.37     579.43      24.07
 40.47     545.57      23.36
 40.57     513.00      22.65
 40.67     513.00      22.65
 40.77     561.80      23.70
 40.87     542.17      23.28
 40.97     515.00      22.69
 41.07     525.00      22.91
 41.17     536.00      23.15
 41.27     547.00      23.39
 41.37     521.23      22.83
 41.47     575.00      23.98
 41.57     509.00      22.56
 41.67     516.00      22.72
 41.77     531.00      23.04
 41.87     570.00      23.87
 41.97     566.35      23.80
 42.07     525.00      22.91
 42.17     524.00      22.89
 42.27     525.21      22.92
 42.37     560.00      23.66
 42.47     587.00      24.23
 42.57     556.12      23.58
 42.67     639.00      25.28
 42.77     657.00      25.63
 42.87     612.00      24.74
 42.97     645.42      25.41
 43.07     661.11      25.71
 43.17     583.00      24.15
 43.27     626.00      25.02
 43.37     587.00      24.23
 43.47     553.00      23.52
 43.57     548.00      23.41
 43.67     531.00      23.04
 43.77     526.00      22.93
 43.87     476.00      21.82
 43.97     566.00      23.79
 44.07     581.00      24.10
 44.17     505.07      22.47
 44.27     537.00      23.17
 44.37     547.00      23.39
 44.47     537.00      23.17
 44.57     577.00      24.02
 44.67     586.00      24.21
 44.77     557.00      23.60
 44.87     536.00      23.15
 44.97     551.00      23.47
 45.07     490.18      22.14
 45.17     531.34      23.05
 45.27     581.00      24.10
 45.37     553.00      23.52
 45.47     496.05      22.27
 45.57     548.00      23.41
 45.67     531.00      23.04
 45.77     515.00      22.69
 45.87     581.00      24.10
 45.97     584.94      24.19
 46.07     511.00      22.61
 46.17     575.19      23.98
 46.27     566.00      23.79
 46.37     528.00      22.98
 46.47     542.60      23.29
 46.57     548.00      23.41
 46.67     535.73      23.15
 46.77     532.21      23.07
 46.87     496.50      22.28
 46.97     523.00      22.87
 47.07     560.00      23.66
 47.17     529.00      23.00
 47.27     548.00      23.41
 47.37     562.00      23.71
 47.47     585.00      24.19
 47.57     596.00      24.41
 47.67     599.10      24.48
 47.77     597.00      24.43
 47.87     612.00      24.74
 47.97     607.12      24.64
 48.07     592.00      24.33
 48.17     613.00      24.76
 48.27     650.00      25.50
 48.37     650.82      25.51
 48.47     575.00      23.98
 48.57     592.00      24.33
 48.67     589.98      24.29
 48.77     596.00      24.41
 48.87     571.00      23.90
 48.97     587.00      24.23
 49.07     621.00      24.92
 49.17     597.04      24.43
 49.27     661.12      25.71
 49.37     619.00      24.88
 49.47     641.91      25.34
 49.57     619.00      24.88
 49.67     777.65      27.89
 49.77     764.00      27.64
 49.87     850.00      29.15
 49.97    1131.31      33.63
 50.07    1465.00      38.28
 50.17    1908.00      43.68
 50.27    2052.00      45.30
 50.37    2459.00      49.59
 50.47    2437.01      49.37
 50.57    2319.48      48.16
 50.67    1871.92      43.27
 50.77    1546.46      39.33
 50.87    1171.00      34.22
 50.97    1047.14      32.36
 51.07     930.37      30.50
 51.17     753.00      27.44
 51.27     777.00      27.87
 51.37     704.00      26.53
 51.47     751.30      27.41
 51.57     678.12      26.04
 51.67     661.54      25.72
 51.77     622.00      24.94
 51.87     664.00      25.77
 51.97     628.00      25.06
 52.07     623.00      24.96
 52.17     557.10      23.60
 52.27     633.00      25.16
 52.37     600.33      24.50
 52.47     642.00      25.34
 52.57     602.96      24.56
 52.67     628.00      25.06
 52.77     655.00      25.59
 52.87     572.00      23.92
 52.97     647.00      25.44
 53.07     733.00      27.07
 53.17     800.00      28.28
 53.27     806.00      28.39
 53.37     867.78      29.46
 53.47     993.00      31.51
 53.57    1074.88      32.79
 53.67    1233.45      35.12
 53.77    1238.00      35.19
 53.87    1285.00      35.85
 53.97    1210.43      34.79
 54.07    1043.00      32.30
 54.17     963.00      31.03
 54.27     868.00      29.46
 54.37     739.34      27.19
 54.47     682.00      26.12
 54.57     631.29      25.13
 54.67     662.00      25.73
 54.77     626.00      25.02
 54.87     667.88      25.84
 54.97     627.32      25.05
 55.07     644.39      25.38
 55.17     636.93      25.24
 55.27     556.52      23.59
 55.37     602.00      24.54
 55.47     635.00      25.20
 55.57     632.90      25.16
 55.67     606.00      24.62
 55.77     665.00      25.79
 55.87     683.00      26.13
 55.97     600.21      24.50
 56.07     685.00      26.17
 56.17     735.00      27.11
 56.27     776.00      27.86
 56.37     887.46      29.79
 56.47     976.00      31.24
 56.57    1199.88      34.64
 56.67    1346.00      36.69
 56.77    1760.89      41.96
 56.87    2062.00      45.41
 56.97    2245.00      47.38
 57.07    2501.00      50.01
 57.17    2561.20      50.61
 57.27    2383.56      48.82
 57.37    2154.54      46.42
 57.47    2051.00      45.29
 57.57    1610.00      40.12
 57.67    1408.13      37.53
 57.77    1097.61      33.13
 57.87     920.00      30.33
 57.97     869.00      29.48
 58.07     798.00      28.25
 58.17     773.00      27.80
 58.27     735.00      27.11
 58.37     753.00      27.44
 58.47     827.38      28.76
 58.57     804.93      28.37
 58.67     876.00      29.60
 58.77     980.03      31.31
 58.87    1017.00      31.89
 58.97    1110.79      33.33
 59.07    1116.00      33.41
 59.17    1257.46      35.46
 59.27    1264.00      35.55
 59.37    1227.99      35.04
 59.47    1248.00      35.33
 59.57    1214.00      34.84
 59.67    1237.00      35.17
 59.77    1183.00      34.39
 59.87    1168.00      34.18
 59.97    1181.00      34.37
 60.07    1196.00      34.58
 60.17    1312.00      36.22
 60.27    1422.00      37.71
 60.37    1492.00      38.63
 60.47    1560.00      39.50
 60.57    1625.00      40.31
 60.67    1462.00      38.24
 60.77    1401.93      37.44
 60.87    1252.36      35.39
 60.97    1135.00      33.69
 61.07    1039.00      32.23
 61.17     870.00      29.50
 61.27     799.00      28.27
 61.37     740.00      27.20
 61.47     739.00      27.18
 61.57     681.91      26.11
 61.67     808.00      28.43
 61.77     737.26      27.15
 61.87     809.38      28.45
 61.97     991.60      31.49
 62.07    1002.00      31.65
 62.17    1196.00      34.58
 62.27    1352.12      36.77
 62.37    1346.00      36.69
 62.47    1338.00      36.58
 62.57    1334.21      36.53
 62.67    1264.00      35.55
 62.77    1155.73      34.00
 62.87    1129.49      33.61
 62.97     963.32      31.04
 63.07     823.00      28.69
 63.17     729.00      27.00
 63.27     680.00      26.08
 63.37     642.55      25.35
 63.47     678.00      26.04
 63.57     655.00      25.59
 63.67     637.00      25.24
 63.77     638.00      25.26
 63.87     659.00      25.67
 63.97     668.00      25.85
 64.07     682.63      26.13
 64.17     698.00      26.42
 64.27     715.00      26.74
 64.37     785.00      28.02
 64.47     870.00      29.50
 64.57     936.00      30.59
 64.67     989.00      31.45
 64.77    1017.09      31.89
 64.87    1090.00      33.02
 64.97    1141.00      33.78
 65.07    1059.66      32.55
 65.17    1025.87      32.03
 65.27    1038.00      32.22
 65.37     958.00      30.95
 65.47     962.00      31.02
 65.57     839.43      28.97
 65.67     808.00      28.43
 65.77     752.00      27.42
 65.87     670.00      25.88
 65.97     638.00      25.26
 66.07     733.34      27.08
 66.17     614.04      24.78
 66.27     600.26      24.50
 66.37     655.02      25.59
 66.47     639.00      25.28
 66.57     609.00      24.68
 66.67     585.00      24.19
 66.77     646.55      25.43
 66.87     612.00      24.74
 66.97     661.00      25.71
 67.07     637.00      25.24
 67.17     689.53      26.26
 67.27     655.00      25.59
 67.37     713.00      26.70
 67.47     778.00      27.89
 67.57     807.00      28.41
 67.67     958.25      30.96
 67.77    1133.00      33.66
 67.87    1327.97      36.44
 67.97    1585.00      39.81
 68.07    1791.00      42.32
 68.17    2005.31      44.78
 68.27    2241.19      47.34
 68.37    2328.68      48.26
 68.47    2458.23      49.58
 68.57    2336.00      48.33
 68.67    2195.00      46.85
 68.77    1967.56      44.36
 68.87    1711.00      41.36
 68.97    1540.21      39.25
 69.07    1236.00      35.16
 69.17    1019.00      31.92
 69.27     959.00      30.97
 69.37     815.43      28.56
 69.47     766.00      27.68
 69.57     759.00      27.55
 69.67     665.00      25.79
 69.77     641.00      25.32
 69.87     665.00      25.79
 69.97     686.08      26.19
 70.07     578.54      24.05
 70.17     657.00      25.63
 70.27     667.00      25.83
 70.37     641.00      25.32
 70.47     611.00      24.72
 70.57     612.38      24.75
 70.67     669.81      25.88
 70.77     628.00      25.06
 70.87     655.00      25.59
 70.97     621.00      24.92
 71.07     685.00      26.17
 71.17     632.00      25.14
 71.27     696.00      26.38
 71.37     799.78      28.28
 71.47     807.39      28.41
 71.57     925.91      30.43
 71.67     944.23      30.73
 71.77    1083.01      32.91
 71.87    1257.74      35.46
 71.97    1362.00      36.91
 72.07    1580.37      39.75
 72.17    1737.00      41.68
 72.27    1791.00      42.32
 72.37    1912.00      43.73
 72.47    1891.00      43.49
 72.57    1740.59      41.72
 72.67    1715.00      41.41
 72.77    1591.00      39.89
 72.87    1411.16      37.57
 72.97    1266.00      35.58
 73.07    1057.16      32.51
 73.17    1004.52      31.69
 73.27     842.07      29.02
 73.37     790.00      28.11
 73.47     800.00      28.28
 73.57     758.00      27.53
 73.67     688.00      26.23
 73.77     682.00      26.12
 73.87     632.00      25.14
 73.97     624.00      24.98
 74.07     575.19      23.98
 74.17     637.00      25.24
 74.27     612.00      24.74
 74.37     553.60      23.53
 74.47     657.00      25.63
 74.57     676.00      26.00
 74.67     599.25      24.48
 74.77     559.99      23.66
 74.87     622.36      24.95
 74.97     678.00      26.04
 75.07     657.00      25.63
 75.17     613.00      24.76
 75.27     651.00      25.51
 75.37     668.00      25.85
 75.47     642.00      25.34
 75.57     579.64      24.08
 75.67     632.46      25.15
 75.77     595.00      24.39
 75.87     621.00      24.92
 75.97     612.00      24.74
 76.07     612.00      24.74
 76.17     639.12      25.28
 76.27     707.00      26.59
 76.37     672.00      25.92
 76.47     725.00      26.93
 76.57     685.00      26.17
 76.67     756.00      27.50
 76.77     789.00      28.09
 76.87     809.26      28.45
 76.97     697.21      26.40
 77.07     795.00      28.20
 77.17     750.29      27.39
 77.27     761.09      27.59
 77.37     692.00      26.31
 77.47     694.98      26.36
 77.57     695.63      26.37
 77.67     616.00      24.82
 77.77     649.00      25.48
 77.87     565.31      23.78
 77.97     622.98      24.96
 78.07     568.00      23.83
 78.17     590.03      24.29
 78.27     522.11      22.85
 78.37     535.00      23.13
 78.47     549.00      23.43
 78.57     565.00      23.77
 78.67     529.00      23.00
 78.77     552.00      23.49
 78.87     494.00      22.23
 78.97     602.63      24.55
 79.07     590.53      24.30
 79.17     566.00      23.79
 79.27     598.61      24.47
 79.37     529.78      23.02
 79.47     538.00      23.19
 79.57     555.00      23.56
 79.67     544.00      23.32
 79.77     587.48      24.24
 79.87     598.06      24.46
 79.97     577.00      24.02
 80.07     557.00      23.60
 80.17     560.00      23.66
 80.27     629.00      25.08
 80.37     591.00      24.31
 80.47     578.61      24.05
 80.57     635.00      25.20
 80.67     622.74      24.95
 80.77     705.00      26.55
 80.87     639.02      25.28
 80.97     665.62      25.80
 81.07     724.00      26.91
 81.17     744.00      27.28
 81.27     809.05      28.44
 81.37     824.87      28.72
 81.47     854.00      29.22
 81.57     805.00      28.37
 81.67     848.00      29.12
 81.77     872.21      29.53
 81.87     820.00      28.64
 81.97     806.91      28.41
 82.07     807.00      28.41
 82.17     818.00      28.60
 82.27     783.00      27.98
 82.37     760.00      27.57
 82.47     779.34      27.92
 82.57     692.00      26.31
 82.67     654.00      25.57
 82.77     723.21      26.89
 82.87     568.00      23.83
 82.97     595.00      24.39
 83.07     610.00      24.70
 83.17     619.00      24.88
 83.27     612.00      24.74
 83.37     576.00      24.00
 83.47     608.07      24.66
 83.57     555.00      23.56
 83.67     561.00      23.69
 83.77     566.00      23.79
 83.87     630.31      25.11
 83.97     635.71      25.21
 84.07     539.00      23.22
 84.17     637.46      25.25
 84.27     600.00      24.49
 84.37     626.00      25.02
 84.47     597.00      24.43
 84.57     644.50      25.39
 84.67     606.00      24.62
 84.77     608.00      24.66
 84.87     609.27      24.68
 84.97     578.00      24.04
 85.07     534.00      23.11
 85.17     528.40      22.99
 85.27     561.00      23.69
 85.37     609.79      24.69
 85.47     571.00      23.90
 85.57     559.61      23.66
 85.67     536.00      23.15
 85.77     574.00      23.96
 85.87     535.00      23.13
 85.97     580.39      24.09
 86.07     500.32      22.37
 86.17     512.05      22.63
 86.27     548.00      23.41
 86.37     575.00      23.98
 86.47     560.00      23.66
 86.57     612.21      24.74
 86.67     590.00      24.29
 86.77     584.65      24.18
 86.87     525.00      22.91
 86.97     561.74      23.70
 87.07     603.00      24.56
 87.17     563.09      23.73
 87.27     664.00      25.77
 87.37     657.00      25.63
 87.47     629.00      25.08
 87.57     674.97      25.98
 87.67     658.00      25.65
 87.77     625.00      25.00
 87.87     660.00      25.69
 87.97     647.00      25.44
 88.07     678.22      26.04
 88.17     676.00      26.00
 88.27     658.00      25.65
 88.37     697.00      26.40
 88.47     636.00      25.22
 88.57     592.00      24.33
 88.67     609.98      24.70
 88.77     611.30      24.72
 88.87     565.00      23.77
 88.97     601.00      24.52
 89.07     602.11      24.54
 89.17     568.00      23.83
 89.27     618.00      24.86
 89.37     588.93      24.27
 89.47     644.00      25.38
 89.57     566.00      23.79
 89.67     606.91      24.64
 89.77     664.94      25.79
 89.87     642.00      25.34
 89.97     629.63      25.09
 90.07     582.57      24.14
 90.17     582.00      24.12
 90.27     619.00      24.88
 90.37     611.00      24.72
 90.47     636.00      25.22
 90.57     575.00      23.98
 90.67     535.00      23.13
 90.77     553.00      23.52
 90.87     595.74      24.41
 90.97     546.00      23.37
 91.07     574.00      23.96
 91.17     550.45      23.46
 91.27     505.00      22.47
 91.37     563.36      23.74
 91.47     506.98      22.52
 91.57     569.00      23.85
 91.67     539.00      23.22
 91.77     572.73      23.93
 91.87     477.00      21.84
 91.97     556.00      23.58
 92.07     554.00      23.54
 92.17     510.50      22.59
 92.27     567.00      23.81
 92.37     585.29      24.19
 92.47     617.00      24.84
 92.57     570.00      23.87
 92.67     632.00      25.14
 92.77     583.00      24.15
 92.87     598.00      24.45
 92.97     652.08      25.54
 93.07     660.00      25.69
 93.17     671.00      25.90
 93.27     640.00      25.30
 93.37     650.51      25.51
 93.47     660.00      25.69
 93.57     713.00      26.70
 93.67     751.00      27.40
 93.77     821.05      28.65
 93.87     846.00      29.09
 93.97     802.00      28.32
 94.07     834.00      28.88
 94.17     875.61      29.59
 94.27     878.00      29.63
 94.37     797.19      28.23
 94.47     894.00      29.90
 94.57     903.94      30.07
 94.67     930.00      30.50
 94.77     888.25      29.80
 94.87     915.00      30.25
 94.97     975.15      31.23
 95.07     934.00      30.56
 95.17     910.38      30.17
 95.27     952.00      30.85
 95.37     951.00      30.84
 95.47     852.23      29.19
 95.57     929.58      30.49
 95.67     860.39      29.33
 95.77     866.00      29.43
 95.87     871.94      29.53
 95.97     809.00      28.44
 96.07     760.33      27.57
 96.17     790.00      28.11
 96.27     721.96      26.87
 96.37     793.00      28.16
 96.47     703.00      26.51
 96.57     799.32      28.27
 96.67     757.34      27.52
 96.77     835.89      28.91
 96.87     818.00      28.60
 96.97     867.00      29.44
 97.07     867.00      29.44
 97.17     912.68      30.21
 97.27     982.00      31.34
 97.37    1055.00      32.48
 97.47    1197.00      34.60
 97.57    1294.41      35.98
 97.67    1325.00      36.40
 97.77    1345.00      36.67
 97.87    1390.60      37.29
 97.97    1472.00      38.37
 98.07    1484.00      38.52
 98.17    1497.00      38.69
 98.27    1466.00      38.29
 98.37    1448.00      38.05
 98.47    1437.00      37.91
 98.57    1315.00      36.26
 98.67    1277.00      35.74
 98.77    1215.00      34.86
 98.87    1165.39      34.14
 98.97    1099.00      33.15
 99.07    1090.00      33.02
 99.17    1047.00      32.36
 99.27     905.56      30.09
 99.37    1013.03      31.83
 99.47     937.01      30.61
 99.57     918.00      30.30
 99.67     897.00      29.95
 99.77     960.00      30.98
 99.87     988.00      31.43
 99.97    1037.00      32.20
100.07    1086.77      32.97
100.17    1153.00      33.96
100.27    1292.00      35.94
100.37    1274.01      35.69
100.47    1453.00      38.12
100.57    1572.00      39.65
100.67    1586.00      39.82
100.77    1707.00      41.32
100.87    1841.29      42.91
100.97    1837.00      42.86
101.07    2002.00      44.74
101.17    1961.00      44.28
101.27    1911.43      43.72
101.37    1937.75      44.02
101.47    2018.00      44.92
101.57    2015.00      44.89
101.67    1961.37      44.29
101.77    1891.00      43.49
101.87    1919.48      43.81
101.97    1675.11      40.93
102.07    1634.00      40.42
102.17    1570.00      39.62
102.27    1437.00      37.91
102.37    1534.00      39.17
102.47    1379.00      37.13
102.57    1375.00      37.08
102.67    1342.00      36.63
102.77    1226.20      35.02
102.87    1308.46      36.17
102.97    1281.44      35.80
103.07    1170.00      34.21
103.17    1192.50      34.53
103.27    1133.88      33.67
103.37    1122.43      33.50
103.47    1083.35      32.91
103.57    1063.00      32.60
103.67    1072.89      32.75
103.77     944.00      30.72
103.87     931.00      30.51
103.97     932.00      30.53
104.07     853.90      29.22
104.17     798.00      28.25
104.27     792.00      28.14
104.37     727.00      26.96
104.47     713.00      26.70
104.57     710.00      26.65
104.67     651.86      25.53
104.77     648.28      25.46
104.87     647.00      25.44
104.97     578.39      24.05
105.07     619.00      24.88
105.17     582.00      24.12
105.27     597.00      24.43
105.37     618.00      24.86
105.47     573.82      23.95
105.57     538.00      23.19
105.67     580.00      24.08
105.77     578.00      24.04
105.87     562.00      23.71
105.97     581.00      24.10
106.07     612.12      24.74
106.17     585.00      24.19
106.27     621.00      24.92
106.37     588.00      24.25
106.47     590.00      24.29
106.57     591.00      24.31
106.67     664.00      25.77
106.77     616.14      24.82
106.87     618.00      24.86
106.97     611.72      24.73
107.07     631.00      25.12
107.17     605.76      24.61
107.27     647.44      25.44
107.37     648.31      25.46
107.47     680.96      26.10
107.57     697.00      26.40
107.67     653.13      25.56
107.77     737.00      27.15
107.87     699.00      26.44
107.97     726.60      26.96
108.07     699.27      26.44
108.17     714.82      26.74
108.27     700.00      26.46
108.37     706.00      26.57
108.47     716.00      26.76
108.57     730.00      27.02
108.67     676.20      26.00
108.77     724.00      26.91
108.87     706.00      26.57
108.97     727.00      26.96
109.07     675.00      25.98
109.17     753.00      27.44
109.27     782.94      27.98
109.37     704.00      26.53
109.47     760.00      27.57
109.57     729.00      27.00
109.67     788.26      28.08
109.77     722.00      26.87
109.87     720.40      26.84
109.97     708.00      26.61
110.07     654.24      25.58
110.17     673.00      25.94
110.27     686.11      26.19
110.37     664.00      25.77
110.47     666.45      25.82
110.57     666.00      25.81
110.67     638.62      25.27
110.77     640.81      25.31
110.87     637.49      25.25
110.97     598.48      24.46
111.07     611.00      24.72
111.17     585.00      24.19
111.27     600.00      24.49
111.37     586.00      24.21
111.47     576.00      24.00
111.57     611.00      24.72
111.67     548.00      23.41
111.77     549.00      23.43
111.87     617.00      24.84
111.97     602.42      24.54
112.07     519.50      22.79
112.17     565.00      23.77
112.27     551.00      23.47
112.37     600.00      24.49
112.47     608.00      24.66
112.57     573.77      23.95
112.67     553.14      23.52
112.77     579.00      24.06
112.87     581.70      24.12
112.97     641.58      25.33
113.07     589.00      24.27
113.17     586.47      24.22
113.27     579.00      24.06
113.37     569.54      23.87
113.47     573.50      23.95
113.57     628.00      25.06
113.67     625.00      25.00
113.77     600.42      24.50
113.87     634.00      25.18
113.97     614.97      24.80
114.07     701.00      26.48
114.17     665.00      25.79
114.27     751.12      27.41
114.37     710.00      26.65
114.47     707.00      26.59
114.57     785.54      28.03
114.67     792.25      28.15
114.77     886.68      29.78
114.87     905.00      30.08
114.97     959.00      30.97
115.07    1094.00      33.08
115.17    1223.00      34.97
115.27    1425.00      37.75
115.37    1543.00      39.28
115.47    1644.00      40.55
115.57    1789.40      42.30
115.67    2100.00      45.83
115.77    2498.00      49.98
115.87    2588.78      50.88
115.97    2853.76      53.42
116.07    3240.60      56.93
116.17    3476.23      58.96
116.27    3835.14      61.93
116.37    4338.00      65.86
116.47    4700.00      68.56
116.57    5073.11      71.23
116.67    5509.00      74.22
116.77    5765.00      75.93
116.87    6066.68      77.89
116.97    6540.79      80.88
117.07    6636.00      81.46
117.17    7082.60      84.16
117.27    7245.00      85.12
117.37    7086.00      84.18
117.47    7122.69      84.40
117.57    6845.00      82.73
117.67    6946.78      83.35
117.77    6598.00      81.23
117.87    6684.59      81.76
117.97    6028.00      77.64
118.07    5845.00      76.45
118.17    5472.00      73.97
118.27    4989.00      70.63
118.37    4741.00      68.85
118.47    4382.00      66.20
118.57    3988.00      63.15
118.67    3759.00      61.31
118.77    3465.00      58.86
118.87    3060.00      55.32
118.97    2773.00      52.66
119.07    2417.00      49.16
119.17    2175.00      46.64
119.27    2036.19      45.12
119.37    1918.61      43.80
119.47    1691.00      41.12
119.57    1492.00      38.63
119.67    1389.00      37.27
119.77    1240.87      35.23
119.87    1149.29      33.90
119.97    1104.71      33.24
120.07    1069.00      32.70
120.17     955.13      30.91
120.27     903.00      30.05
120.37     844.06      29.05
120.47     799.77      28.28
120.57     823.50      28.70
120.67     784.07      28.00
120.77     727.00      26.96
120.87     765.00      27.66
120.97     737.00      27.15
121.07     672.00      25.92
121.17     637.33      25.25
121.27     626.47      25.03
121.37     632.00      25.14
121.47     621.75      24.93
121.57     613.65      24.77
121.67     622.00      24.94
121.77     648.00      25.46
121.87     633.00      25.16
121.97     622.00      24.94
122.07     686.76      26.21
122.17     649.00      25.48
122.27     605.00      24.60
122.37     649.00      25.48
122.47     589.00      24.27
122.57     618.00      24.86
122.67     607.26      24.64
122.77     634.00      25.18
122.87     702.84      26.51
122.97     611.85      24.74
123.07     695.00      26.36
123.17     668.00      25.85
123.27     625.47      25.01
123.37     666.00      25.81
123.47     702.00      26.50
123.57     694.00      26.34
123.67     668.00      25.85
123.77     718.00      26.80
123.87     645.29      25.40
123.97     633.62      25.17
124.07     724.60      26.92
124.17     635.00      25.20
124.27     708.00      26.61
124.37     672.00      25.92
124.47     612.00      24.74
124.57     689.80      26.26
124.67     654.00      25.57
124.77     678.00      26.04
124.87     657.00      25.63
124.97     676.00      26.00
