  9.97     605.00      24.60
 10.07     545.19      23.35
 10.17     600.00      24.49
 10.27     539.41      23.23
 10.37     557.00      23.60
 10.47     521.41      22.83
 10.57     587.00      24.23
 10.67     564.00      23.75
 10.77     553.22      23.52
 10.87     542.00      23.28
 10.97     578.67      24.06
 11.07     621.00      24.92
 11.17     595.00      24.39
 11.27     576.00      24.00
 11.37     546.65      23.38
 11.47     541.00      23.26
 11.57     586.51      24.22
 11.67     617.00      24.84
 11.77     607.00      24.64
 11.87     600.72      24.51
 11.97     672.00      25.92
 12.07     689.00      26.25
 12.17     701.00      26.48
 12.27     645.00      25.40
 12.37     634.00      25.18
 12.47     600.74      24.51
 12.57     584.00      24.17
 12.67     591.72      24.33
 12.77     595.00      24.39
 12.87     587.00      24.23
 12.97     570.00      23.87
 13.07     572.00      23.92
 13.17     527.99      22.98
 13.27     583.91      24.16
 13.37     587.93      24.25
 13.47     537.36      23.18
 13.57     547.00      23.39
 13.67     538.00      23.19
 13.77     566.63      23.80
 13.87     570.00      23.87
 13.97     524.00      22.89
 14.07     548.00      23.41
 14.17     565.00      23.77
 14.27     533.00      23.09
 14.37     580.30      24.09
 14.47     537.00      23.17
 14.57     525.81      22.93
 14.67     553.00      23.52
 14.77     555.00      23.56
 14.87     552.00      23.49
 14.97     550.78      23.47
 15.07     535.00      23.13
 15.17     559.00      23.64
 15.27     574.00      23.96
 15.37     579.00      24.06
 15.47     534.00      23.11
 15.57     575.72      23.99
 15.67     524.00      22.89
 15.77     546.00      23.37
 15.87     532.00      23.07
 15.97     574.00      23.96
 16.07     570.00      23.87
 16.17     559.00      23.64
 16.27     533.00      23.09
 16.37     580.00      24.08
 16.47     538.92      23.21
 16.57     569.00      23.85
 16.67     541.00      23.26
 16.77     570.00      23.87
 16.87     549.00      23.43
 16.97     564.68      23.76
 17.07     579.00      24.06
 17.17     561.00      23.69
 17.27     556.00      23.58
 17.37     536.00      23.15
 17.47     496.00      22.27
 17.57     523.01      22.87
 17.67     528.76      22.99
 17.77     553.00      23.52
 17.87     587.00      24.23
 17.97     598.20      24.46
 18.07     570.72      23.89
 18.17     584.00      24.17
 18.27     590.00      24.29
 18.37     546.00      23.37
 18.47     573.00      23.94
 18.57     520.24      22.81
 18.67     519.05      22.78
 18.77     600.52      24.51
 18.87     505.00      22.47
 18.97     575.98      24.00
 19.07     519.00      22.78
 19.17     540.00      23.24
 19.27     542.50      23.29
 19.37     567.60      23.82
 19.47     524.00      22.89
 19.57     537.00      23.17
 19.67     599.38      24.48
 19.77     527.00      22.96
 19.87     534.00      23.11
 19.97     527.00      22.96
 20.07     569.00      23.85
 20.17     579.00      24.06
 20.27     506.00      22.49
 20.37     516.00      22.72
 20.47     548.00      23.41
 20.57     551.00      23.47
 20.67     534.00      23.11
 20.77     543.00      23.30
 20.87     595.45      24.40
 20.97     589.00      24.27
 21.07     522.48      22.86
 21.17     553.00      23.52
 21.27     584.95      24.19
 21.37     564.00      23.75
 21.47     546.00      23.37
 21.57     537.00      23.17
 21.67     575.00      23.98
 21.77     553.00      23.52
 21.87     537.04      23.17
 21.97     528.00      22.98
 22.07     528.00      22.98
 22.17     526.00      22.93
 22.27     509.00      22.56
 22.37     518.50      22.77
 22.47     533.00      23.09
 22.57     544.00      23.32
 22.67     557.00      23.60
 22.77     518.67      22.77
 22.87     571.00      23.90
 22.97     572.00      23.92
 23.07     549.00      23.43
 23.17     554.00      23.54
 23.27     531.00      23.04
 23.37     538.73      23.21
 23.47     573.00      23.94
 23.57     594.00      24.37
 23.67     558.00      23.62
 23.77     587.00      24.23
 23.87     564.00      23.75
 23.97     600.00      24.49
 24.07     558.22      23.63
 24.17     578.66      24.06
 24.27     528.85      23.00
 24.37     577.00      24.02
 24.47     543.63      23.32
 24.57     598.00      24.45
 24.67     618.00      24.86
 24.77     605.00      24.60
 24.87     623.00      24.96
 24.97     609.38      24.69
 25.07     601.15      24.52
 25.17     547.62      23.40
 25.27     538.91      23.21
 25.37     569.00      23.85
 25.47     573.60      23.95
 25.57     548.70      23.42
 25.67     561.00      23.69
 25.77     562.97      23.73
 25.87     557.00      23.60
 25.97     584.89      24.18
 26.07     559.50      23.65
 26.17     569.00      23.85
 26.27     549.00      23.43
 26.37     502.28      22.41
 26.47     586.01      24.21
 26.57     554.00      23.54
 26.67     578.95      24.06
 26.77     582.00      24.12
 26.87     571.00      23.90
 26.97     586.00      24.21
 27.07     536.93      23.17
 27.17     585.00      24.19
 27.27     533.95      23.11
 27.37     556.00      23.58
 27.47     571.00      23.90
 27.57     560.19      23.67
 27.67     591.55      24.32
 27.77     578.00      24.04
 27.87     592.00      24.33
 27.97     673.00      25.94
 28.07     714.03      26.72
 28.17     839.00      28.97
 28.27     913.57      30.23
 28.37     861.00      29.34
 28.47     826.00      28.74
 28.57     778.00      27.89
 28.67     736.22      27.13
 28.77     701.41      26.48
 28.87     776.88      27.87
 28.97     866.88      29.44
 29.07     850.91      29.17
 29.17     708.21      26.61
 29.27     708.00      26.61
 29.37     624.00      24.98
 29.47     613.00      24.76
 29.57     581.00      24.10
 29.67     591.00      24.31
 29.77     576.99      24.02
 29.87     561.00      23.69
 29.97     565.06      23.77
 30.07     560.00      23.66
 30.17     594.00      24.37
 30.27     558.00      23.62
 30.37     617.00      24.84
 30.47     574.00      23.96
 30.57     607.00      24.64
 30.67     572.00      23.92
 30.77     604.00      24.58
 30.87     589.00      24.27
 30.97     595.00      24.39
 31.07     638.00      25.26
 31.17     543.96      23.32
 31.27     595.00      24.39
 31.37     545.00      23.35
 31.47     511.34      22.61
 31.57     497.18      22.30
 31.67     504.00      22.45
 31.77     553.00      23.52
 31.87     556.00      23.58
 31.97     513.00      22.65
 32.07     548.62      23.42
 32.17     539.00      23.22
 32.27     544.81      23.34
 32.37     501.78      22.40
 32.47     552.86      23.51
 32.57     535.83      23.15
 32.67     492.00      22.18
 32.77     543.00      23.30
 32.87     581.00      24.10
 32.97     504.00      22.45
 33.07     549.26      23.44
 33.17     567.00      23.81
 33.27     525.94      22.93
 33.37     559.00      23.64
 33.47     579.43      24.07
 33.57     621.00      24.92
 33.67     582.00      24.12
 33.77     712.00      26.68
 33.87     836.00      28.91
 33.97     909.00      30.15
 34.07    1045.54      32.33
 34.17    1007.00      31.73
 34.27     940.31      30.66
 34.37     866.84      29.44
 34.47     703.00      26.51
 34.57     631.00      25.12
 34.67     624.00      24.98
 34.77     556.00      23.58
 34.87     502.00      22.41
 34.97     553.00      23.52
 35.07     504.00      22.45
 35.17     529.00      23.00
 35.27     545.50      23.36
 35.37     550.00      23.45
 35.47     557.99      23.62
 35.57     480.44      21.92
 35.67     500.10      22.36
 35.77     515.00      22.69
 35.87     496.00      22.27
 35.97     481.00      21.93
 36.07     501.00      22.38
 36.17     516.89      22.74
 36.27     508.00      22.54
 36.37     485.00      22.02
 36.47     508.00      22.54
 36.57     540.04      23.24
 36.67     520.00      22.80
 36.77     546.12      23.37
 36.87     510.00      22.58
 36.97     504.00      22.45
 37.07     507.00      22.52
 37.17     513.00      22.65
 37.27     491.00      22.16
 37.37     481.00      21.93
 37.47     508.00      22.54
 37.57     503.00      22.43
 37.67     489.00      22.11
 37.77     564.01      23.75
 37.87     573.00      23.94
 37.97     491.63      22.17
 38.07     538.82      23.21
 38.17     519.65      22.80
 38.27     511.00      22.61
 38.37     555.00      23.56
 38.47     472.00      21.73
 38.57     492.00      22.18
 38.67     494.00      22.23
 38.77     478.57      21.88
 38.87     511.00      22.61
 38.97     505.00      22.47
 39.07     535.00      23.13
 39.17     489.47      22.12
 39.27     466.94      21.61
 39.37     559.00      23.64
 39.47     509.00      22.56
 39.57     514.43      22.68
 39.67     510.84      22.60
 39.77     494.00      22.23
 39.87     516.00      22.72
 39.97     487.00      22.07
 40.07     480.00      21.91
 40.17     479.00      21.89
 40.27     502.00      22.41
 40.37     443.00      21.05
 40.47     495.00      22.25
 40.57     495.00      22.25
 40.67     508.00      22.54
 40.77     538.39      23.20
 40.87     468.00      21.63
 40.97     511.00      22.61
 41.07     465.00      21.56
 41.17     515.00      22.69
 41.27     487.00      22.07
 41.37     490.00      22.14
 41.47     450.00      21.21
 41.57     441.00      21.00
 41.67     478.00      21.86
 41.77     491.00      22.16
 41.87     507.00      22.52
 41.97     495.00      22.25
 42.07     494.00      22.23
 42.17     523.38      22.88
 42.27     565.03      23.77
 42.37     506.00      22.49
 42.47     513.00      22.65
 42.57     545.00      23.35
 42.67     607.19      24.64
 42.77     628.92      25.08
 42.87     565.00      23.77
 42.97     549.00      23.43
 43.07     558.71      23.64
 43.17     521.00      22.83
 43.27     534.00      23.11
 43.37     484.07      22.00
 43.47     521.05      22.83
 43.57     507.00      22.52
 43.67     466.00      21.59
 43.77     463.98      21.54
 43.87     473.00      21.75
 43.97     537.00      23.17
 44.07     514.00      22.67
 44.17     481.00      21.93
 44.27     467.25      21.62
 44.37     450.00      21.21
 44.47     470.67      21.69
 44.57     543.00      23.30
 44.67     535.49      23.14
 44.77     514.00      22.67
 44.87     509.00      22.56
 44.97     501.00      22.38
 45.07     473.00      21.75
 45.17     533.80      23.10
 45.27     534.70      23.12
 45.37     515.41      22.70
 45.47     463.07      21.52
 45.57     508.00      22.54
 45.67     474.93      21.79
 45.77     489.00      22.11
 45.87     524.80      22.91
 45.97     476.57      21.83
 46.07     515.00      22.69
 46.17     519.00      22.78
 46.27     524.00      22.89
 46.37     487.00      22.07
 46.47     482.00      21.95
 46.57     472.00      21.73
 46.67     492.82      22.20
 46.77     480.00      21.91
 46.87     500.00      22.36
 46.97     504.16      22.45
 47.07     514.26      22.68
 47.17     496.15      22.27
 47.27     479.00      21.89
 47.37     513.36      22.66
 47.47     505.00      22.47
 47.57     551.00      23.47
 47.67     553.00      23.52
 47.77     586.00      24.21
 47.87     568.36      23.84
 47.97     603.60      24.57
 48.07     547.59      23.40
 48.17     526.00      22.93
 48.27     591.27      24.32
 48.37     516.00      22.72
 48.47     529.00      23.00
 48.57     541.00      23.26
 48.67     501.91      22.40
 48.77     558.73      23.64
 48.87     499.00      22.34
 48.97     544.00      23.32
 49.07     523.00      22.87
 49.17     579.42      24.07
 49.27     568.00      23.83
 49.37     519.03      22.78
 49.47     627.00      25.04
 49.57     665.00      25.79
 49.67     722.00      26.87
 49.77     841.34      29.01
 49.87    1129.00      33.60
 49.97    1424.00      37.74
 50.07    1838.00      42.87
 50.17    2230.00      47.22
 50.27    2347.00      48.45
 50.37    2385.34      48.84
 50.47    2047.00      45.24
 50.57    1729.00      41.58
 50.67    1328.03      36.44
 50.77    1070.02      32.71
 50.87     858.63      29.30
 50.97     761.00      27.59
 51.07     686.00      26.19
 51.17     619.00      24.88
 51.27     636.00      25.22
 51.37     575.00      23.98
 51.47     567.88      23.83
 51.57     567.00      23.81
 51.67     583.34      24.15
 51.77     498.83      22.33
 51.87     575.00      23.98
 51.97     538.00      23.19
 52.07     506.00      22.49
 52.17     538.00      23.19
 52.27     633.00      25.16
 52.37     544.18      23.33
 52.47     525.00      22.91
 52.57     563.00      23.73
 52.67     589.00      24.27
 52.77     528.38      22.99
 52.87     639.64      25.29
 52.97     660.34      25.70
 53.07     683.59      26.15
 53.17     821.00      28.65
 53.27     852.00      29.19
 53.37    1048.00      32.37
 53.47    1120.00      33.47
 53.57    1181.00      34.37
 53.67    1213.25      34.83
 53.77    1123.08      33.51
 53.87    1025.27      32.02
 53.97     870.00      29.50
 54.07     750.41      27.39
 54.17     739.00      27.18
 54.27     678.00      26.04
 54.37     618.00      24.86
 54.47     581.00      24.10
 54.57     571.00      23.90
 54.67     567.55      23.82
 54.77     597.00      24.43
 54.87     547.82      23.41
 54.97     619.00      24.88
 55.07     561.29      23.69
 55.17     585.00      24.19
 55.27     561.59      23.70
 55.37     599.00      24.47
 55.47     587.22      24.23
 55.57     594.18      24.38
 55.67     612.13      24.74
 55.77     545.00      23.35
 55.87     628.16      25.06
 55.97     610.00      24.70
 56.07     690.43      26.28
 56.17     707.00      26.59
 56.27     869.56      29.49
 56.37     941.00      30.68
 56.47    1214.82      34.85
 56.57    1438.00      37.92
 56.67    1797.00      42.39
 56.77    2196.00      46.86
 56.87    2334.64      48.32
 56.97    2527.00      50.27
 57.07    2437.00      49.37
 57.17    2320.00      48.17
 57.27    1953.00      44.19
 57.37    1698.00      41.21
 57.47    1379.00      37.13
 57.57    1086.59      32.96
 57.67     947.00      30.77
 57.77     823.00      28.69
 57.87     748.00      27.35
 57.97     743.00      27.26
 58.07     651.62      25.53
 58.17     659.28      25.68
 58.27     692.00      26.31
 58.37     724.25      26.91
 58.47     825.40      28.73
 58.57     855.00      29.24
 58.67     936.00      30.59
 58.77    1052.16      32.44
 58.87    1150.00      33.91
 58.97    1192.00      34.53
 59.07    1308.00      36.17
 59.17    1234.10      35.13
 59.27    1207.12      34.74
 59.37    1237.95      35.18
 59.47    1251.00      35.37
 59.57    1160.22      34.06
 59.67    1242.00      35.24
 59.77    1175.00      34.28
 59.87    1210.00      34.79
 59.97    1286.00      35.86
 60.07    1312.00      36.22
 60.17    1383.00      37.19
 60.27    1470.00      38.34
 60.37    1454.49      38.14
 60.47    1475.00      38.41
 60.57    1321.00      36.35
 60.67    1193.00      34.54
 60.77    1053.63      32.46
 60.87     967.00      31.10
 60.97     802.00      28.32
 61.07     731.00      27.04
 61.17     679.58      26.07
 61.27     625.00      25.00
 61.37     638.00      25.26
 61.47     644.71      25.39
 61.57     741.00      27.22
 61.67     777.00      27.87
 61.77     889.00      29.82
 61.87     934.50      30.57
 61.97    1133.34      33.67
 62.07    1249.00      35.34
 62.17    1343.28      36.65
 62.27    1334.00      36.52
 62.37    1352.88      36.78
 62.47    1242.00      35.24
 62.57    1185.41      34.43
 62.67     985.00      31.38
 62.77     840.00      28.98
 62.87     798.00      28.25
 62.97     764.05      27.64
 63.07     660.95      25.71
 63.17     623.00      24.96
 63.27     630.33      25.11
 63.37     589.60      24.28
 63.47     569.86      23.87
 63.57     603.00      24.56
 63.67     527.11      22.96
 63.77     614.45      24.79
 63.87     637.82      25.26
 63.97     594.00      24.37
 64.07     696.99      26.40
 64.17     729.00      27.00
 64.27     757.33      27.52
 64.37     863.04      29.38
 64.47     881.72      29.69
 64.57     936.00      30.59
 64.67    1017.00      31.89
 64.77     943.27      30.71
 64.87     986.08      31.40
 64.97    1015.00      31.86
 65.07     908.87      30.15
 65.17     832.00      28.84
 65.27     842.00      29.02
 65.37     729.00      27.00
 65.47     733.55      27.08
 65.57     652.47      25.54
 65.67     681.24      26.10
 65.77     582.00      24.12
 65.87     646.33      25.42
 65.97     558.00      23.62
 66.07     599.00      24.47
 66.17     538.00      23.19
 66.27     589.00      24.27
 66.37     562.00      23.71
 66.47     564.00      23.75
 66.57     553.37      23.52
 66.67     553.71      23.53
 66.77     544.76      23.34
 66.87     626.44      25.03
 66.97     581.00      24.10
 67.07     623.00      24.96
 67.17     634.83      25.20
 67.27     763.28      27.63
 67.37     748.00      27.35
 67.47     917.00      30.28
 67.57    1080.38      32.87
 67.67    1315.13      36.26
 67.77    1491.00      38.61
 67.87    1738.00      41.69
 67.97    2040.00      45.17
 68.07    2204.00      46.95
 68.17    2316.00      48.12
 68.27    2399.00      48.98
 68.37    2337.00      48.34
 68.47    2007.52      44.81
 68.57    1922.00      43.84
 68.67    1519.11      38.98
 68.77    1391.00      37.30
 68.87    1130.00      33.62
 68.97    1012.42      31.82
 69.07     796.00      28.21
 69.17     746.00      27.31
 69.27     695.00      26.36
 69.37     632.00      25.14
 69.47     639.23      25.28
 69.57     571.85      23.91
 69.67     611.32      24.72
 69.77     574.58      23.97
 69.87     580.00      24.08
 69.97     592.00      24.33
 70.07     582.87      24.14
 70.17     595.00      24.39
 70.27     570.17      23.88
 70.37     545.00      23.35
 70.47     554.00      23.54
 70.57     539.00      23.22
 70.67     581.84      24.12
 70.77     577.86      24.04
 70.87     576.08      24.00
 70.97     610.67      24.71
 71.07     665.89      25.80
 71.17     711.00      26.66
 71.27     750.80      27.40
 71.37     790.00      28.11
 71.47     937.00      30.61
 71.57    1082.00      32.89
 71.67    1235.00      35.14
 71.77    1456.00      38.16
 71.87    1565.00      39.56
 71.97    1689.62      41.11
 72.07    1888.70      43.46
 72.17    1882.00      43.38
 72.27    1792.00      42.33
 72.37    1756.00      41.90
 72.47    1620.00      40.25
 72.57    1437.25      37.91
 72.67    1354.48      36.80
 72.77    1131.00      33.63
 72.87    1007.00      31.73
 72.97     924.00      30.40
 73.07     872.00      29.53
 73.17     767.00      27.69
 73.27     728.27      26.99
 73.37     623.00      24.96
 73.47     681.84      26.11
 73.57     624.00      24.98
 73.67     640.00      25.30
 73.77     585.00      24.19
 73.87     583.00      24.15
 73.97     631.66      25.13
 74.07     604.72      24.59
 74.17     557.00      23.60
 74.27     572.00      23.92
 74.37     599.95      24.49
 74.47     622.94      24.96
 74.57     635.00      25.20
 74.67     617.00      24.84
 74.77     534.00      23.11
 74.87     620.00      24.90
 74.97     664.00      25.77
 75.07     549.19      23.43
 75.17     632.00      25.14
 75.27     529.05      23.00
 75.37     598.00      24.45
 75.47     577.00      24.02
 75.57     566.00      23.79
 75.67     597.00      24.43
 75.77     534.10      23.11
 75.87     540.77      23.25
 75.97     545.13      23.35
 76.07     593.33      24.36
 76.17     609.00      24.68
 76.27     607.86      24.65
 76.37     675.00      25.98
 76.47     695.00      26.36
 76.57     652.16      25.54
 76.67     648.09      25.46
 76.77     690.00      26.27
 76.87     715.05      26.74
 76.97     694.06      26.34
 77.07     641.00      25.32
 77.17     572.00      23.92
 77.27     622.00      24.94
 77.37     579.78      24.08
 77.47     589.00      24.27
 77.57     502.00      22.41
 77.67     550.00      23.45
 77.77     508.08      22.54
 77.87     503.79      22.45
 77.97     506.00      22.49
 78.07     484.20      22.00
 78.17     511.00      22.61
 78.27     501.00      22.38
 78.37     520.00      22.80
 78.47     500.00      22.36
 78.57     526.00      22.93
 78.67     512.29      22.63
 78.77     483.67      21.99
 78.87     521.00      22.83
 78.97     552.66      23.51
 79.07     486.00      22.05
 79.17     519.00      22.78
 79.27     518.00      22.76
 79.37     494.17      22.23
 79.47     533.00      23.09
 79.57     477.24      21.85
 79.67     483.00      21.98
 79.77     532.63      23.08
 79.87     514.00      22.67
 79.97     524.48      22.90
 80.07     498.00      22.32
 80.17     506.29      22.50
 80.27     523.00      22.87
 80.37     586.96      24.23
 80.47     583.76      24.16
 80.57     556.00      23.58
 80.67     587.17      24.23
 80.77     661.66      25.72
 80.87     618.00      24.86
 80.97     693.53      26.34
 81.07     666.00      25.81
 81.17     673.00      25.94
 81.27     711.34      26.67
 81.37     766.00      27.68
 81.47     688.00      26.23
 81.57     777.00      27.87
 81.67     788.35      28.08
 81.77     695.00      26.36
 81.87     734.26      27.10
 81.97     703.00      26.51
 82.07     675.00      25.98
 82.17     686.00      26.19
 82.27     614.71      24.79
 82.37     628.00      25.06
 82.47     606.00      24.62
 82.57     598.00      24.45
 82.67     589.00      24.27
 82.77     538.00      23.19
 82.87     551.00      23.47
 82.97     559.00      23.64
 83.07     492.00      22.18
 83.17     571.00      23.90
 83.27     582.00      24.12
 83.37     542.86      23.30
 83.47     503.22      22.43
 83.57     549.00      23.43
 83.67     508.90      22.56
 83.77     514.40      22.68
 83.87     545.00      23.35
 83.97     525.00      22.91
 84.07     553.00      23.52
 84.17     515.00      22.69
 84.27     588.56      24.26
 84.37     563.00      23.73
 84.47     558.00      23.62
 84.57     547.00      23.39
 84.67     567.00      23.81
 84.77     525.00      22.91
 84.87     551.00      23.47
 84.97     529.00      23.00
 85.07     504.00      22.45
 85.17     511.07      22.61
 85.27     527.00      22.96
 85.37     511.00      22.61
 85.47     515.58      22.71
 85.57     539.00      23.22
 85.67     513.00      22.65
 85.77     503.00      22.43
 85.87     501.00      22.38
 85.97     501.00      22.38
 86.07     492.29      22.19
 86.17     511.00      22.61
 86.27     513.00      22.65
 86.37     552.00      23.49
 86.47     575.00      23.98
 86.57     524.00      22.89
 86.67     544.00      23.32
 86.77     543.00      23.30
 86.87     507.00      22.52
 86.97     516.51      22.73
 87.07     569.64      23.87
 87.17     565.00      23.77
 87.27     604.33      24.58
 87.37     618.75      24.87
 87.47     591.68      24.32
 87.57     662.00      25.73
 87.67     656.44      25.62
 87.77     628.96      25.08
 87.87     597.00      24.43
 87.97     633.92      25.18
 88.07     593.00      24.35
 88.17     548.48      23.42
 88.27     532.69      23.08
 88.37     613.00      24.76
 88.47     521.07      22.83
 88.57     554.00      23.54
 88.67     566.00      23.79
 88.77     557.00      23.60
 88.87     599.00      24.47
 88.97     565.00      23.77
 89.07     564.09      23.75
 89.17     593.00      24.35
 89.27     599.69      24.49
 89.37     620.00      24.90
 89.47     557.52      23.61
 89.57     594.00      24.37
 89.67     623.61      24.97
 89.77     559.51      23.65
 89.87     601.00      24.52
 89.97     529.00      23.00
 90.07     521.57      22.84
 90.17     594.68      24.39
 90.27     533.00      23.09
 90.37     534.10      23.11
 90.47     544.00      23.32
 90.57     560.18      23.67
 90.67     502.00      22.41
 90.77     533.00      23.09
 90.87     523.24      22.87
 90.97     553.00      23.52
 91.07     484.00      22.00
 91.17     503.00      22.43
 91.27     533.00      23.09
 91.37     501.00      22.38
 91.47     538.42      23.20
 91.57     495.32      22.26
 91.67     474.00      21.77
 91.77     519.75      22.80
 91.87     511.00      22.61
 91.97     516.00      22.72
 92.07     534.00      23.11
 92.17     503.71      22.44
 92.27     535.00      23.13
 92.37     545.00      23.35
 92.47     570.86      23.89
 92.57     511.00      22.61
 92.67     589.00      24.27
 92.77     579.00      24.06
 92.87     646.00      25.42
 92.97     637.12      25.24
 93.07     694.00      26.34
 93.17     681.00      26.10
 93.27     733.00      27.07
 93.37     736.92      27.15
 93.47     741.00      27.22
 93.57     740.00      27.20
 93.67     827.00      28.76
 93.77     755.00      27.48
 93.87     799.26      28.27
 93.97     793.00      28.16
 94.07     842.00      29.02
 94.17     804.00      28.35
 94.27     865.20      29.41
 94.37     822.00      28.67
 94.47     830.00      28.81
 94.57     847.00      29.10
 94.67     886.00      29.77
 94.77     863.00      29.38
 94.87     899.00      29.98
 94.97     874.00      29.56
 95.07     884.00      29.73
 95.17     839.00      28.97
 95.27     907.00      30.12
 95.37     783.11      27.98
 95.47     858.00      29.29
 95.57     746.00      27.31
 95.67     790.00      28.11
 95.77     780.00      27.93
 95.87     683.00      26.13
 95.97     737.54      27.16
 96.07     743.00      27.26
 96.17     645.00      25.40
 96.27     683.00      26.13
 96.37     730.00      27.02
 96.47     704.25      26.54
 96.57     804.06      28.36
 96.67     800.00      28.28
 96.77     837.00      28.93
 96.87     925.00      30.41
 96.97    1050.34      32.41
 97.07    1071.00      32.73
 97.17    1098.00      33.14
 97.27    1172.00      34.23
 97.37    1279.00      35.76
 97.47    1283.00      35.82
 97.57    1404.00      37.47
 97.67    1394.00      37.34
 97.77    1360.65      36.89
 97.87    1394.93      37.35
 97.97    1345.59      36.68
 98.07    1365.00      36.95
 98.17    1310.06      36.19
 98.27    1208.00      34.76
 98.37    1125.24      33.54
 98.47    1026.00      32.03
 98.57    1070.00      32.71
 98.67    1036.00      32.19
 98.77     910.00      30.17
 98.87     909.00      30.15
 98.97     877.00      29.61
 99.07     870.10      29.50
 99.17     820.00      28.64
 99.27     826.00      28.74
 99.37     866.22      29.43
 99.47     909.00      30.15
 99.57    1010.08      31.78
 99.67    1035.00      32.17
 99.77    1126.20      33.56
 99.87    1172.00      34.23
 99.97    1340.86      36.62
100.07    1411.00      37.56
100.17    1534.00      39.17
100.27    1568.85      39.61
100.37    1721.00      41.48
100.47    1883.00      43.39
100.57    1779.70      42.19
100.67    1988.00      44.59
100.77    1926.00      43.89
100.87    2012.00      44.86
100.97    2075.39      45.56
101.07    2004.00      44.77
101.17    2056.00      45.34
101.27    1870.09      43.24
101.37    1898.00      43.57
101.47    1694.00      41.16
101.57    1700.00      41.23
101.67    1617.93      40.22
101.77    1495.00      38.67
101.87    1496.00      38.68
101.97    1440.00      37.95
102.07    1278.00      35.75
102.17    1329.00      36.46
102.27    1238.00      35.19
102.37    1188.00      34.47
102.47    1186.00      34.44
102.57    1219.98      34.93
102.67    1143.00      33.81
102.77    1104.00      33.23
102.87    1065.00      32.63
102.97    1117.00      33.42
103.07     992.00      31.50
103.17     988.07      31.43
103.27     970.00      31.14
103.37     916.00      30.27
103.47     921.00      30.35
103.57     817.57      28.59
103.67     809.84      28.46
103.77     781.00      27.95
103.87     718.00      26.80
103.97     684.00      26.15
104.07     674.02      25.96
104.17     662.88      25.75
104.27     657.00      25.63
104.37     590.59      24.30
104.47     535.42      23.14
104.57     610.00      24.70
104.67     553.00      23.52
104.77     526.79      22.95
104.87     517.00      22.74
104.97     557.00      23.60
105.07     518.58      22.77
105.17     534.19      23.11
105.27     548.00      23.41
105.37     502.70      22.42
105.47     514.00      22.67
105.57     483.14      21.98
105.67     524.00      22.89
105.77     529.00      23.00
105.87     530.68      23.04
105.97     571.00      23.90
106.07     495.65      22.26
106.17     526.41      22.94
106.27     590.24      24.29
106.37     600.95      24.51
106.47     606.80      24.63
106.57     621.85      24.94
106.67     636.85      25.24
106.77     599.00      24.47
106.87     663.38      25.76
106.97     623.00      24.96
107.07     624.00      24.98
107.17     664.00      25.77
107.27     643.00      25.36
107.37     679.00      26.06
107.47     680.25      26.08
107.57     716.29      26.76
107.67     674.05      25.96
107.77     674.00      25.96
107.87     677.03      26.02
107.97     664.97      25.79
108.07     672.44      25.93
108.17     675.00      25.98
108.27     709.70      26.64
108.37     685.00      26.17
108.47     641.00      25.32
108.57     671.00      25.90
108.67     726.88      26.96
108.77     727.62      26.97
108.87     675.00      25.98
108.97     722.50      26.88
109.07     696.00      26.38
109.17     658.79      25.67
109.27     702.17      26.50
109.37     689.00      26.25
109.47     651.00      25.51
109.57     679.10      26.06
109.67     659.25      25.68
109.77     647.65      25.45
109.87     683.00      26.13
109.97     632.00      25.14
110.07     595.00      24.39
110.17     559.79      23.66
110.27     597.00      24.43
110.37     579.80      24.08
110.47     536.75      23.17
110.57     524.73      22.91
110.67     550.00      23.45
110.77     563.00      23.73
110.87     557.00      23.60
110.97     544.00      23.32
111.07     535.11      23.13
111.17     587.00      24.23
111.27     556.00      23.58
111.37     535.00      23.13
111.47     565.68      23.78
111.57     548.95      23.43
111.67     503.95      22.45
111.77     537.94      23.19
111.87     620.00      24.90
111.97     561.00      23.69
112.07     580.60      24.10
112.17     552.00      23.49
112.27     535.00      23.13
112.37     579.20      24.07
112.47     605.29      24.60
112.57     563.75      23.74
112.67     624.01      24.98
112.77     584.64      24.18
112.87     590.50      24.30
112.97     583.00      24.15
113.07     627.00      25.04
113.17     605.20      24.60
113.27     603.00      24.56
113.37     584.00      24.17
113.47     600.00      24.49
113.57     696.94      26.40
113.67     637.00      25.24
113.77     660.76      25.71
113.87     698.00      26.42
113.97     741.36      27.23
114.07     759.42      27.56
114.17     815.00      28.55
114.27     801.00      28.30
114.37     921.49      30.36
114.47     918.58      30.31
114.57    1089.00      33.00
114.67    1195.00      34.57
114.77    1233.20      35.12
114.87    1355.00      36.81
114.97    1540.02      39.24
115.07    1788.00      42.28
115.17    1918.49      43.80
115.27    2241.00      47.34
115.37    2552.00      50.52
115.47    2711.00      52.07
115.57    3023.00      54.98
115.67    3357.00      57.94
115.77    3690.00      60.75
115.87    4089.00      63.95
115.97    4243.00      65.14
116.07    4647.69      68.17
116.17    5136.00      71.67
116.27    5460.30      73.89
116.37    5668.00      75.29
116.47    6182.08      78.63
116.57    6246.86      79.04
116.67    6401.76      80.01
116.77    6721.00      81.98
116.87    6770.00      82.28
116.97    6924.00      83.21
117.07    6712.00      81.93
117.17    6547.00      80.91
117.27    6409.33      80.06
117.37    6096.70      78.08
117.47    5920.00      76.94
117.57    5579.00      74.69
117.67    5230.38      72.32
117.77    4904.95      70.04
117.87    4569.00      67.59
117.97    4432.00      66.57
118.07    3914.64      62.57
118.17    3586.00      59.88
118.27    3340.00      57.79
118.37    2922.00      54.06
118.47    2740.30      52.35
118.57    2350.01      48.48
118.67    2170.00      46.58
118.77    1874.00      43.29
118.87    1683.00      41.02
118.97    1596.17      39.95
119.07    1395.73      37.36
119.17    1261.00      35.51
119.27    1135.62      33.70
119.37    1032.00      32.12
119.47    1043.00      32.30
119.57     907.72      30.13
119.67     804.59      28.37
119.77     760.20      27.57
119.87     707.98      26.61
119.97     715.58      26.75
120.07     719.10      26.82
120.17     683.00      26.13
120.27     643.00      25.36
120.37     667.50      25.84
120.47     574.00      23.96
120.57     568.58      23.84
120.67     630.16      25.10
120.77     580.00      24.08
120.87     593.00      24.35
120.97     570.00      23.87
121.07     606.15      24.62
121.17     542.00      23.28
121.27     552.00      23.49
121.37     549.00      23.43
121.47     561.00      23.69
121.57     534.00      23.11
121.67     594.00      24.37
121.77     583.00      24.15
121.87     544.90      23.34
121.97     565.00      23.77
122.07     586.45      24.22
122.17     592.00      24.33
122.27     573.40      23.95
122.37     627.00      25.04
122.47     561.48      23.70
122.57     634.00      25.18
122.67     657.96      25.65
122.77     604.02      24.58
122.87     622.00      24.94
122.97     581.00      24.10
123.07     668.42      25.85
123.17     648.15      25.46
123.27     657.00      25.63
123.37     649.69      25.49
123.47     630.00      25.10
123.57     578.71      24.06
123.67     642.21      25.34
123.77     619.00      24.88
123.87     626.00      25.02
123.97     651.00      25.51
124.07     580.00      24.08
124.17     617.57      24.85
124.27     642.00      25.34
124.37     555.00      23.56
124.47     557.34      23.61
124.57     590.00      24.29
124.67     612.25      24.74
124.77     624.00      24.98
124.87     595.00      24.39
124.97     628.00      25.06
