  9.97     597.82      24.45
 10.07     637.00      25.24
 10.17     590.00      24.29
 10.27     607.00      24.64
 10.37     602.60      24.55
 10.47     627.00      25.04
 10.57     543.92      23.32
 10.67     568.00      23.83
 10.77     591.00      24.31
 10.87     617.00      24.84
 10.97     568.00      23.83
 11.07     620.82      24.92
 11.17     599.00      24.47
 11.27     541.00      23.26
 11.37     546.21      23.37
 11.47     566.00      23.79
 11.57     653.00      25.55
 11.67     579.00      24.06
 11.77     618.00      24.86
 11.87     570.96      23.89
 11.97     740.00      27.20
 12.07     696.00      26.38
 12.17     751.99      27.42
 12.27     665.00      25.79
 12.37     636.00      25.22
 12.47     591.00      24.31
 12.57     592.00      24.33
 12.67     584.00      24.17
 12.77     609.00      24.68
 12.87     601.00      24.52
 12.97     561.00      23.69
 13.07     595.00      24.39
 13.17     571.92      23.91
 13.27     559.00      23.64
 13.37     569.44      23.86
 13.47     571.00      23.90
 13.57     532.00      23.07
 13.67     568.01      23.83
 13.77     572.00      23.92
 13.87     523.00      22.87
 13.97     580.00      24.08
 14.07     548.00      23.41
 14.17     573.00      23.94
 14.27     591.00      24.31
 14.37     541.00      23.26
 14.47     611.53      24.73
 14.57     582.00      24.12
 14.67     528.50      22.99
 14.77     550.00      23.45
 14.87     590.52      24.30
 14.97     566.71      23.81
 15.07     599.00      24.47
 15.17     551.00      23.47
 15.27     576.61      24.01
 15.37     540.00      23.24
 15.47     573.86      23.96
 15.57     559.00      23.64
 15.67     585.49      24.20
 15.77     533.75      23.10
 15.87     590.87      24.31
 15.97     600.09      24.50
 16.07     527.00      22.96
 16.17     528.00      22.98
 16.27     563.00      23.73
 16.37     532.00      23.07
 16.47     553.00      23.52
 16.57     571.17      23.90
 16.67     528.00      22.98
 16.77     568.09      23.83
 16.87     596.17      24.42
 16.97     522.41      22.86
 17.07     552.00      23.49
 17.17     575.00      23.98
 17.27     526.94      22.96
 17.37     542.00      23.28
 17.47     572.00      23.92
 17.57     595.88      24.41
 17.67     555.00      23.56
 17.77     559.00      23.64
 17.87     597.13      24.44
 17.97     614.00      24.78
 18.07     531.00      23.04
 18.17     593.61      24.36
 18.27     573.00      23.94
 18.37     536.00      23.15
 18.47     551.00      23.47
 18.57     591.00      24.31
 18.67     541.74      23.28
 18.77     574.74      23.97
 18.87     585.33      24.19
 18.97     549.00      23.43
 19.07     513.78      22.67
 19.17     560.50      23.67
 19.27     513.00      22.65
 19.37     535.23      23.14
 19.47     583.30      24.15
 19.57     540.00      23.24
 19.67     515.17      22.70
 19.77     560.03      23.66
 19.87     526.00      22.93
 19.97     589.25      24.27
 20.07     579.00      24.06
 20.17     560.00      23.66
 20.27     546.51      23.38
 20.37     544.84      23.34
 20.47     575.00      23.98
 20.57     522.49      22.86
 20.67     550.29      23.46
 20.77     552.00      23.49
 20.87     591.13      24.31
 20.97     540.00      23.24
 21.07     537.00      23.17
 21.17     566.67      23.80
 21.27     562.96      23.73
 21.37     533.00      23.09
 21.47     590.86      24.31
 21.57     518.69      22.77
 21.67     568.66      23.85
 21.77     520.00      22.80
 21.87     541.00      23.26
 21.97     552.00      23.49
 22.07     569.00      23.85
 22.17     536.16      23.16
 22.27     552.00      23.49
 22.37     535.00      23.13
 22.47     579.00      24.06
 22.57     520.00      22.80
 22.67     572.00      23.92
 22.77     568.72      23.85
 22.87     537.00      23.17
 22.97     510.73      22.60
 23.07     571.15      23.90
 23.17     575.00      23.98
 23.27     510.00      22.58
 23.37     565.00      23.77
 23.47     576.01      24.00
 23.57     537.54      23.18
 23.67     563.00      23.73
 23.77     559.00      23.64
 23.87     504.90      22.47
 23.97     557.12      23.60
 24.07     519.13      22.78
 24.17     537.00      23.17
 24.27     582.00      24.12
 24.37     537.17      23.18
 24.47     567.70      23.83
 24.57     580.00      24.08
 24.67     649.00      25.48
 24.77     657.00      25.63
 24.87     645.00      25.40
 24.97     570.00      23.87
 25.07     548.00      23.41
 25.17     578.79      24.06
 25.27     530.00      23.02
 25.37     523.00      22.87
 25.47     583.00      24.15
 25.57     519.00      22.78
 25.67     545.00      23.35
 25.77     551.00      23.47
 25.87     523.27      22.88
 25.97     578.98      24.06
 26.07     548.51      23.42
 26.17     532.01      23.07
 26.27     566.00      23.79
 26.37     553.00      23.52
 26.47     581.88      24.12
 26.57     563.00      23.73
 26.67     551.00      23.47
 26.77     556.00      23.58
 26.87     502.42      22.41
 26.97     505.08      22.47
 27.07     525.60      22.93
 27.17     579.00      24.06
 27.27     565.84      23.79
 27.37     555.20      23.56
 27.47     606.00      24.62
 27.57     597.00      24.43
 27.67     547.00      23.39
 27.77     551.00      23.47
 27.87     605.00      24.60
 27.97     679.00      26.06
 28.07     810.00      28.46
 28.17     914.00      30.23
 28.27     978.42      31.28
 28.37     880.00      29.66
 28.47     730.00      27.02
 28.57     743.16      27.26
 28.67     689.00      26.25
 28.77     739.00      27.18
 28.87     803.00      28.34
 28.97     861.01      29.34
 29.07     780.00      27.93
 29.17     692.00      26.31
 29.27     648.55      25.47
 29.37     593.00      24.35
 29.47     532.36      23.07
 29.57     550.00      23.45
 29.67     535.00      23.13
 29.77     546.82      23.38
 29.87     547.00      23.39
 29.97     589.00      24.27
 30.07     505.05      22.47
 30.17     580.00      24.08
 30.27     571.00      23.90
 30.37     561.00      23.69
 30.47     600.00      24.49
 30.57     569.00      23.85
 30.67     576.00      24.00
 30.77     578.94      24.06
 30.87     607.00      24.64
 30.97     565.80      23.79
 31.07     582.22      24.13
 31.17     550.00      23.45
 31.27     560.00      23.66
 31.37     510.22      22.59
 31.47     511.29      22.61
 31.57     531.00      23.04
 31.67     561.00      23.69
 31.77     563.04      23.73
 31.87     564.00      23.75
 31.97     502.07      22.41
 32.07     568.34      23.84
 32.17     491.51      22.17
 32.27     501.45      22.39
 32.37     582.00      24.12
 32.47     531.86      23.06
 32.57     507.00      22.52
 32.67     531.00      23.04
 32.77     514.00      22.67
 32.87     549.00      23.43
 32.97     542.46      23.29
 33.07     532.00      23.07
 33.17     533.00      23.09
 33.27     552.00      23.49
 33.37     575.00      23.98
 33.47     556.00      23.58
 33.57     610.00      24.70
 33.67     654.00      25.57
 33.77     694.00      26.34
 33.87     873.00      29.55
 33.97    1089.00      33.00
 34.07    1016.35      31.88
 34.17    1039.00      32.23
 34.27     886.00      29.77
 34.37     715.38      26.75
 34.47     673.00      25.94
 34.57     580.00      24.08
 34.67     561.00      23.69
 34.77     567.00      23.81
 34.87     564.00      23.75
 34.97     556.42      23.59
 35.07     555.00      23.56
 35.17     545.82      23.36
 35.27     490.00      22.14
 35.37     540.04      23.24
 35.47     533.00      23.09
 35.57     524.00      22.89
 35.67     489.17      22.12
 35.77     520.45      22.81
 35.87     517.13      22.74
 35.97     538.00      23.19
 36.07     474.95      21.79
 36.17     521.00      22.83
 36.27     514.00      22.67
 36.37     551.01      23.47
 36.47     517.00      22.74
 36.57     522.00      22.85
 36.67     512.00      22.63
 36.77     481.00      21.93
 36.87     540.37      23.25
 36.97     501.47      22.39
 37.07     493.00      22.20
 37.17     532.71      23.08
 37.27     481.00      21.93
 37.37     545.57      23.36
 37.47     526.00      22.93
 37.57     528.00      22.98
 37.67     568.38      23.84
 37.77     524.00      22.89
 37.87     540.92      23.26
 37.97     488.00      22.09
 38.07     548.51      23.42
 38.17     485.29      22.03
 38.27     536.00      23.15
 38.37     502.69      22.42
 38.47     513.85      22.67
 38.57     493.57      22.22
 38.67     514.00      22.67
 38.77     491.51      22.17
 38.87     544.00      23.32
 38.97     502.00      22.41
 39.07     498.00      22.32
 39.17     527.00      22.96
 39.27     489.64      22.13
 39.37     472.91      21.75
 39.47     513.16      22.65
 39.57     509.00      22.56
 39.67     506.00      22.49
 39.77     487.00      22.07
 39.87     494.00      22.23
 39.97     495.00      22.25
 40.07     482.00      21.95
 40.17     523.00      22.87
 40.27     505.00      22.47
 40.37     486.00      22.05
 40.47     495.00      22.25
 40.57     492.00      22.18
 40.67     474.75      21.79
 40.77     548.96      23.43
 40.87     551.00      23.47
 40.97     492.00      22.18
 41.07     516.00      22.72
 41.17     483.00      21.98
 41.27     479.00      21.89
 41.37     545.88      23.36
 41.47     499.00      22.34
 41.57     527.00      22.96
 41.67     491.00      22.16
 41.77     476.00      21.82
 41.87     474.00      21.77
 41.97     497.00      22.29
 42.07     471.00      21.70
 42.17     523.00      22.87
 42.27     548.00      23.41
 42.37     620.00      24.90
 42.47     588.00      24.25
 42.57     593.98      24.37
 42.67     653.89      25.57
 42.77     596.00      24.41
 42.87     565.42      23.78
 42.97     539.00      23.22
 43.07     570.30      23.88
 43.17     547.74      23.40
 43.27     476.00      21.82
 43.37     511.00      22.61
 43.47     495.00      22.25
 43.57     505.00      22.47
 43.67     488.00      22.09
 43.77     447.00      21.14
 43.87     484.00      22.00
 43.97     535.36      23.14
 44.07     493.00      22.20
 44.17     530.24      23.03
 44.27     536.00      23.15
 44.37     480.51      21.92
 44.47     502.00      22.41
 44.57     538.00      23.19
 44.67     470.35      21.69
 44.77     523.00      22.87
 44.87     469.00      21.66
 44.97     527.00      22.96
 45.07     495.57      22.26
 45.17     526.00      22.93
 45.27     507.00      22.52
 45.37     466.60      21.60
 45.47     513.00      22.65
 45.57     504.00      22.45
 45.67     498.00      22.32
 45.77     543.07      23.30
 45.87     509.91      22.58
 45.97     525.00      22.91
 46.07     536.00      23.15
 46.17     507.00      22.52
 46.27     473.00      21.75
 46.37     521.12      22.83
 46.47     503.00      22.43
 46.57     517.00      22.74
 46.67     487.00      22.07
 46.77     519.00      22.78
 46.87     475.42      21.80
 46.97     544.00      23.32
 47.07     540.00      23.24
 47.17     549.00      23.43
 47.27     525.74      22.93
 47.37     504.00      22.45
 47.47     506.56      22.51
 47.57     566.00      23.79
 47.67     567.00      23.81
 47.77     555.10      23.56
 47.87     558.79      23.64
 47.97     598.04      24.45
 48.07     551.91      23.49
 48.17     556.01      23.58
 48.27     543.05      23.30
 48.37     522.00      22.85
 48.47     579.08      24.06
 48.57     498.20      22.32
 48.67     558.56      23.63
 48.77     508.00      22.54
 48.87     530.99      23.04
 48.97     589.98      24.29
 49.07     535.47      23.14
 49.17     547.00      23.39
 49.27     580.00      24.08
 49.37     660.00      25.69
 49.47     698.71      26.43
 49.57     770.00      27.75
 49.67     910.91      30.18
 49.77    1089.02      33.00
 49.87    1455.00      38.14
 49.97    1852.94      43.05
 50.07    2201.00      46.91
 50.17    2429.36      49.29
 50.27    2478.00      49.78
 50.37    2199.00      46.89
 50.47    1828.02      42.76
 50.57    1402.23      37.45
 50.67    1026.00      32.03
 50.77     844.25      29.06
 50.87     765.92      27.68
 50.97     661.00      25.71
 51.07     635.00      25.20
 51.17     648.33      25.46
 51.27     590.00      24.29
 51.37     591.56      24.32
 51.47     531.08      23.05
 51.57     528.84      23.00
 51.67     589.14      24.27
 51.77     568.00      23.83
 51.87     526.00      22.93
 51.97     556.84      23.60
 52.07     541.59      23.27
 52.17     560.96      23.68
 52.27     552.14      23.50
 52.37     541.19      23.26
 52.47     526.00      22.93
 52.57     587.32      24.23
 52.67     576.00      24.00
 52.77     599.00      24.47
 52.87     651.08      25.52
 52.97     711.00      26.66
 53.07     740.00      27.20
 53.17     957.00      30.94
 53.27    1047.99      32.37
 53.37    1132.64      33.65
 53.47    1200.00      34.64
 53.57    1204.00      34.70
 53.67    1096.00      33.11
 53.77    1018.68      31.92
 53.87     874.92      29.58
 53.97     789.00      28.09
 54.07     697.00      26.40
 54.17     636.00      25.22
 54.27     597.67      24.45
 54.37     590.83      24.31
 54.47     553.59      23.53
 54.57     584.00      24.17
 54.67     573.00      23.94
 54.77     568.77      23.85
 54.87     568.00      23.83
 54.97     531.19      23.05
 55.07     562.00      23.71
 55.17     571.00      23.90
 55.27     595.00      24.39
 55.37     517.20      22.74
 55.47     546.00      23.37
 55.57     556.00      23.58
 55.67     529.13      23.00
 55.77     550.05      23.45
 55.87     553.54      23.53
 55.97     643.98      25.38
 56.07     718.04      26.80
 56.17     726.73      26.96
 56.27     931.13      30.51
 56.37    1128.00      33.59
 56.47    1363.00      36.92
 56.57    1768.00      42.05
 56.67    2198.17      46.88
 56.77    2503.00      50.03
 56.87    2650.00      51.48
 56.97    2615.40      51.14
 57.07    2386.00      48.85
 57.17    2053.42      45.31
 57.27    1618.77      40.23
 57.37    1346.00      36.69
 57.47    1091.00      33.03
 57.57     859.00      29.31
 57.67     779.00      27.91
 57.77     704.49      26.54
 57.87     674.00      25.96
 57.97     721.00      26.85
 58.07     629.60      25.09
 58.17     759.99      27.57
 58.27     761.00      27.59
 58.37     839.30      28.97
 58.47     962.08      31.02
 58.57    1090.00      33.02
 58.67    1212.00      34.81
 58.77    1361.00      36.89
 58.87    1456.00      38.16
 58.97    1519.00      38.97
 59.07    1641.00      40.51
 59.17    1567.00      39.59
 59.27    1474.00      38.39
 59.37    1269.00      35.62
 59.47    1302.00      36.08
 59.57    1191.00      34.51
 59.67    1167.00      34.16
 59.77    1228.00      35.04
 59.87    1213.00      34.83
 59.97    1224.00      34.99
 60.07    1482.00      38.50
 60.17    1574.00      39.67
 60.27    1550.00      39.37
 60.37    1468.51      38.32
 60.47    1327.43      36.43
 60.57    1247.00      35.31
 60.67    1050.00      32.40
 60.77     898.00      29.97
 60.87     826.00      28.74
 60.97     692.00      26.31
 61.07     660.01      25.69
 61.17     636.00      25.22
 61.27     636.00      25.22
 61.37     633.00      25.16
 61.47     657.86      25.65
 61.57     711.22      26.67
 61.67     820.00      28.64
 61.77    1006.06      31.72
 61.87    1153.00      33.96
 61.97    1301.00      36.07
 62.07    1387.00      37.24
 62.17    1425.00      37.75
 62.27    1426.77      37.77
 62.37    1341.00      36.62
 62.47    1190.31      34.50
 62.57    1003.00      31.67
 62.67     884.00      29.73
 62.77     785.52      28.03
 62.87     670.88      25.90
 62.97     590.00      24.29
 63.07     580.00      24.08
 63.17     608.31      24.66
 63.27     563.21      23.73
 63.37     635.00      25.20
 63.47     583.00      24.15
 63.57     597.00      24.43
 63.67     593.00      24.35
 63.77     587.00      24.23
 63.87     598.19      24.46
 63.97     629.68      25.09
 64.07     796.00      28.21
 64.17     806.64      28.40
 64.27     855.00      29.24
 64.37     836.00      28.91
 64.47    1001.00      31.64
 64.57    1052.00      32.43
 64.67    1031.00      32.11
 64.77    1047.98      32.37
 64.87     947.00      30.77
 64.97     933.62      30.56
 65.07     813.00      28.51
 65.17     774.00      27.82
 65.27     758.23      27.54
 65.37     724.70      26.92
 65.47     651.00      25.51
 65.57     643.00      25.36
 65.67     625.00      25.00
 65.77     586.19      24.21
 65.87     563.30      23.73
 65.97     584.47      24.18
 66.07     563.00      23.73
 66.17     557.00      23.60
 66.27     538.00      23.19
 66.37     554.00      23.54
 66.47     528.38      22.99
 66.57     532.00      23.07
 66.67     578.04      24.04
 66.77     572.00      23.92
 66.87     592.00      24.33
 66.97     637.00      25.24
 67.07     649.00      25.48
 67.17     692.75      26.32
 67.27     789.00      28.09
 67.37     884.00      29.73
 67.47    1154.00      33.97
 67.57    1243.00      35.26
 67.67    1518.78      38.97
 67.77    1823.00      42.70
 67.87    2079.00      45.60
 67.97    2351.34      48.49
 68.07    2483.14      49.83
 68.17    2441.19      49.41
 68.27    2243.00      47.36
 68.37    2011.32      44.85
 68.47    1792.00      42.33
 68.57    1559.00      39.48
 68.67    1238.00      35.19
 68.77    1084.28      32.93
 68.87     923.80      30.39
 68.97     777.00      27.87
 69.07     685.00      26.17
 69.17     623.34      24.97
 69.27     568.43      23.84
 69.37     636.00      25.22
 69.47     584.80      24.18
 69.57     547.00      23.39
 69.67     575.00      23.98
 69.77     603.00      24.56
 69.87     649.00      25.48
 69.97     549.97      23.45
 70.07     528.39      22.99
 70.17     579.16      24.07
 70.27     553.00      23.52
 70.37     567.00      23.81
 70.47     557.00      23.60
 70.57     515.00      22.69
 70.67     598.11      24.46
 70.77     582.00      24.12
 70.87     610.00      24.70
 70.97     628.00      25.06
 71.07     655.00      25.59
 71.17     709.38      26.63
 71.27     812.00      28.50
 71.37     928.39      30.47
 71.47    1091.10      33.03
 71.57    1237.00      35.17
 71.67    1419.00      37.67
 71.77    1597.00      39.96
 71.87    1845.00      42.95
 71.97    1924.83      43.87
 72.07    1877.00      43.32
 72.17    1875.00      43.30
 72.27    1803.00      42.46
 72.37    1613.42      40.17
 72.47    1510.00      38.86
 72.57    1355.00      36.81
 72.67    1209.00      34.77
 72.77    1032.00      32.12
 72.87     922.00      30.36
 72.97     793.00      28.16
 73.07     786.89      28.05
 73.17     731.00      27.04
 73.27     676.00      26.00
 73.37     666.00      25.81
 73.47     603.00      24.56
 73.57     628.06      25.06
 73.67     565.00      23.77
 73.77     622.72      24.95
 73.87     604.00      24.58
 73.97     613.92      24.78
 74.07     579.58      24.07
 74.17     558.38      23.63
 74.27     620.00      24.90
 74.37     570.00      23.87
 74.47     550.64      23.47
 74.57     578.68      24.06
 74.67     606.00      24.62
 74.77     578.09      24.04
 74.87     575.78      24.00
 74.97     629.00      25.08
 75.07     554.40      23.55
 75.17     554.00      23.54
 75.27     562.00      23.71
 75.37     568.00      23.83
 75.47     597.95      24.45
 75.57     558.00      23.62
 75.67     567.97      23.83
 75.77     567.00      23.81
 75.87     619.00      24.88
 75.97     567.36      23.82
 76.07     671.33      25.91
 76.17     667.00      25.83
 76.27     660.00      25.69
 76.37     672.00      25.92
 76.47     753.81      27.46
 76.57     697.00      26.40
 76.67     695.00      26.36
 76.77     662.00      25.73
 76.87     702.32      26.50
 76.97     637.00      25.24
 77.07     627.79      25.06
 77.17     643.32      25.36
 77.27     564.00      23.75
 77.37     567.00      23.81
 77.47     554.00      23.54
 77.57     561.00      23.69
 77.67     554.89      23.56
 77.77     547.75      23.40
 77.87     575.19      23.98
 77.97     513.00      22.65
 78.07     538.00      23.19
 78.17     538.00      23.19
 78.27     531.00      23.04
 78.37     515.00      22.69
 78.47     533.00      23.09
 78.57     526.00      22.93
 78.67     531.00      23.04
 78.77     526.00      22.93
 78.87     535.00      23.13
 78.97     500.00      22.36
 79.07     545.55      23.36
 79.17     574.00      23.96
 79.27     594.00      24.37
 79.37     529.00      23.00
 79.47     525.92      22.93
 79.57     511.00      22.61
 79.67     511.00      22.61
 79.77     543.00      23.30
 79.87     565.00      23.77
 79.97     576.00      24.00
 80.07     537.98      23.19
 80.17     548.00      23.41
 80.27     529.00      23.00
 80.37     604.00      24.58
 80.47     588.92      24.27
 80.57     656.00      25.61
 80.67     641.00      25.32
 80.77     618.00      24.86
 80.87     690.76      26.28
 80.97     713.05      26.70
 81.07     690.00      26.27
 81.17     701.00      26.48
 81.27     758.00      27.53
 81.37     752.00      27.42
 81.47     773.00      27.80
 81.57     740.37      27.21
 81.67     697.00      26.40
 81.77     771.85      27.78
 81.87     716.00      26.76
 81.97     750.00      27.39
 82.07     709.73      26.64
 82.17     625.53      25.01
 82.27     629.09      25.08
 82.37     631.00      25.12
 82.47     584.00      24.17
 82.57     587.00      24.23
 82.67     605.00      24.60
 82.77     564.75      23.76
 82.87     569.00      23.85
 82.97     579.00      24.06
 83.07     533.11      23.09
 83.17     560.00      23.66
 83.27     557.57      23.61
 83.37     578.00      24.04
 83.47     532.26      23.07
 83.57     509.00      22.56
 83.67     546.00      23.37
 83.77     556.00      23.58
 83.87     592.00      24.33
 83.97     630.00      25.10
 84.07     554.00      23.54
 84.17     612.00      24.74
 84.27     514.00      22.67
 84.37     573.21      23.94
 84.47     528.66      22.99
 84.57     557.00      23.60
 84.67     539.40      23.22
 84.77     528.10      22.98
 84.87     516.00      22.72
 84.97     523.00      22.87
 85.07     533.00      23.09
 85.17     558.86      23.64
 85.27     513.93      22.67
 85.37     560.25      23.67
 85.47     497.42      22.30
 85.57     548.86      23.43
 85.67     555.32      23.57
 85.77     561.00      23.69
 85.87     518.21      22.76
 85.97     525.00      22.91
 86.07     527.00      22.96
 86.17     505.13      22.48
 86.27     515.53      22.71
 86.37     560.12      23.67
 86.47     566.00      23.79
 86.57     531.00      23.04
 86.67     532.96      23.09
 86.77     553.00      23.52
 86.87     609.00      24.68
 86.97     550.57      23.46
 87.07     625.00      25.00
 87.17     639.00      25.28
 87.27     669.00      25.87
 87.37     634.00      25.18
 87.47     644.00      25.38
 87.57     593.98      24.37
 87.67     631.00      25.12
 87.77     611.00      24.72
 87.87     598.39      24.46
 87.97     572.40      23.92
 88.07     580.00      24.08
 88.17     562.02      23.71
 88.27     566.72      23.81
 88.37     606.02      24.62
 88.47     604.49      24.59
 88.57     547.41      23.40
 88.67     561.00      23.69
 88.77     579.00      24.06
 88.87     603.53      24.57
 88.97     585.00      24.19
 89.07     550.03      23.45
 89.17     637.00      25.24
 89.27     601.00      24.52
 89.37     614.00      24.78
 89.47     622.16      24.94
 89.57     573.00      23.94
 89.67     517.00      22.74
 89.77     582.00      24.12
 89.87     585.00      24.19
 89.97     542.00      23.28
 90.07     507.00      22.52
 90.17     596.23      24.42
 90.27     534.00      23.11
 90.37     508.00      22.54
 90.47     523.00      22.87
 90.57     588.00      24.25
 90.67     525.93      22.93
 90.77     533.00      23.09
 90.87     500.91      22.38
 90.97     526.60      22.95
 91.07     537.00      23.17
 91.17     515.34      22.70
 91.27     576.00      24.00
 91.37     544.00      23.32
 91.47     528.15      22.98
 91.57     493.95      22.22
 91.67     550.00      23.45
 91.77     511.95      22.63
 91.87     523.00      22.87
 91.97     550.00      23.45
 92.07     525.00      22.91
 92.17     608.31      24.66
 92.27     588.00      24.25
 92.37     637.84      25.26
 92.47     650.00      25.50
 92.57     626.00      25.02
 92.67     681.00      26.10
 92.77     710.00      26.65
 92.87     725.00      26.93
 92.97     763.00      27.62
 93.07     742.00      27.24
 93.17     816.85      28.58
 93.27     821.00      28.65
 93.37     827.00      28.76
 93.47     808.00      28.43
 93.57     849.00      29.14
 93.67     781.09      27.95
 93.77     835.00      28.90
 93.87     852.00      29.19
 93.97     862.00      29.36
 94.07     852.84      29.20
 94.17     852.84      29.20
 94.27     902.00      30.03
 94.37     823.40      28.69
 94.47     908.22      30.14
 94.57     947.00      30.77
 94.67     913.00      30.22
 94.77     966.00      31.08
 94.87     924.27      30.40
 94.97     947.00      30.77
 95.07     919.00      30.32
 95.17     871.00      29.51
 95.27     794.00      28.18
 95.37     808.50      28.43
 95.47     782.00      27.96
 95.57     779.36      27.92
 95.67     767.00      27.69
 95.77     696.00      26.38
 95.87     687.69      26.22
 95.97     676.00      26.00
 96.07     680.00      26.08
 96.17     666.00      25.81
 96.27     713.00      26.70
 96.37     758.00      27.53
 96.47     831.00      28.83
 96.57     881.00      29.68
 96.67     898.00      29.97
 96.77    1019.74      31.93
 96.87    1130.80      33.63
 96.97    1103.73      33.22
 97.07    1238.09      35.19
 97.17    1328.00      36.44
 97.27    1412.99      37.59
 97.37    1434.00      37.87
 97.47    1491.00      38.61
 97.57    1369.62      37.01
 97.67    1430.00      37.82
 97.77    1447.18      38.04
 97.87    1314.00      36.25
 97.97    1324.25      36.39
 98.07    1179.00      34.34
 98.17    1110.89      33.33
 98.27    1143.46      33.82
 98.37     955.00      30.90
 98.47     962.57      31.03
 98.57     892.00      29.87
 98.67     856.00      29.26
 98.77     860.30      29.33
 98.87     768.20      27.72
 98.97     853.02      29.21
 99.07     777.33      27.88
 99.17     850.00      29.15
 99.27     960.00      30.98
 99.37     918.00      30.30
 99.47    1068.71      32.69
 99.57    1090.00      33.02
 99.67    1204.92      34.71
 99.77    1286.00      35.86
 99.87    1381.00      37.16
 99.97    1486.00      38.55
100.07    1653.00      40.66
100.17    1781.00      42.20
100.27    1820.22      42.66
100.37    2064.00      45.43
100.47    2023.24      44.98
100.57    2031.00      45.07
100.67    2071.00      45.51
100.77    2056.00      45.34
100.87    2051.00      45.29
100.97    1920.00      43.82
101.07    1966.00      44.34
101.17    1867.00      43.21
101.27    1826.00      42.73
101.37    1726.00      41.55
101.47    1615.00      40.19
101.57    1490.00      38.60
101.67    1504.78      38.79
101.77    1312.00      36.22
101.87    1274.87      35.71
101.97    1252.00      35.38
102.07    1204.01      34.70
102.17    1167.00      34.16
102.27    1196.32      34.59
102.37    1109.00      33.30
102.47    1072.14      32.74
102.57    1119.04      33.45
102.67    1027.88      32.06
102.77    1106.00      33.26
102.87     989.07      31.45
102.97    1024.00      32.00
103.07     906.00      30.10
103.17     896.00      29.93
103.27     841.00      29.00
103.37     820.00      28.64
103.47     802.00      28.32
103.57     726.41      26.95
103.67     741.00      27.22
103.77     702.00      26.50
103.87     651.00      25.51
103.97     637.00      25.24
104.07     601.00      24.52
104.17     574.00      23.96
104.27     591.00      24.31
104.37     570.00      23.87
104.47     540.00      23.24
104.57     548.00      23.41
104.67     582.00      24.12
104.77     562.00      23.71
104.87     571.00      23.90
104.97     516.75      22.73
105.07     561.00      23.69
105.17     497.53      22.31
105.27     557.00      23.60
105.37     537.00      23.17
105.47     597.00      24.43
105.57     554.79      23.55
105.67     569.00      23.85
105.77     566.00      23.79
105.87     534.48      23.12
105.97     572.00      23.92
106.07     616.24      24.82
106.17     583.69      24.16
106.27     599.00      24.47
106.37     604.23      24.58
106.47     635.51      25.21
106.57     663.88      25.77
106.67     649.99      25.49
106.77     677.00      26.02
106.87     638.00      25.26
106.97     670.00      25.88
107.07     682.76      26.13
107.17     672.00      25.92
107.27     749.08      27.37
107.37     650.00      25.50
107.47     676.00      26.00
107.57     727.00      26.96
107.67     712.61      26.69
107.77     667.55      25.84
107.87     688.49      26.24
107.97     680.45      26.09
108.07     725.00      26.93
108.17     691.00      26.29
108.27     698.93      26.44
108.37     694.00      26.34
108.47     681.00      26.10
108.57     686.00      26.19
108.67     719.00      26.81
108.77     655.80      25.61
108.87     725.00      26.93
108.97     730.74      27.03
109.07     665.81      25.80
109.17     672.00      25.92
109.27     682.00      26.12
109.37     656.89      25.63
109.47     619.00      24.88
109.57     652.00      25.53
109.67     655.00      25.59
109.77     580.32      24.09
109.87     623.00      24.96
109.97     597.00      24.43
110.07     553.42      23.52
110.17     526.45      22.94
110.27     592.58      24.34
110.37     554.48      23.55
110.47     609.00      24.68
110.57     561.00      23.69
110.67     576.58      24.01
110.77     517.00      22.74
110.87     575.19      23.98
110.97     522.36      22.86
111.07     600.00      24.49
111.17     499.00      22.34
111.27     527.00      22.96
111.37     528.00      22.98
111.47     532.07      23.07
111.57     583.14      24.15
111.67     518.00      22.76
111.77     524.00      22.89
111.87     557.28      23.61
111.97     552.00      23.49
112.07     595.38      24.40
112.17     546.00      23.37
112.27     539.00      23.22
112.37     539.12      23.22
112.47     621.00      24.92
112.57     629.44      25.09
112.67     604.00      24.58
112.77     646.00      25.42
112.87     643.46      25.37
112.97     588.00      24.25
113.07     641.86      25.34
113.17     632.00      25.14
113.27     711.00      26.66
113.37     788.37      28.08
113.47     725.66      26.94
113.57     808.87      28.44
113.67     841.00      29.00
113.77     823.00      28.69
113.87     895.82      29.93
113.97     944.00      30.72
114.07     997.00      31.58
114.17    1021.00      31.95
114.27    1121.00      33.48
114.37    1308.00      36.17
114.47    1329.00      36.46
114.57    1402.00      37.44
114.67    1575.00      39.69
114.77    1756.56      41.91
114.87    1889.00      43.46
114.97    1990.94      44.62
115.07    2399.00      48.98
115.17    2519.48      50.19
115.27    2864.95      53.53
115.37    3200.28      56.57
115.47    3406.00      58.36
115.57    3658.00      60.48
115.67    4243.51      65.14
115.77    4630.46      68.05
115.87    4753.00      68.94
115.97    5445.55      73.79
116.07    5693.47      75.46
116.17    5835.00      76.39
116.27    6230.00      78.93
116.37    6675.00      81.70
116.47    6890.00      83.01
116.57    6960.20      83.43
116.67    6778.85      82.33
116.77    7066.00      84.06
116.87    6848.00      82.75
116.97    6703.00      81.87
117.07    6257.23      79.10
117.17    6081.00      77.98
117.27    5658.00      75.22
117.37    5239.00      72.38
117.47    4974.00      70.53
117.57    4731.00      68.78
117.67    4334.90      65.84
117.77    3980.28      63.09
117.87    3688.00      60.73
117.97    3116.92      55.83
118.07    2883.00      53.69
118.17    2583.00      50.82
118.27    2274.00      47.69
118.37    1956.00      44.23
118.47    1747.00      41.80
118.57    1529.32      39.11
118.67    1416.18      37.63
118.77    1252.00      35.38
118.87    1151.00      33.93
118.97    1020.12      31.94
119.07     949.00      30.81
119.17     868.00      29.46
119.27     817.00      28.58
119.37     792.02      28.14
119.47     778.00      27.89
119.57     734.00      27.09
119.67     667.30      25.83
119.77     660.93      25.71
119.87     675.00      25.98
119.97     623.00      24.96
120.07     581.00      24.10
120.17     603.00      24.56
120.27     577.00      24.02
120.37     598.00      24.45
120.47     618.04      24.86
120.57     517.00      22.74
120.67     520.00      22.80
120.77     558.00      23.62
120.87     579.00      24.06
120.97     531.22      23.05
121.07     531.06      23.04
121.17     561.00      23.69
121.27     569.00      23.85
121.37     601.00      24.52
121.47     550.00      23.45
121.57     582.00      24.12
121.67     630.46      25.11
121.77     615.00      24.80
121.87     604.00      24.58
121.97     620.00      24.90
122.07     593.40      24.36
122.17     656.49      25.62
122.27     626.00      25.02
122.37     618.00      24.86
122.47     637.00      25.24
122.57     610.00      24.70
122.67     645.00      25.40
122.77     667.72      25.84
122.87     622.00      24.94
122.97     645.00      25.40
123.07     635.00      25.20
123.17     626.50      25.03
123.27     655.93      25.61
123.37     653.00      25.55
123.47     669.00      25.87
123.57     621.00      24.92
123.67     677.41      26.03
123.77     634.00      25.18
123.87     598.00      24.45
123.97     640.00      25.30
124.07     674.00      25.96
124.17     617.00      24.84
124.27     565.93      23.79
124.37     588.00      24.25
124.47     623.00      24.96
124.57     566.00      23.79
124.67     549.95      23.45
124.77     597.00      24.43
124.87     611.00      24.72
124.97     567.00      23.81
