  9.97     607.96      24.66
 10.07     580.00      24.08
 10.17     575.18      23.98
 10.27     645.00      25.40
 10.37     558.00      23.62
 10.47     581.00      24.10
 10.57     618.48      24.87
 10.67     576.34      24.01
 10.77     593.94      24.37
 10.87     544.45      23.33
 10.97     547.00      23.39
 11.07     596.00      24.41
 11.17     576.00      24.00
 11.27     538.27      23.20
 11.37     610.87      24.72
 11.47     624.20      24.98
 11.57     575.11      23.98
 11.67     630.00      25.10
 11.77     639.00      25.28
 11.87     668.00      25.85
 11.97     668.00      25.85
 12.07     711.00      26.66
 12.17     681.00      26.10
 12.27     725.75      26.94
 12.37     692.89      26.32
 12.47     646.00      25.42
 12.57     637.00      25.24
 12.67     609.00      24.68
 12.77     546.00      23.37
 12.87     567.35      23.82
 12.97     590.00      24.29
 13.07     616.93      24.84
 13.17     564.00      23.75
 13.27     578.35      24.05
 13.37     541.02      23.26
 13.47     573.00      23.94
 13.57     575.00      23.98
 13.67     564.00      23.75
 13.77     538.00      23.19
 13.87     570.00      23.87
 13.97     533.68      23.10
 14.07     555.00      23.56
 14.17     571.77      23.91
 14.27     543.00      23.30
 14.37     610.00      24.70
 14.47     543.01      23.30
 14.57     534.33      23.12
 14.67     544.00      23.32
 14.77     621.00      24.92
 14.87     610.54      24.71
 14.97     559.00      23.64
 15.07     550.00      23.45
 15.17     567.00      23.81
 15.27     568.83      23.85
 15.37     542.00      23.28
 15.47     530.15      23.03
 15.57     574.00      23.96
 15.67     561.63      23.70
 15.77     567.34      23.82
 15.87     551.83      23.49
 15.97     564.00      23.75
 16.07     581.00      24.10
 16.17     566.28      23.80
 16.27     555.63      23.57
 16.37     561.00      23.69
 16.47     530.00      23.02
 16.57     567.00      23.81
 16.67     566.00      23.79
 16.77     567.00      23.81
 16.87     570.04      23.88
 16.97     554.00      23.54
 17.07     596.00      24.41
 17.17     567.00      23.81
 17.27     565.03      23.77
 17.37     585.97      24.21
 17.47     573.00      23.94
 17.57     531.00      23.04
 17.67     551.00      23.47
 17.77     545.00      23.35
 17.87     594.08      24.37
 17.97     591.00      24.31
 18.07     574.00      23.96
 18.17     565.75      23.79
 18.27     560.00      23.66
 18.37     546.38      23.37
 18.47     570.00      23.87
 18.57     565.00      23.77
 18.67     531.08      23.05
 18.77     599.89      24.49
 18.87     570.00      23.87
 18.97     562.00      23.71
 19.07     535.47      23.14
 19.17     561.00      23.69
 19.27     553.00      23.52
 19.37     551.59      23.49
 19.47     541.00      23.26
 19.57     595.66      24.41
 19.67     551.00      23.47
 19.77     578.00      24.04
 19.87     538.00      23.19
 19.97     551.00      23.47
 20.07     582.00      24.12
 20.17     558.00      23.62
 20.27     541.71      23.27
 20.37     574.00      23.96
 20.47     573.00      23.94
 20.57     556.00      23.58
 20.67     570.00      23.87
 20.77     542.00      23.28
 20.87     516.77      22.73
 20.97     548.00      23.41
 21.07     573.00      23.94
 21.17     540.91      23.26
 21.27     573.00      23.94
 21.37     564.00      23.75
 21.47     547.00      23.39
 21.57     585.70      24.20
 21.67     555.00      23.56
 21.77     545.00      23.35
 21.87     524.11      22.89
 21.97     572.00      23.92
 22.07     541.12      23.26
 22.17     565.75      23.79
 22.27     573.00      23.94
 22.37     546.00      23.37
 22.47     546.00      23.37
 22.57     574.10      23.96
 22.67     511.00      22.61
 22.77     549.62      23.44
 22.87     531.00      23.04
 22.97     542.00      23.28
 23.07     631.00      25.12
 23.17     535.05      23.13
 23.27     575.39      23.99
 23.37     543.00      23.30
 23.47     560.00      23.66
 23.57     549.00      23.43
 23.67     564.00      23.75
 23.77     553.00      23.52
 23.87     553.00      23.52
 23.97     555.00      23.56
 24.07     527.62      22.97
 24.17     589.64      24.28
 24.27     600.56      24.51
 24.37     586.00      24.21
 24.47     593.00      24.35
 24.57     631.51      25.13
 24.67     607.00      24.64
 24.77     622.00      24.94
 24.87     608.55      24.67
 24.97     651.00      25.51
 25.07     575.00      23.98
 25.17     612.00      24.74
 25.27     611.00      24.72
 25.37     594.00      24.37
 25.47     577.95      24.04
 25.57     548.00      23.41
 25.67     562.00      23.71
 25.77     563.00      23.73
 25.87     535.43      23.14
 25.97     510.97      22.60
 26.07     571.81      23.91
 26.17     611.00      24.72
 26.27     542.00      23.28
 26.37     534.00      23.11
 26.47     564.21      23.75
 26.57     584.68      24.18
 26.67     590.00      24.29
 26.77     553.95      23.54
 26.87     512.95      22.65
 26.97     566.00      23.79
 27.07     533.00      23.09
 27.17     552.00      23.49
 27.27     564.00      23.75
 27.37     593.00      24.35
 27.47     579.00      24.06
 27.57     564.00      23.75
 27.67     581.00      24.10
 27.77     551.00      23.47
 27.87     555.91      23.58
 27.97     620.01      24.90
 28.07     780.00      27.93
 28.17     917.00      30.28
 28.27     942.50      30.70
 28.37     873.73      29.56
 28.47     773.00      27.80
 28.57     701.18      26.48
 28.67     688.00      26.23
 28.77     692.00      26.31
 28.87     790.12      28.11
 28.97     855.00      29.24
 29.07     822.00      28.67
 29.17     682.00      26.12
 29.27     682.50      26.12
 29.37     613.00      24.76
 29.47     621.00      24.92
 29.57     566.00      23.79
 29.67     568.00      23.83
 29.77     598.00      24.45
 29.87     543.65      23.32
 29.97     521.74      22.84
 30.07     610.00      24.70
 30.17     570.00      23.87
 30.27     554.10      23.54
 30.37     581.83      24.12
 30.47     598.00      24.45
 30.57     547.77      23.40
 30.67     603.00      24.56
 30.77     584.21      24.17
 30.87     609.00      24.68
 30.97     612.00      24.74
 31.07     626.00      25.02
 31.17     558.54      23.63
 31.27     552.00      23.49
 31.37     537.00      23.17
 31.47     559.00      23.64
 31.57     497.00      22.29
 31.67     513.00      22.65
 31.77     490.81      22.15
 31.87     555.00      23.56
 31.97     546.00      23.37
 32.07     516.00      22.72
 32.17     511.93      22.63
 32.27     543.66      23.32
 32.37     567.00      23.81
 32.47     571.00      23.90
 32.57     565.29      23.78
 32.67     563.00      23.73
 32.77     588.00      24.25
 32.87     542.36      23.29
 32.97     516.55      22.73
 33.07     564.06      23.75
 33.17     573.00      23.94
 33.27     549.00      23.43
 33.37     541.00      23.26
 33.47     568.00      23.83
 33.57     644.00      25.38
 33.67     673.00      25.94
 33.77     713.91      26.72
 33.87     869.00      29.48
 33.97     991.00      31.48
 34.07    1096.47      33.11
 34.17    1035.37      32.18
 34.27     883.00      29.72
 34.37     728.00      26.98
 34.47     632.00      25.14
 34.57     582.81      24.14
 34.67     558.00      23.62
 34.77     498.00      22.32
 34.87     535.00      23.13
 34.97     552.00      23.49
 35.07     564.25      23.75
 35.17     497.68      22.31
 35.27     551.00      23.47
 35.37     533.00      23.09
 35.47     535.00      23.13
 35.57     509.00      22.56
 35.67     505.00      22.47
 35.77     523.00      22.87
 35.87     488.00      22.09
 35.97     554.00      23.54
 36.07     553.42      23.52
 36.17     500.00      22.36
 36.27     471.00      21.70
 36.37     492.33      22.19
 36.47     493.60      22.22
 36.57     501.00      22.38
 36.67     494.00      22.23
 36.77     541.03      23.26
 36.87     488.00      22.09
 36.97     476.00      21.82
 37.07     493.00      22.20
 37.17     497.00      22.29
 37.27     509.00      22.56
 37.37     559.00      23.64
 37.47     504.00      22.45
 37.57     539.24      23.22
 37.67     529.78      23.02
 37.77     527.00      22.96
 37.87     531.00      23.04
 37.97     521.00      22.83
 38.07     525.00      22.91
 38.17     524.01      22.89
 38.27     545.22      23.35
 38.37     526.88      22.95
 38.47     524.00      22.89
 38.57     507.96      22.54
 38.67     478.00      21.86
 38.77     503.74      22.44
 38.87     530.71      23.04
 38.97     519.00      22.78
 39.07     514.00      22.67
 39.17     527.00      22.96
 39.27     509.00      22.56
 39.37     512.00      22.63
 39.47     513.00      22.65
 39.57     526.69      22.95
 39.67     495.00      22.25
 39.77     491.00      22.16
 39.87     505.00      22.47
 39.97     508.00      22.54
 40.07     485.00      22.02
 40.17     489.00      22.11
 40.27     514.45      22.68
 40.37     479.00      21.89
 40.47     538.26      23.20
 40.57     523.04      22.87
 40.67     531.00      23.04
 40.77     512.00      22.63
 40.87     488.71      22.11
 40.97     525.30      22.92
 41.07     538.00      23.19
 41.17     493.34      22.21
 41.27     521.00      22.83
 41.37     524.97      22.91
 41.47     481.84      21.95
 41.57     558.00      23.62
 41.67     477.00      21.84
 41.77     445.00      21.10
 41.87     548.62      23.42
 41.97     505.00      22.47
 42.07     495.00      22.25
 42.17     515.00      22.69
 42.27     516.85      22.73
 42.37     546.00      23.37
 42.47     561.03      23.69
 42.57     655.31      25.60
 42.67     603.00      24.56
 42.77     611.26      24.72
 42.87     577.00      24.02
 42.97     592.00      24.33
 43.07     531.00      23.04
 43.17     506.00      22.49
 43.27     531.00      23.04
 43.37     523.34      22.88
 43.47     534.58      23.12
 43.57     497.00      22.29
 43.67     492.00      22.18
 43.77     485.00      22.02
 43.87     500.00      22.36
 43.97     490.69      22.15
 44.07     491.00      22.16
 44.17     479.00      21.89
 44.27     534.00      23.11
 44.37     502.00      22.41
 44.47     481.00      21.93
 44.57     507.00      22.52
 44.67     514.00      22.67
 44.77     464.00      21.54
 44.87     538.12      23.20
 44.97     506.00      22.49
 45.07     490.90      22.16
 45.17     515.56      22.71
 45.27     485.81      22.04
 45.37     477.00      21.84
 45.47     509.00      22.56
 45.57     488.00      22.09
 45.67     527.28      22.96
 45.77     497.00      22.29
 45.87     508.00      22.54
 45.97     510.00      22.58
 46.07     509.19      22.57
 46.17     517.00      22.74
 46.27     473.95      21.77
 46.37     506.00      22.49
 46.47     546.70      23.38
 46.57     478.00      21.86
 46.67     511.50      22.62
 46.77     492.00      22.18
 46.87     535.00      23.13
 46.97     512.41      22.64
 47.07     514.00      22.67
 47.17     487.00      22.07
 47.27     486.00      22.05
 47.37     495.96      22.27
 47.47     534.00      23.11
 47.57     567.00      23.81
 47.67     519.00      22.78
 47.77     633.00      25.16
 47.87     560.05      23.67
 47.97     599.00      24.47
 48.07     573.00      23.94
 48.17     553.00      23.52
 48.27     547.37      23.40
 48.37     592.00      24.33
 48.47     550.00      23.45
 48.57     535.00      23.13
 48.67     531.00      23.04
 48.77     584.00      24.17
 48.87     507.38      22.53
 48.97     559.00      23.64
 49.07     591.00      24.31
 49.17     582.88      24.14
 49.27     638.00      25.26
 49.37     608.00      24.66
 49.47     672.31      25.93
 49.57     784.00      28.00
 49.67     972.00      31.18
 49.77    1085.68      32.95
 49.87    1511.00      38.87
 49.97    1903.00      43.62
 50.07    2178.00      46.67
 50.17    2456.00      49.56
 50.27    2614.00      51.13
 50.37    2208.00      46.99
 50.47    1879.00      43.35
 50.57    1484.00      38.52
 50.67    1062.39      32.59
 50.77     922.95      30.38
 50.87     703.79      26.53
 50.97     627.17      25.04
 51.07     672.00      25.92
 51.17     615.99      24.82
 51.27     623.00      24.96
 51.37     585.90      24.21
 51.47     560.00      23.66
 51.57     508.00      22.54
 51.67     553.00      23.52
 51.77     560.00      23.66
 51.87     492.92      22.20
 51.97     558.00      23.62
 52.07     591.00      24.31
 52.17     571.00      23.90
 52.27     572.00      23.92
 52.37     564.00      23.75
 52.47     526.20      22.94
 52.57     557.00      23.60
 52.67     519.00      22.78
 52.77     588.64      24.26
 52.87     611.56      24.73
 52.97     694.00      26.34
 53.07     823.00      28.69
 53.17     895.00      29.92
 53.27    1041.59      32.27
 53.37    1160.50      34.07
 53.47    1224.88      35.00
 53.57    1176.00      34.29
 53.67    1178.46      34.33
 53.77     979.00      31.29
 53.87     926.30      30.44
 53.97     746.00      27.31
 54.07     716.60      26.77
 54.17     659.00      25.67
 54.27     596.00      24.41
 54.37     545.82      23.36
 54.47     523.44      22.88
 54.57     536.20      23.16
 54.67     569.00      23.85
 54.77     530.00      23.02
 54.87     563.00      23.73
 54.97     584.00      24.17
 55.07     540.75      23.25
 55.17     571.00      23.90
 55.27     584.00      24.17
 55.37     520.61      22.82
 55.47     604.00      24.58
 55.57     582.00      24.12
 55.67     605.05      24.60
 55.77     611.00      24.72
 55.87     561.11      23.69
 55.97     591.75      24.33
 56.07     648.00      25.46
 56.17     748.00      27.35
 56.27     865.00      29.41
 56.37    1090.00      33.02
 56.47    1349.00      36.73
 56.57    1768.61      42.05
 56.67    2264.78      47.59
 56.77    2481.00      49.81
 56.87    2651.00      51.49
 56.97    2537.06      50.37
 57.07    2399.00      48.98
 57.17    2041.00      45.18
 57.27    1563.73      39.54
 57.37    1320.00      36.33
 57.47    1019.00      31.92
 57.57     879.00      29.65
 57.67     746.00      27.31
 57.77     729.00      27.00
 57.87     668.00      25.85
 57.97     655.00      25.59
 58.07     703.71      26.53
 58.17     735.00      27.11
 58.27     746.00      27.31
 58.37     857.00      29.27
 58.47     987.00      31.42
 58.57    1045.97      32.34
 58.67    1167.00      34.16
 58.77    1393.51      37.33
 58.87    1487.80      38.57
 58.97    1557.95      39.47
 59.07    1527.00      39.08
 59.17    1506.00      38.81
 59.27    1453.00      38.12
 59.37    1381.00      37.16
 59.47    1289.88      35.91
 59.57    1220.00      34.93
 59.67    1176.92      34.31
 59.77    1156.23      34.00
 59.87    1296.00      36.00
 59.97    1359.00      36.86
 60.07    1407.00      37.51
 60.17    1561.00      39.51
 60.27    1594.25      39.93
 60.37    1441.69      37.97
 60.47    1364.17      36.93
 60.57    1275.00      35.71
 60.67    1194.00      34.55
 60.77     864.24      29.40
 60.87     808.00      28.43
 60.97     724.00      26.91
 61.07     668.00      25.85
 61.17     622.00      24.94
 61.27     593.48      24.36
 61.37     662.00      25.73
 61.47     679.00      26.06
 61.57     767.00      27.69
 61.67     825.00      28.72
 61.77     973.48      31.20
 61.87    1093.97      33.08
 61.97    1225.00      35.00
 62.07    1414.00      37.60
 62.17    1380.00      37.15
 62.27    1362.00      36.91
 62.37    1203.00      34.68
 62.47    1176.00      34.29
 62.57    1034.00      32.16
 62.67     896.35      29.94
 62.77     828.12      28.78
 62.87     722.00      26.87
 62.97     625.00      25.00
 63.07     594.00      24.37
 63.17     602.26      24.54
 63.27     555.07      23.56
 63.37     557.89      23.62
 63.47     523.47      22.88
 63.57     570.52      23.89
 63.67     602.73      24.55
 63.77     641.00      25.32
 63.87     654.00      25.57
 63.97     643.00      25.36
 64.07     726.00      26.94
 64.17     748.04      27.35
 64.27     799.30      28.27
 64.37     903.00      30.05
 64.47     965.00      31.06
 64.57     949.12      30.81
 64.67     978.00      31.27
 64.77    1047.65      32.37
 64.87    1010.00      31.78
 64.97     936.00      30.59
 65.07     850.00      29.15
 65.17     828.10      28.78
 65.27     703.56      26.52
 65.37     678.00      26.04
 65.47     659.35      25.68
 65.57     654.00      25.57
 65.67     564.00      23.75
 65.77     556.00      23.58
 65.87     569.00      23.85
 65.97     533.00      23.09
 66.07     581.00      24.10
 66.17     554.00      23.54
 66.27     597.82      24.45
 66.37     573.12      23.94
 66.47     535.46      23.14
 66.57     590.66      24.30
 66.67     575.01      23.98
 66.77     573.20      23.94
 66.87     547.00      23.39
 66.97     572.00      23.92
 67.07     613.00      24.76
 67.17     663.00      25.75
 67.27     732.00      27.06
 67.37     896.18      29.94
 67.47    1117.99      33.44
 67.57    1345.00      36.67
 67.67    1561.12      39.51
 67.77    1742.00      41.74
 67.87    2050.00      45.28
 67.97    2303.32      47.99
 68.07    2464.00      49.64
 68.17    2517.00      50.17
 68.27    2256.26      47.50
 68.37    2122.00      46.07
 68.47    1874.00      43.29
 68.57    1567.00      39.59
 68.67    1233.00      35.11
 68.77    1008.00      31.75
 68.87     860.00      29.33
 68.97     751.65      27.42
 69.07     712.00      26.68
 69.17     674.00      25.96
 69.27     626.00      25.02
 69.37     594.00      24.37
 69.47     583.09      24.15
 69.57     554.79      23.55
 69.67     584.34      24.17
 69.77     617.00      24.84
 69.87     576.00      24.00
 69.97     587.28      24.23
 70.07     547.93      23.41
 70.17     559.00      23.64
 70.27     558.00      23.62
 70.37     530.00      23.02
 70.47     566.00      23.79
 70.57     586.00      24.21
 70.67     540.22      23.24
 70.77     566.49      23.80
 70.87     608.00      24.66
 70.97     608.00      24.66
 71.07     660.02      25.69
 71.17     734.00      27.09
 71.27     816.00      28.57
 71.37     916.99      30.28
 71.47    1122.00      33.50
 71.57    1255.00      35.43
 71.67    1413.00      37.59
 71.77    1705.06      41.29
 71.87    1857.78      43.10
 71.97    1927.73      43.91
 72.07    1959.00      44.26
 72.17    1835.03      42.84
 72.27    1733.97      41.64
 72.37    1710.00      41.35
 72.47    1503.00      38.77
 72.57    1370.00      37.01
 72.67    1199.58      34.63
 72.77    1047.00      32.36
 72.87    1013.34      31.83
 72.97     911.99      30.20
 73.07     789.00      28.09
 73.17     779.00      27.91
 73.27     752.30      27.43
 73.37     666.00      25.81
 73.47     649.39      25.48
 73.57     594.00      24.37
 73.67     626.00      25.02
 73.77     645.75      25.41
 73.87     605.00      24.60
 73.97     591.00      24.31
 74.07     590.26      24.30
 74.17     546.29      23.37
 74.27     565.00      23.77
 74.37     605.00      24.60
 74.47     662.00      25.73
 74.57     582.01      24.12
 74.67     626.00      25.02
 74.77     574.99      23.98
 74.87     605.00      24.60
 74.97     632.00      25.14
 75.07     561.00      23.69
 75.17     567.00      23.81
 75.27     528.72      22.99
 75.37     540.84      23.26
 75.47     544.01      23.32
 75.57     528.33      22.99
 75.67     594.66      24.39
 75.77     563.00      23.73
 75.87     572.00      23.92
 75.97     553.00      23.52
 76.07     645.00      25.40
 76.17     643.00      25.36
 76.27     651.00      25.51
 76.37     739.42      27.19
 76.47     728.00      26.98
 76.57     674.00      25.96
 76.67     693.00      26.32
 76.77     711.11      26.67
 76.87     620.00      24.90
 76.97     673.39      25.95
 77.07     632.00      25.14
 77.17     599.15      24.48
 77.27     590.00      24.29
 77.37     587.00      24.23
 77.47     538.00      23.19
 77.57     502.00      22.41
 77.67     557.25      23.61
 77.77     499.00      22.34
 77.87     507.00      22.52
 77.97     464.00      21.54
 78.07     511.00      22.61
 78.17     537.00      23.17
 78.27     542.67      23.30
 78.37     561.89      23.70
 78.47     512.12      22.63
 78.57     557.00      23.60
 78.67     523.00      22.87
 78.77     516.40      22.72
 78.87     483.00      21.98
 78.97     521.00      22.83
 79.07     494.89      22.25
 79.17     534.06      23.11
 79.27     555.00      23.56
 79.37     496.00      22.27
 79.47     540.57      23.25
 79.57     516.00      22.72
 79.67     511.00      22.61
 79.77     536.00      23.15
 79.87     529.00      23.00
 79.97     538.00      23.19
 80.07     514.99      22.69
 80.17     526.00      22.93
 80.27     598.30      24.46
 80.37     604.44      24.59
 80.47     624.97      25.00
 80.57     623.28      24.97
 80.67     608.00      24.66
 80.77     653.71      25.57
 80.87     648.08      25.46
 80.97     697.39      26.41
 81.07     754.17      27.46
 81.17     732.00      27.06
 81.27     742.00      27.24
 81.37     787.00      28.05
 81.47     789.42      28.10
 81.57     736.00      27.13
 81.67     725.41      26.93
 81.77     771.00      27.77
 81.87     735.00      27.11
 81.97     716.61      26.77
 82.07     656.00      25.61
 82.17     679.70      26.07
 82.27     698.00      26.42
 82.37     663.20      25.75
 82.47     611.78      24.73
 82.57     632.97      25.16
 82.67     611.67      24.73
 82.77     601.15      24.52
 82.87     576.99      24.02
 82.97     555.40      23.57
 83.07     564.13      23.75
 83.17     559.00      23.64
 83.27     554.00      23.54
 83.37     566.59      23.80
 83.47     546.00      23.37
 83.57     515.00      22.69
 83.67     593.97      24.37
 83.77     553.00      23.52
 83.87     589.00      24.27
 83.97     547.00      23.39
 84.07     554.00      23.54
 84.17     562.00      23.71
 84.27     590.87      24.31
 84.37     581.82      24.12
 84.47     558.00      23.62
 84.57     559.49      23.65
 84.67     567.00      23.81
 84.77     535.00      23.13
 84.87     573.33      23.94
 84.97     548.00      23.41
 85.07     529.00      23.00
 85.17     525.00      22.91
 85.27     525.02      22.91
 85.37     500.00      22.36
 85.47     546.00      23.37
 85.57     564.35      23.76
 85.67     543.00      23.30
 85.77     523.00      22.87
 85.87     533.25      23.09
 85.97     545.00      23.35
 86.07     554.00      23.54
 86.17     541.00      23.26
 86.27     553.00      23.52
 86.37     553.00      23.52
 86.47     561.00      23.69
 86.57     532.19      23.07
 86.67     568.00      23.83
 86.77     560.16      23.67
 86.87     618.46      24.87
 86.97     560.29      23.67
 87.07     614.00      24.78
 87.17     652.00      25.53
 87.27     633.00      25.16
 87.37     611.68      24.73
 87.47     669.00      25.87
 87.57     643.00      25.36
 87.67     663.00      25.75
 87.77     659.00      25.67
 87.87     622.00      24.94
 87.97     578.00      24.04
 88.07     598.00      24.45
 88.17     595.00      24.39
 88.27     630.00      25.10
 88.37     587.00      24.23
 88.47     566.36      23.80
 88.57     562.01      23.71
 88.67     584.88      24.18
 88.77     616.00      24.82
 88.87     602.00      24.54
 88.97     622.60      24.95
 89.07     608.49      24.67
 89.17     630.08      25.10
 89.27     623.14      24.96
 89.37     622.00      24.94
 89.47     579.00      24.06
 89.57     576.00      24.00
 89.67     620.00      24.90
 89.77     605.00      24.60
 89.87     604.85      24.59
 89.97     531.00      23.04
 90.07     543.39      23.31
 90.17     536.00      23.15
 90.27     552.49      23.51
 90.37     550.00      23.45
 90.47     551.00      23.47
 90.57     555.45      23.57
 90.67     546.00      23.37
 90.77     536.00      23.15
 90.87     515.88      22.71
 90.97     511.72      22.62
 91.07     490.00      22.14
 91.17     517.08      22.74
 91.27     538.00      23.19
 91.37     528.00      22.98
 91.47     532.00      23.07
 91.57     534.33      23.12
 91.67     503.00      22.43
 91.77     516.02      22.72
 91.87     549.00      23.43
 91.97     508.00      22.54
 92.07     542.00      23.28
 92.17     537.99      23.19
 92.27     629.29      25.09
 92.37     591.56      24.32
 92.47     612.00      24.74
 92.57     648.00      25.46
 92.67     641.00      25.32
 92.77     684.00      26.15
 92.87     728.68      26.99
 92.97     692.00      26.31
 93.07     731.00      27.04
 93.17     734.81      27.11
 93.27     728.63      26.99
 93.37     827.00      28.76
 93.47     833.00      28.86
 93.57     781.09      27.95
 93.67     861.00      29.34
 93.77     858.71      29.30
 93.87     858.20      29.30
 93.97     826.00      28.74
 94.07     860.00      29.33
 94.17     882.00      29.70
 94.27     902.86      30.05
 94.37     844.34      29.06
 94.47     829.40      28.80
 94.57     829.45      28.80
 94.67     975.00      31.22
 94.77     854.24      29.23
 94.87     940.04      30.66
 94.97     925.00      30.41
 95.07     861.82      29.36
 95.17     890.65      29.84
 95.27     845.00      29.07
 95.37     774.00      27.82
 95.47     795.00      28.20
 95.57     721.76      26.87
 95.67     765.00      27.66
 95.77     709.00      26.63
 95.87     711.71      26.68
 95.97     669.32      25.87
 96.07     667.25      25.83
 96.17     710.00      26.65
 96.27     734.00      27.09
 96.37     720.00      26.83
 96.47     800.00      28.28
 96.57     887.61      29.79
 96.67     886.00      29.77
 96.77     977.00      31.26
 96.87    1043.64      32.31
 96.97    1114.00      33.38
 97.07    1152.00      33.94
 97.17    1348.82      36.73
 97.27    1398.66      37.40
 97.37    1473.00      38.38
 97.47    1387.00      37.24
 97.57    1416.00      37.63
 97.67    1367.48      36.98
 97.77    1383.00      37.19
 97.87    1383.86      37.20
 97.97    1281.00      35.79
 98.07    1181.00      34.37
 98.17    1200.00      34.64
 98.27    1128.00      33.59
 98.37     957.04      30.94
 98.47     911.00      30.18
 98.57     928.60      30.47
 98.67     827.00      28.76
 98.77     838.00      28.95
 98.87     863.43      29.38
 98.97     767.50      27.70
 99.07     831.04      28.83
 99.17     794.69      28.19
 99.27     842.00      29.02
 99.37     952.28      30.86
 99.47    1014.00      31.84
 99.57    1132.00      33.65
 99.67    1089.00      33.00
 99.77    1241.44      35.23
 99.87    1392.30      37.31
 99.97    1546.00      39.32
100.07    1662.19      40.77
100.17    1742.00      41.74
100.27    1818.02      42.64
100.37    1875.71      43.31
100.47    1932.25      43.96
100.57    2061.00      45.40
100.67    2132.00      46.17
100.77    2157.50      46.45
100.87    2121.00      46.05
100.97    2021.00      44.96
101.07    1965.00      44.33
101.17    1862.00      43.15
101.27    1803.00      42.46
101.37    1695.00      41.17
101.47    1617.00      40.21
101.57    1502.00      38.76
101.67    1421.00      37.70
101.77    1344.00      36.66
101.87    1297.26      36.02
101.97    1267.00      35.59
102.07    1256.00      35.44
102.17    1222.00      34.96
102.27    1138.28      33.74
102.37    1093.00      33.06
102.47    1005.00      31.70
102.57    1097.04      33.12
102.67    1104.29      33.23
102.77    1069.00      32.70
102.87     995.00      31.54
102.97     900.00      30.00
103.07     922.00      30.36
103.17     893.00      29.88
103.27     833.00      28.86
103.37     846.00      29.09
103.47     784.00      28.00
103.57     690.79      26.28
103.67     670.00      25.88
103.77     637.81      25.25
103.87     654.00      25.57
103.97     597.00      24.43
104.07     654.00      25.57
104.17     605.00      24.60
104.27     501.00      22.38
104.37     557.00      23.60
104.47     548.44      23.42
104.57     538.00      23.19
104.67     551.00      23.47
104.77     525.00      22.91
104.87     549.30      23.44
104.97     554.00      23.54
105.07     562.00      23.71
105.17     512.12      22.63
105.27     522.00      22.85
105.37     517.00      22.74
105.47     556.00      23.58
105.57     583.00      24.15
105.67     579.60      24.07
105.77     600.00      24.49
105.87     547.00      23.39
105.97     578.00      24.04
106.07     606.00      24.62
106.17     572.01      23.92
106.27     606.80      24.63
106.37     628.00      25.06
106.47     630.00      25.10
106.57     588.00      24.25
106.67     635.00      25.20
106.77     634.00      25.18
106.87     634.79      25.19
106.97     634.44      25.19
107.07     650.00      25.50
107.17     652.00      25.53
107.27     657.06      25.63
107.37     698.00      26.42
107.47     674.00      25.96
107.57     656.76      25.63
107.67     617.00      24.84
107.77     662.00      25.73
107.87     713.00      26.70
107.97     711.00      26.66
108.07     682.00      26.12
108.17     653.00      25.55
108.27     682.00      26.12
108.37     711.00      26.66
108.47     703.00      26.51
108.57     679.00      26.06
108.67     696.12      26.38
108.77     669.00      25.87
108.87     708.77      26.62
108.97     708.82      26.62
109.07     679.00      26.06
109.17     623.00      24.96
109.27     637.31      25.25
109.37     628.13      25.06
109.47     619.89      24.90
109.57     652.65      25.55
109.67     613.00      24.76
109.77     653.00      25.55
109.87     648.00      25.46
109.97     594.00      24.37
110.07     585.00      24.19
110.17     602.00      24.54
110.27     592.88      24.35
110.37     542.00      23.28
110.47     593.00      24.35
110.57     541.52      23.27
110.67     499.61      22.35
110.77     559.00      23.64
110.87     556.00      23.58
110.97     512.49      22.64
111.07     547.00      23.39
111.17     548.00      23.41
111.27     498.08      22.32
111.37     568.89      23.85
111.47     588.00      24.25
111.57     546.00      23.37
111.67     553.62      23.53
111.77     535.34      23.14
111.87     553.00      23.52
111.97     598.54      24.47
112.07     594.56      24.38
112.17     568.00      23.83
112.27     532.00      23.07
112.37     607.00      24.64
112.47     606.82      24.63
112.57     615.49      24.81
112.67     620.00      24.90
112.77     619.00      24.88
112.87     701.00      26.48
112.97     649.13      25.48
113.07     660.00      25.69
113.17     661.29      25.72
113.27     713.38      26.71
113.37     775.00      27.84
113.47     726.00      26.94
113.57     843.11      29.04
113.67     792.87      28.16
113.77     864.15      29.40
113.87     871.00      29.51
113.97     912.30      30.20
114.07    1041.18      32.27
114.17    1064.00      32.62
114.27    1096.00      33.11
114.37    1168.00      34.18
114.47    1256.77      35.45
114.57    1402.87      37.45
114.67    1514.91      38.92
114.77    1755.84      41.90
114.87    1947.00      44.12
114.97    2130.00      46.15
115.07    2322.00      48.19
115.17    2588.64      50.88
115.27    2873.80      53.61
115.37    3087.00      55.56
115.47    3353.00      57.91
115.57    3827.47      61.87
115.67    4022.00      63.42
115.77    4616.11      67.94
115.87    4711.00      68.64
115.97    5233.00      72.34
116.07    5717.00      75.61
116.17    5899.00      76.80
116.27    6230.00      78.93
116.37    6784.00      82.37
116.47    6740.00      82.10
116.57    6876.00      82.92
116.67    7014.00      83.75
116.77    6862.00      82.84
116.87    6842.00      82.72
116.97    6707.22      81.90
117.07    6466.12      80.41
117.17    5973.00      77.29
117.27    5710.65      75.57
117.37    5187.00      72.02
117.47    5083.82      71.30
117.57    4559.00      67.52
117.67    4249.00      65.18
117.77    3753.65      61.27
117.87    3621.00      60.17
117.97    3145.27      56.08
118.07    2905.76      53.91
118.17    2615.00      51.14
118.27    2250.95      47.44
118.37    1998.00      44.70
118.47    1815.99      42.61
118.57    1649.00      40.61
118.67    1382.00      37.18
118.77    1215.00      34.86
118.87    1116.00      33.41
118.97    1014.83      31.86
119.07     921.00      30.35
119.17     851.79      29.19
119.27     783.39      27.99
119.37     817.20      28.59
119.47     700.25      26.46
119.57     673.00      25.94
119.67     719.11      26.82
119.77     711.00      26.66
119.87     653.00      25.55
119.97     592.00      24.33
120.07     610.42      24.71
120.17     615.00      24.80
120.27     610.40      24.71
120.37     609.00      24.68
120.47     619.87      24.90
120.57     539.00      23.22
120.67     544.00      23.32
120.77     604.00      24.58
120.87     581.77      24.12
120.97     579.00      24.06
121.07     599.38      24.48
121.17     606.12      24.62
121.27     555.00      23.56
121.37     591.86      24.33
121.47     590.00      24.29
121.57     551.00      23.47
121.67     609.00      24.68
121.77     621.16      24.92
121.87     609.00      24.68
121.97     611.00      24.72
122.07     619.00      24.88
122.17     624.00      24.98
122.27     618.00      24.86
122.37     559.00      23.64
122.47     614.76      24.79
122.57     637.00      25.24
122.67     664.39      25.78
122.77     669.15      25.87
122.87     632.00      25.14
122.97     665.64      25.80
123.07     634.00      25.18
123.17     635.34      25.21
123.27     662.00      25.73
123.37     660.07      25.69
123.47     660.00      25.69
123.57     635.00      25.20
123.67     670.00      25.88
123.77     647.40      25.44
123.87     660.00      25.69
123.97     626.00      25.02
124.07     659.00      25.67
124.17     648.12      25.46
124.27     624.00      24.98
124.37     555.72      23.57
124.47     562.00      23.71
124.57     603.00      24.56
124.67     580.00      24.08
124.77     614.43      24.79
124.87     550.00      23.45
124.97     570.00      23.87
