  9.97     628.00      25.06
 10.07     521.34      22.83
 10.17     599.38      24.48
 10.27     592.12      24.33
 10.37     537.26      23.18
 10.47     506.77      22.51
 10.57     603.29      24.56
 10.67     603.00      24.56
 10.77     575.00      23.98
 10.87     627.00      25.04
 10.97     577.00      24.02
 11.07     569.00      23.85
 11.17     535.55      23.14
 11.27     535.00      23.13
 11.37     587.00      24.23
 11.47     592.73      24.35
 11.57     575.00      23.98
 11.67     585.90      24.21
 11.77     654.00      25.57
 11.87     610.00      24.70
 11.97     672.00      25.92
 12.07     679.97      26.08
 12.17     640.00      25.30
 12.27     715.00      26.74
 12.37     638.00      25.26
 12.47     601.00      24.52
 12.57     589.00      24.27
 12.67     560.57      23.68
 12.77     593.00      24.35
 12.87     573.68      23.95
 12.97     598.97      24.47
 13.07     547.00      23.39
 13.17     597.62      24.45
 13.27     573.00      23.94
 13.37     563.24      23.73
 13.47     554.64      23.55
 13.57     538.00      23.19
 13.67     567.55      23.82
 13.77     549.34      23.44
 13.87     563.00      23.73
 13.97     558.00      23.62
 14.07     534.23      23.11
 14.17     517.00      22.74
 14.27     593.27      24.36
 14.37     506.00      22.49
 14.47     559.00      23.64
 14.57     529.00      23.00
 14.67     562.00      23.71
 14.77     522.04      22.85
 14.87     563.00      23.73
 14.97     572.01      23.92
 15.07     594.29      24.38
 15.17     592.14      24.33
 15.27     536.00      23.15
 15.37     591.00      24.31
 15.47     583.00      24.15
 15.57     504.00      22.45
 15.67     589.43      24.28
 15.77     529.00      23.00
 15.87     601.40      24.52
 15.97     500.00      22.36
 16.07     556.10      23.58
 16.17     569.97      23.87
 16.27     567.00      23.81
 16.37     557.00      23.60
 16.47     544.36      23.33
 16.57     565.82      23.79
 16.67     531.00      23.04
 16.77     555.00      23.56
 16.87     573.00      23.94
 16.97     529.86      23.02
 17.07     558.00      23.62
 17.17     572.00      23.92
 17.27     544.00      23.32
 17.37     576.72      24.01
 17.47     513.00      22.65
 17.57     525.00      22.91
 17.67     586.00      24.21
 17.77     551.84      23.49
 17.87     565.92      23.79
 17.97     531.64      23.06
 18.07     522.00      22.85
 18.17     540.20      23.24
 18.27     524.00      22.89
 18.37     585.03      24.19
 18.47     510.00      22.58
 18.57     606.57      24.63
 18.67     594.23      24.38
 18.77     551.00      23.47
 18.87     543.00      23.30
 18.97     590.00      24.29
 19.07     533.00      23.09
 19.17     518.00      22.76
 19.27     529.00      23.00
 19.37     605.26      24.60
 19.47     525.00      22.91
 19.57     506.00      22.49
 19.67     552.00      23.49
 19.77     553.92      23.54
 19.87     537.00      23.17
 19.97     544.00      23.32
 20.07     514.15      22.67
 20.17     564.00      23.75
 20.27     588.15      24.25
 20.37     541.00      23.26
 20.47     603.12      24.56
 20.57     541.00      23.26
 20.67     540.26      23.24
 20.77     562.69      23.72
 20.87     568.00      23.83
 20.97     571.00      23.90
 21.07     562.00      23.71
 21.17     519.00      22.78
 21.27     571.00      23.90
 21.37     517.25      22.74
 21.47     554.00      23.54
 21.57     539.80      23.23
 21.67     573.00      23.94
 21.77     534.45      23.12
 21.87     594.97      24.39
 21.97     547.00      23.39
 22.07     572.00      23.92
 22.17     536.00      23.15
 22.27     553.08      23.52
 22.37     536.00      23.15
 22.47     566.00      23.79
 22.57     542.06      23.28
 22.67     584.71      24.18
 22.77     544.00      23.32
 22.87     583.00      24.15
 22.97     541.62      23.27
 23.07     521.00      22.83
 23.17     556.00      23.58
 23.27     538.95      23.22
 23.37     524.59      22.90
 23.47     542.51      23.29
 23.57     512.30      22.63
 23.67     577.49      24.03
 23.77     519.54      22.79
 23.87     578.88      24.06
 23.97     506.23      22.50
 24.07     570.29      23.88
 24.17     549.00      23.43
 24.27     558.79      23.64
 24.37     568.00      23.83
 24.47     587.00      24.23
 24.57     618.00      24.86
 24.67     561.52      23.70
 24.77     618.00      24.86
 24.87     587.89      24.25
 24.97     627.00      25.04
 25.07     607.00      24.64
 25.17     626.92      25.04
 25.27     611.32      24.72
 25.37     564.00      23.75
 25.47     581.00      24.10
 25.57     528.21      22.98
 25.67     569.00      23.85
 25.77     568.00      23.83
 25.87     582.11      24.13
 25.97     585.00      24.19
 26.07     574.00      23.96
 26.17     602.00      24.54
 26.27     539.00      23.22
 26.37     551.00      23.47
 26.47     570.00      23.87
 26.57     567.00      23.81
 26.67     571.00      23.90
 26.77     568.00      23.83
 26.87     529.17      23.00
 26.97     584.08      24.17
 27.07     576.00      24.00
 27.17     568.62      23.85
 27.27     549.00      23.43
 27.37     590.00      24.29
 27.47     556.00      23.58
 27.57     584.00      24.17
 27.67     609.00      24.68
 27.77     581.00      24.10
 27.87     626.13      25.02
 27.97     661.00      25.71
 28.07     685.00      26.17
 28.17     782.00      27.96
 28.27     955.00      30.90
 28.37     974.00      31.21
 28.47     885.00      29.75
 28.57     805.00      28.37
 28.67     684.74      26.17
 28.77     762.55      27.61
 28.87     779.00      27.91
 28.97     796.30      28.22
 29.07     847.00      29.10
 29.17     728.18      26.98
 29.27     688.00      26.23
 29.37     674.93      25.98
 29.47     627.57      25.05
 29.57     588.00      24.25
 29.67     584.00      24.17
 29.77     585.17      24.19
 29.87     578.00      24.04
 29.97     553.66      23.53
 30.07     604.00      24.58
 30.17     566.00      23.79
 30.27     520.77      22.82
 30.37     566.00      23.79
 30.47     561.00      23.69
 30.57     600.00      24.49
 30.67     601.00      24.52
 30.77     604.00      24.58
 30.87     607.00      24.64
 30.97     601.00      24.52
 31.07     553.25      23.52
 31.17     547.42      23.40
 31.27     605.00      24.60
 31.37     589.00      24.27
 31.47     529.00      23.00
 31.57     556.82      23.60
 31.67     545.00      23.35
 31.77     557.00      23.60
 31.87     510.52      22.59
 31.97     517.00      22.74
 32.07     552.00      23.49
 32.17     553.00      23.52
 32.27     514.00      22.67
 32.37     526.00      22.93
 32.47     538.00      23.19
 32.57     552.46      23.50
 32.67     554.00      23.54
 32.77     507.14      22.52
 32.87     492.00      22.18
 32.97     577.00      24.02
 33.07     525.19      22.92
 33.17     532.64      23.08
 33.27     531.00      23.04
 33.37     540.15      23.24
 33.47     590.00      24.29
 33.57     575.34      23.99
 33.67     588.00      24.25
 33.77     655.00      25.59
 33.87     793.00      28.16
 33.97     860.00      29.33
 34.07    1004.00      31.69
 34.17    1030.00      32.09
 34.27     956.00      30.92
 34.37     878.00      29.63
 34.47     735.00      27.11
 34.57     647.89      25.45
 34.67     575.00      23.98
 34.77     561.00      23.69
 34.87     591.49      24.32
 34.97     571.09      23.90
 35.07     539.00      23.22
 35.17     521.38      22.83
 35.27     528.00      22.98
 35.37     522.00      22.85
 35.47     503.73      22.44
 35.57     493.94      22.22
 35.67     512.00      22.63
 35.77     529.00      23.00
 35.87     551.00      23.47
 35.97     496.24      22.28
 36.07     542.00      23.28
 36.17     515.00      22.69
 36.27     536.00      23.15
 36.37     498.00      22.32
 36.47     511.00      22.61
 36.57     476.06      21.82
 36.67     471.67      21.72
 36.77     506.00      22.49
 36.87     489.84      22.13
 36.97     482.00      21.95
 37.07     493.39      22.21
 37.17     533.34      23.09
 37.27     513.00      22.65
 37.37     503.75      22.44
 37.47     524.00      22.89
 37.57     532.00      23.07
 37.67     507.00      22.52
 37.77     557.45      23.61
 37.87     509.00      22.56
 37.97     483.00      21.98
 38.07     527.00      22.96
 38.17     552.22      23.50
 38.27     527.00      22.96
 38.37     470.00      21.68
 38.47     490.00      22.14
 38.57     454.00      21.31
 38.67     481.00      21.93
 38.77     503.00      22.43
 38.87     486.00      22.05
 38.97     468.00      21.63
 39.07     497.00      22.29
 39.17     546.31      23.37
 39.27     468.91      21.65
 39.37     496.00      22.27
 39.47     503.00      22.43
 39.57     483.00      21.98
 39.67     497.85      22.31
 39.77     496.00      22.27
 39.87     528.48      22.99
 39.97     522.00      22.85
 40.07     515.04      22.69
 40.17     464.00      21.54
 40.27     453.00      21.28
 40.37     448.00      21.17
 40.47     484.00      22.00
 40.57     434.00      20.83
 40.67     511.63      22.62
 40.77     508.00      22.54
 40.87     464.10      21.54
 40.97     515.05      22.69
 41.07     511.91      22.63
 41.17     497.00      22.29
 41.27     451.00      21.24
 41.37     500.00      22.36
 41.47     498.07      22.32
 41.57     493.00      22.20
 41.67     470.00      21.68
 41.77     497.00      22.29
 41.87     536.70      23.17
 41.97     463.00      21.52
 42.07     491.00      22.16
 42.17     521.00      22.83
 42.27     493.00      22.20
 42.37     525.00      22.91
 42.47     528.00      22.98
 42.57     575.00      23.98
 42.67     573.68      23.95
 42.77     623.51      24.97
 42.87     568.00      23.83
 42.97     636.41      25.23
 43.07     605.44      24.61
 43.17     535.00      23.13
 43.27     532.95      23.09
 43.37     558.00      23.62
 43.47     446.00      21.12
 43.57     509.00      22.56
 43.67     534.00      23.11
 43.77     511.00      22.61
 43.87     494.00      22.23
 43.97     470.00      21.68
 44.07     453.12      21.29
 44.17     509.88      22.58
 44.27     530.59      23.03
 44.37     468.58      21.65
 44.47     502.00      22.41
 44.57     476.00      21.82
 44.67     437.00      20.90
 44.77     457.13      21.38
 44.87     510.00      22.58
 44.97     493.00      22.20
 45.07     503.00      22.43
 45.17     499.00      22.34
 45.27     508.00      22.54
 45.37     497.00      22.29
 45.47     461.00      21.47
 45.57     511.53      22.62
 45.67     533.00      23.09
 45.77     520.50      22.81
 45.87     475.00      21.79
 45.97     504.00      22.45
 46.07     501.00      22.38
 46.17     503.00      22.43
 46.27     514.00      22.67
 46.37     496.29      22.28
 46.47     482.35      21.96
 46.57     476.00      21.82
 46.67     482.00      21.95
 46.77     514.00      22.67
 46.87     529.00      23.00
 46.97     502.00      22.41
 47.07     469.36      21.66
 47.17     507.00      22.52
 47.27     473.72      21.77
 47.37     488.20      22.10
 47.47     522.52      22.86
 47.57     510.00      22.58
 47.67     579.00      24.06
 47.77     575.69      23.99
 47.87     575.00      23.98
 47.97     550.00      23.45
 48.07     559.00      23.64
 48.17     546.00      23.37
 48.27     536.76      23.17
 48.37     540.15      23.24
 48.47     552.00      23.49
 48.57     523.00      22.87
 48.67     506.00      22.49
 48.77     490.00      22.14
 48.87     540.00      23.24
 48.97     573.83      23.95
 49.07     520.96      22.82
 49.17     575.93      24.00
 49.27     603.00      24.56
 49.37     569.00      23.85
 49.47     577.00      24.02
 49.57     608.00      24.66
 49.67     709.24      26.63
 49.77     857.11      29.28
 49.87    1028.00      32.06
 49.97    1406.00      37.50
 50.07    1782.00      42.21
 50.17    2199.29      46.90
 50.27    2306.00      48.02
 50.37    2269.00      47.63
 50.47    2187.00      46.77
 50.57    1836.00      42.85
 50.67    1530.94      39.13
 50.77    1122.00      33.50
 50.87     854.00      29.22
 50.97     767.00      27.69
 51.07     708.00      26.61
 51.17     655.00      25.59
 51.27     588.39      24.26
 51.37     597.00      24.43
 51.47     583.00      24.15
 51.57     550.00      23.45
 51.67     605.15      24.60
 51.77     562.00      23.71
 51.87     532.00      23.07
 51.97     609.00      24.68
 52.07     562.00      23.71
 52.17     604.00      24.58
 52.27     579.00      24.06
 52.37     543.00      23.30
 52.47     502.82      22.42
 52.57     591.00      24.31
 52.67     548.00      23.41
 52.77     606.00      24.62
 52.87     598.00      24.45
 52.97     641.34      25.32
 53.07     679.21      26.06
 53.17     766.13      27.68
 53.27     877.75      29.63
 53.37     946.00      30.76
 53.47    1031.55      32.12
 53.57    1122.00      33.50
 53.67    1135.40      33.70
 53.77    1126.00      33.56
 53.87    1113.93      33.38
 53.97     886.00      29.77
 54.07     803.80      28.35
 54.17     759.34      27.56
 54.27     640.62      25.31
 54.37     622.00      24.94
 54.47     572.00      23.92
 54.57     595.09      24.39
 54.67     570.67      23.89
 54.77     599.00      24.47
 54.87     534.68      23.12
 54.97     513.95      22.67
 55.07     553.00      23.52
 55.17     597.48      24.44
 55.27     567.00      23.81
 55.37     548.00      23.41
 55.47     572.54      23.93
 55.57     569.47      23.86
 55.67     606.00      24.62
 55.77     564.00      23.75
 55.87     598.00      24.45
 55.97     639.91      25.30
 56.07     605.00      24.60
 56.17     662.00      25.73
 56.27     793.00      28.16
 56.37     941.47      30.68
 56.47    1177.87      34.32
 56.57    1342.32      36.64
 56.67    1642.00      40.52
 56.77    1943.00      44.08
 56.87    2342.49      48.40
 56.97    2479.78      49.80
 57.07    2527.56      50.27
 57.17    2287.44      47.83
 57.27    2117.00      46.01
 57.37    1799.26      42.42
 57.47    1512.00      38.88
 57.57    1159.38      34.05
 57.67    1034.49      32.16
 57.77     811.66      28.49
 57.87     815.32      28.55
 57.97     721.00      26.85
 58.07     696.00      26.38
 58.17     694.00      26.34
 58.27     708.00      26.61
 58.37     741.00      27.22
 58.47     782.98      27.98
 58.57     858.00      29.29
 58.67     989.00      31.45
 58.77    1005.00      31.70
 58.87    1127.00      33.57
 58.97    1196.00      34.58
 59.07    1236.00      35.16
 59.17    1356.00      36.82
 59.27    1292.00      35.94
 59.37    1266.00      35.58
 59.47    1182.21      34.38
 59.57    1244.00      35.27
 59.67    1186.16      34.44
 59.77    1059.94      32.56
 59.87    1161.00      34.07
 59.97    1203.00      34.68
 60.07    1408.00      37.52
 60.17    1402.00      37.44
 60.27    1497.00      38.69
 60.37    1487.00      38.56
 60.47    1535.76      39.19
 60.57    1401.00      37.43
 60.67    1359.00      36.86
 60.77    1176.00      34.29
 60.87     969.00      31.13
 60.97     857.00      29.27
 61.07     761.00      27.59
 61.17     714.45      26.73
 61.27     625.88      25.02
 61.37     679.00      26.06
 61.47     710.00      26.65
 61.57     701.00      26.48
 61.67     742.00      27.24
 61.77     859.00      29.31
 61.87     973.00      31.19
 61.97    1040.00      32.25
 62.07    1125.00      33.54
 62.17    1278.00      35.75
 62.27    1268.00      35.61
 62.37    1376.00      37.09
 62.47    1327.53      36.44
 62.57    1170.00      34.21
 62.67    1135.00      33.69
 62.77     947.37      30.78
 62.87     841.00      29.00
 62.97     747.94      27.35
 63.07     675.41      25.99
 63.17     678.62      26.05
 63.27     638.00      25.26
 63.37     597.36      24.44
 63.47     610.00      24.70
 63.57     522.33      22.85
 63.67     614.00      24.78
 63.77     562.00      23.71
 63.87     589.00      24.27
 63.97     602.00      24.54
 64.07     656.00      25.61
 64.17     678.00      26.04
 64.27     750.00      27.39
 64.37     772.00      27.78
 64.47     840.00      28.98
 64.57     931.12      30.51
 64.67     981.00      31.32
 64.77     990.00      31.46
 64.87     944.21      30.73
 64.97     954.00      30.89
 65.07     923.43      30.39
 65.17     880.00      29.66
 65.27     807.00      28.41
 65.37     802.00      28.32
 65.47     765.00      27.66
 65.57     644.00      25.38
 65.67     645.00      25.40
 65.77     613.00      24.76
 65.87     604.00      24.58
 65.97     613.07      24.76
 66.07     623.94      24.98
 66.17     569.00      23.85
 66.27     542.11      23.28
 66.37     605.41      24.61
 66.47     527.00      22.96
 66.57     566.00      23.79
 66.67     588.00      24.25
 66.77     596.42      24.42
 66.87     623.55      24.97
 66.97     557.00      23.60
 67.07     652.00      25.53
 67.17     651.00      25.51
 67.27     623.00      24.96
 67.37     770.00      27.75
 67.47     816.40      28.57
 67.57    1009.42      31.77
 67.67    1139.00      33.75
 67.77    1363.07      36.92
 67.87    1620.00      40.25
 67.97    1875.86      43.31
 68.07    2040.60      45.17
 68.17    2207.49      46.98
 68.27    2418.00      49.17
 68.37    2260.00      47.54
 68.47    2242.00      47.35
 68.57    1998.00      44.70
 68.67    1777.00      42.15
 68.77    1465.48      38.28
 68.87    1237.36      35.18
 68.97    1066.00      32.65
 69.07     905.00      30.08
 69.17     819.00      28.62
 69.27     709.00      26.63
 69.37     669.76      25.88
 69.47     635.00      25.20
 69.57     655.29      25.60
 69.67     603.00      24.56
 69.77     589.03      24.27
 69.87     600.00      24.49
 69.97     558.00      23.62
 70.07     543.48      23.31
 70.17     596.00      24.41
 70.27     578.25      24.05
 70.37     602.00      24.54
 70.47     583.00      24.15
 70.57     572.00      23.92
 70.67     540.77      23.25
 70.77     632.00      25.14
 70.87     547.00      23.39
 70.97     613.00      24.76
 71.07     582.00      24.12
 71.17     669.00      25.87
 71.27     751.00      27.40
 71.37     857.68      29.29
 71.47     904.00      30.07
 71.57    1081.39      32.88
 71.67    1079.00      32.85
 71.77    1350.00      36.74
 71.87    1490.11      38.60
 71.97    1584.78      39.81
 72.07    1759.00      41.94
 72.17    1868.00      43.22
 72.27    1817.09      42.63
 72.37    1854.00      43.06
 72.47    1629.05      40.36
 72.57    1592.00      39.90
 72.67    1513.00      38.90
 72.77    1284.00      35.83
 72.87    1050.11      32.41
 72.97     966.00      31.08
 73.07     878.97      29.65
 73.17     839.45      28.97
 73.27     731.00      27.04
 73.37     701.00      26.48
 73.47     656.00      25.61
 73.57     678.67      26.05
 73.67     627.49      25.05
 73.77     642.22      25.34
 73.87     613.00      24.76
 73.97     573.90      23.96
 74.07     587.28      24.23
 74.17     605.00      24.60
 74.27     601.00      24.52
 74.37     602.00      24.54
 74.47     579.96      24.08
 74.57     579.00      24.06
 74.67     637.00      25.24
 74.77     622.49      24.95
 74.87     599.97      24.49
 74.97     524.80      22.91
 75.07     606.00      24.62
 75.17     662.00      25.73
 75.27     595.74      24.41
 75.37     562.00      23.71
 75.47     549.00      23.43
 75.57     571.00      23.90
 75.67     566.00      23.79
 75.77     571.00      23.90
 75.87     555.00      23.56
 75.97     563.00      23.73
 76.07     545.25      23.35
 76.17     593.00      24.35
 76.27     626.00      25.02
 76.37     656.00      25.61
 76.47     713.27      26.71
 76.57     693.44      26.33
 76.67     665.00      25.79
 76.77     733.04      27.07
 76.87     731.00      27.04
 76.97     703.00      26.51
 77.07     657.00      25.63
 77.17     649.00      25.48
 77.27     658.37      25.66
 77.37     599.00      24.47
 77.47     608.14      24.66
 77.57     572.79      23.93
 77.67     588.00      24.25
 77.77     501.10      22.39
 77.87     519.00      22.78
 77.97     513.00      22.65
 78.07     540.00      23.24
 78.17     561.10      23.69
 78.27     520.00      22.80
 78.37     526.00      22.93
 78.47     510.83      22.60
 78.57     550.26      23.46
 78.67     511.00      22.61
 78.77     532.00      23.07
 78.87     491.00      22.16
 78.97     508.00      22.54
 79.07     493.00      22.20
 79.17     488.09      22.09
 79.27     532.62      23.08
 79.37     536.00      23.15
 79.47     519.00      22.78
 79.57     508.00      22.54
 79.67     526.00      22.93
 79.77     539.00      23.22
 79.87     530.00      23.02
 79.97     565.92      23.79
 80.07     548.00      23.41
 80.17     558.46      23.63
 80.27     524.15      22.89
 80.37     569.00      23.85
 80.47     563.00      23.73
 80.57     527.00      22.96
 80.67     571.00      23.90
 80.77     561.80      23.70
 80.87     651.00      25.51
 80.97     583.00      24.15
 81.07     620.00      24.90
 81.17     680.84      26.09
 81.27     665.00      25.79
 81.37     696.00      26.38
 81.47     698.66      26.43
 81.57     700.00      26.46
 81.67     720.18      26.84
 81.77     754.18      27.46
 81.87     718.00      26.80
 81.97     742.06      27.24
 82.07     668.00      25.85
 82.17     672.00      25.92
 82.27     686.97      26.21
 82.37     680.00      26.08
 82.47     610.11      24.70
 82.57     588.95      24.27
 82.67     658.00      25.65
 82.77     555.00      23.56
 82.87     537.00      23.17
 82.97     591.00      24.31
 83.07     543.00      23.30
 83.17     561.00      23.69
 83.27     583.81      24.16
 83.37     562.55      23.72
 83.47     512.00      22.63
 83.57     527.11      22.96
 83.67     519.00      22.78
 83.77     520.00      22.80
 83.87     543.00      23.30
 83.97     591.94      24.33
 84.07     590.68      24.30
 84.17     562.57      23.72
 84.27     589.00      24.27
 84.37     538.00      23.19
 84.47     547.00      23.39
 84.57     539.00      23.22
 84.67     550.75      23.47
 84.77     573.00      23.94
 84.87     500.00      22.36
 84.97     490.61      22.15
 85.07     525.78      22.93
 85.17     520.00      22.80
 85.27     471.21      21.71
 85.37     469.00      21.66
 85.47     484.00      22.00
 85.57     500.61      22.37
 85.67     498.00      22.32
 85.77     514.00      22.67
 85.87     535.57      23.14
 85.97     511.00      22.61
 86.07     509.00      22.56
 86.17     492.00      22.18
 86.27     540.00      23.24
 86.37     520.00      22.80
 86.47     512.00      22.63
 86.57     555.00      23.56
 86.67     568.00      23.83
 86.77     490.00      22.14
 86.87     573.27      23.94
 86.97     553.00      23.52
 87.07     544.00      23.32
 87.17     563.00      23.73
 87.27     538.00      23.19
 87.37     584.00      24.17
 87.47     613.00      24.76
 87.57     634.00      25.18
 87.67     640.01      25.30
 87.77     566.97      23.81
 87.87     624.01      24.98
 87.97     669.00      25.87
 88.07     609.82      24.69
 88.17     673.00      25.94
 88.27     602.00      24.54
 88.37     580.00      24.08
 88.47     553.00      23.52
 88.57     585.00      24.19
 88.67     561.00      23.69
 88.77     580.16      24.09
 88.87     601.00      24.52
 88.97     567.00      23.81
 89.07     607.00      24.64
 89.17     546.00      23.37
 89.27     552.71      23.51
 89.37     587.00      24.23
 89.47     600.00      24.49
 89.57     614.00      24.78
 89.67     623.00      24.96
 89.77     562.00      23.71
 89.87     550.52      23.46
 89.97     587.00      24.23
 90.07     588.00      24.25
 90.17     550.00      23.45
 90.27     559.72      23.66
 90.37     563.47      23.74
 90.47     518.47      22.77
 90.57     482.00      21.95
 90.67     512.00      22.63
 90.77     461.00      21.47
 90.87     554.19      23.54
 90.97     485.14      22.03
 91.07     483.65      21.99
 91.17     534.93      23.13
 91.27     472.14      21.73
 91.37     527.00      22.96
 91.47     525.57      22.93
 91.57     555.44      23.57
 91.67     523.22      22.87
 91.77     493.00      22.20
 91.87     509.00      22.56
 91.97     514.00      22.67
 92.07     493.00      22.20
 92.17     516.00      22.72
 92.27     508.00      22.54
 92.37     534.00      23.11
 92.47     559.23      23.65
 92.57     541.29      23.27
 92.67     612.00      24.74
 92.77     577.00      24.02
 92.87     614.00      24.78
 92.97     627.00      25.04
 93.07     619.52      24.89
 93.17     658.35      25.66
 93.27     686.00      26.19
 93.37     725.00      26.93
 93.47     679.00      26.06
 93.57     782.00      27.96
 93.67     763.15      27.63
 93.77     794.08      28.18
 93.87     747.53      27.34
 93.97     830.00      28.81
 94.07     788.98      28.09
 94.17     873.00      29.55
 94.27     830.41      28.82
 94.37     852.00      29.19
 94.47     895.52      29.93
 94.57     859.97      29.33
 94.67     860.00      29.33
 94.77     858.00      29.29
 94.87     902.00      30.03
 94.97     812.66      28.51
 95.07     938.00      30.63
 95.17     926.25      30.43
 95.27     823.16      28.69
 95.37     868.00      29.46
 95.47     832.00      28.84
 95.57     815.35      28.55
 95.67     819.69      28.63
 95.77     801.00      28.30
 95.87     750.00      27.39
 95.97     727.00      26.96
 96.07     701.00      26.48
 96.17     703.00      26.51
 96.27     677.00      26.02
 96.37     695.65      26.38
 96.47     764.33      27.65
 96.57     725.81      26.94
 96.67     753.79      27.46
 96.77     833.00      28.86
 96.87     897.59      29.96
 96.97     893.93      29.90
 97.07     988.00      31.43
 97.17    1121.00      33.48
 97.27    1060.00      32.56
 97.37    1191.00      34.51
 97.47    1273.70      35.69
 97.57    1331.00      36.48
 97.67    1389.00      37.27
 97.77    1396.00      37.36
 97.87    1466.00      38.29
 97.97    1374.77      37.08
 98.07    1413.00      37.59
 98.17    1312.00      36.22
 98.27    1203.00      34.68
 98.37    1241.00      35.23
 98.47    1220.00      34.93
 98.57    1063.00      32.60
 98.67     990.78      31.48
 98.77    1027.00      32.05
 98.87    1004.18      31.69
 98.97     916.02      30.27
 99.07     909.72      30.16
 99.17     825.06      28.72
 99.27     830.00      28.81
 99.37     848.00      29.12
 99.47     868.36      29.47
 99.57     952.00      30.85
 99.67    1021.47      31.96
 99.77    1008.76      31.76
 99.87    1152.00      33.94
 99.97    1208.00      34.76
100.07    1330.00      36.47
100.17    1400.63      37.43
100.27    1539.00      39.23
100.37    1525.00      39.05
100.47    1752.00      41.86
100.57    1708.85      41.34
100.67    1914.00      43.75
100.77    1944.71      44.10
100.87    1923.00      43.85
100.97    1947.00      44.12
101.07    2048.52      45.26
101.17    1962.00      44.29
101.27    2025.00      45.00
101.37    1902.00      43.61
101.47    1840.00      42.90
101.57    1751.00      41.84
101.67    1714.00      41.40
101.77    1685.00      41.05
101.87    1523.66      39.03
101.97    1433.78      37.87
102.07    1420.00      37.68
102.17    1362.00      36.91
102.27    1289.00      35.90
102.37    1220.89      34.94
102.47    1183.88      34.41
102.57    1213.90      34.84
102.67    1144.00      33.82
102.77    1125.00      33.54
102.87    1173.00      34.25
102.97    1051.00      32.42
103.07    1041.00      32.26
103.17    1039.00      32.23
103.27     966.54      31.09
103.37     927.83      30.46
103.47     913.00      30.22
103.57     915.00      30.25
103.67     797.00      28.23
103.77     844.70      29.06
103.87     729.52      27.01
103.97     766.00      27.68
104.07     675.52      25.99
104.17     626.41      25.03
104.27     637.00      25.24
104.37     656.84      25.63
104.47     617.00      24.84
104.57     581.00      24.10
104.67     559.43      23.65
104.77     510.96      22.60
104.87     563.82      23.74
104.97     571.00      23.90
105.07     567.00      23.81
105.17     510.63      22.60
105.27     502.36      22.41
105.37     601.00      24.52
105.47     529.00      23.00
105.57     551.07      23.47
105.67     552.00      23.49
105.77     529.00      23.00
105.87     522.00      22.85
105.97     552.00      23.49
106.07     511.93      22.63
106.17     529.51      23.01
106.27     500.42      22.37
106.37     578.90      24.06
106.47     586.99      24.23
106.57     572.50      23.93
106.67     569.80      23.87
106.77     588.56      24.26
106.87     655.54      25.60
106.97     606.91      24.64
107.07     635.63      25.21
107.17     614.00      24.78
107.27     661.00      25.71
107.37     643.00      25.36
107.47     721.36      26.86
107.57     680.00      26.08
107.67     645.00      25.40
107.77     672.31      25.93
107.87     708.44      26.62
107.97     639.00      25.28
108.07     650.00      25.50
108.17     682.00      26.12
108.27     653.36      25.56
108.37     715.09      26.74
108.47     676.00      26.00
108.57     673.00      25.94
108.67     669.00      25.87
108.77     668.00      25.85
108.87     686.60      26.20
108.97     681.00      26.10
109.07     642.95      25.36
109.17     705.00      26.55
109.27     666.56      25.82
109.37     672.00      25.92
109.47     696.00      26.38
109.57     666.00      25.81
109.67     700.00      26.46
109.77     660.95      25.71
109.87     680.00      26.08
109.97     598.13      24.46
110.07     636.00      25.22
110.17     585.04      24.19
110.27     578.89      24.06
110.37     588.00      24.25
110.47     602.81      24.55
110.57     585.00      24.19
110.67     618.00      24.86
110.77     583.00      24.15
110.87     549.62      23.44
110.97     517.90      22.76
111.07     563.70      23.74
111.17     530.79      23.04
111.27     566.00      23.79
111.37     561.00      23.69
111.47     522.00      22.85
111.57     555.99      23.58
111.67     492.09      22.18
111.77     579.00      24.06
111.87     509.32      22.57
111.97     550.00      23.45
112.07     572.40      23.92
112.17     586.00      24.21
112.27     539.00      23.22
112.37     549.00      23.43
112.47     563.82      23.74
112.57     598.00      24.45
112.67     601.80      24.53
112.77     599.00      24.47
112.87     589.00      24.27
112.97     566.56      23.80
113.07     606.00      24.62
113.17     565.00      23.77
113.27     580.00      24.08
113.37     626.00      25.02
113.47     571.00      23.90
113.57     600.00      24.49
113.67     629.00      25.08
113.77     719.45      26.82
113.87     663.00      25.75
113.97     730.28      27.02
114.07     771.53      27.78
114.17     804.14      28.36
114.27     777.00      27.87
114.37     882.64      29.71
114.47     909.00      30.15
114.57     962.38      31.02
114.67    1056.00      32.50
114.77    1120.00      33.47
114.87    1295.39      35.99
114.97    1418.00      37.66
115.07    1639.47      40.49
115.17    1826.00      42.73
115.27    1935.00      43.99
115.37    2297.00      47.93
115.47    2482.88      49.83
115.57    2881.00      53.67
115.67    3049.11      55.22
115.77    3431.00      58.57
115.87    3789.00      61.55
115.97    4053.00      63.66
116.07    4410.00      66.41
116.17    4788.00      69.20
116.27    5024.00      70.88
116.37    5413.00      73.57
116.47    5933.00      77.03
116.57    6106.32      78.14
116.67    6502.00      80.63
116.77    6624.23      81.39
116.87    6917.84      83.17
116.97    6972.00      83.50
117.07    6828.00      82.63
117.17    6788.00      82.39
117.27    6775.24      82.31
117.37    6446.48      80.29
117.47    6313.00      79.45
117.57    6027.00      77.63
117.67    5711.20      75.57
117.77    5278.00      72.65
117.87    4787.00      69.19
117.97    4642.00      68.13
118.07    4409.83      66.41
118.17    4084.00      63.91
118.27    3696.00      60.79
118.37    3296.00      57.41
118.47    2998.00      54.75
118.57    2649.00      51.47
118.67    2449.00      49.49
118.77    2071.00      45.51
118.87    1866.00      43.20
118.97    1707.72      41.32
119.07    1470.66      38.35
119.17    1357.00      36.84
119.27    1231.00      35.09
119.37    1199.00      34.63
119.47    1070.00      32.71
119.57     955.93      30.92
119.67     937.00      30.61
119.77     807.00      28.41
119.87     790.00      28.11
119.97     790.00      28.11
120.07     691.53      26.30
120.17     704.81      26.55
120.27     645.00      25.40
120.37     627.00      25.04
120.47     619.79      24.90
120.57     663.97      25.77
120.67     601.00      24.52
120.77     588.00      24.25
120.87     546.13      23.37
120.97     607.34      24.64
121.07     539.00      23.22
121.17     559.58      23.66
121.27     613.17      24.76
121.37     606.95      24.64
121.47     556.00      23.58
121.57     543.00      23.30
121.67     581.00      24.10
121.77     529.17      23.00
121.87     622.00      24.94
121.97     532.00      23.07
122.07     569.00      23.85
122.17     621.30      24.93
122.27     583.00      24.15
122.37     609.00      24.68
122.47     599.00      24.47
122.57     629.00      25.08
122.67     653.91      25.57
122.77     581.00      24.10
122.87     666.00      25.81
122.97     652.53      25.54
123.07     606.00      24.62
123.17     691.00      26.29
123.27     589.00      24.27
123.37     654.07      25.57
123.47     613.91      24.78
123.57     640.00      25.30
123.67     593.47      24.36
123.77     596.66      24.43
123.87     611.00      24.72
123.97     585.90      24.21
124.07     612.00      24.74
124.17     621.00      24.92
124.27     652.00      25.53
124.37     602.00      24.54
124.47     668.00      25.85
124.57     611.00      24.72
124.67     555.02      23.56
124.77     575.00      23.98
124.87     566.00      23.79
124.97     575.00      23.98
