  9.97     631.00      25.12
 10.07     598.00      24.45
 10.17     601.57      24.53
 10.27     592.00      24.33
 10.37     575.00      23.98
 10.47     570.00      23.87
 10.57     587.00      24.23
 10.67     565.00      23.77
 10.77     562.13      23.71
 10.87     570.28      23.88
 10.97     595.00      24.39
 11.07     611.84      24.74
 11.17     576.00      24.00
 11.27     555.00      23.56
 11.37     562.19      23.71
 11.47     615.05      24.80
 11.57     588.00      24.25
 11.67     584.00      24.17
 11.77     645.00      25.40
 11.87     694.00      26.34
 11.97     680.00      26.08
 12.07     647.00      25.44
 12.17     663.00      25.75
 12.27     651.00      25.51
 12.37     652.00      25.53
 12.47     637.00      25.24
 12.57     569.00      23.85
 12.67     630.17      25.10
 12.77     598.38      24.46
 12.87     556.00      23.58
 12.97     572.00      23.92
 13.07     558.00      23.62
 13.17     548.00      23.41
 13.27     554.00      23.54
 13.37     517.00      22.74
 13.47     579.00      24.06
 13.57     544.00      23.32
 13.67     562.07      23.71
 13.77     565.23      23.77
 13.87     563.00      23.73
 13.97     557.00      23.60
 14.07     582.00      24.12
 14.17     591.86      24.33
 14.27     587.00      24.23
 14.37     558.00      23.62
 14.47     537.00      23.17
 14.57     589.00      24.27
 14.67     519.00      22.78
 14.77     578.00      24.04
 14.87     536.12      23.15
 14.97     563.00      23.73
 15.07     535.37      23.14
 15.17     527.80      22.97
 15.27     523.48      22.88
 15.37     533.60      23.10
 15.47     582.00      24.12
 15.57     596.98      24.43
 15.67     575.00      23.98
 15.77     571.53      23.91
 15.87     573.25      23.94
 15.97     548.00      23.41
 16.07     582.00      24.12
 16.17     528.22      22.98
 16.27     552.65      23.51
 16.37     598.00      24.45
 16.47     577.46      24.03
 16.57     540.00      23.24
 16.67     525.00      22.91
 16.77     570.60      23.89
 16.87     577.54      24.03
 16.97     517.00      22.74
 17.07     610.20      24.70
 17.17     611.18      24.72
 17.27     584.00      24.17
 17.37     524.38      22.90
 17.47     567.00      23.81
 17.57     524.00      22.89
 17.67     559.00      23.64
 17.77     537.00      23.17
 17.87     550.00      23.45
 17.97     598.83      24.47
 18.07     573.59      23.95
 18.17     529.49      23.01
 18.27     594.00      24.37
 18.37     544.00      23.32
 18.47     545.00      23.35
 18.57     565.00      23.77
 18.67     577.00      24.02
 18.77     570.00      23.87
 18.87     524.34      22.90
 18.97     586.00      24.21
 19.07     596.00      24.41
 19.17     546.00      23.37
 19.27     516.43      22.73
 19.37     539.00      23.22
 19.47     552.00      23.49
 19.57     597.43      24.44
 19.67     515.15      22.70
 19.77     576.00      24.00
 19.87     525.00      22.91
 19.97     602.99      24.56
 20.07     578.05      24.04
 20.17     583.95      24.17
 20.27     548.00      23.41
 20.37     561.91      23.70
 20.47     546.37      23.37
 20.57     592.92      24.35
 20.67     572.00      23.92
 20.77     519.68      22.80
 20.87     530.70      23.04
 20.97     552.00      23.49
 21.07     570.00      23.87
 21.17     545.16      23.35
 21.27     538.95      23.22
 21.37     543.00      23.30
 21.47     560.00      23.66
 21.57     553.00      23.52
 21.67     567.00      23.81
 21.77     560.16      23.67
 21.87     529.59      23.01
 21.97     526.00      22.93
 22.07     572.00      23.92
 22.17     521.41      22.83
 22.27     557.00      23.60
 22.37     566.00      23.79
 22.47     560.00      23.66
 22.57     544.00      23.32
 22.67     527.00      22.96
 22.77     554.00      23.54
 22.87     557.55      23.61
 22.97     522.00      22.85
 23.07     557.00      23.60
 23.17     548.00      23.41
 23.27     541.00      23.26
 23.37     510.31      22.59
 23.47     560.93      23.68
 23.57     532.00      23.07
 23.67     554.00      23.54
 23.77     566.00      23.79
 23.87     563.00      23.73
 23.97     521.00      22.83
 24.07     528.00      22.98
 24.17     555.00      23.56
 24.27     573.86      23.96
 24.37     591.34      24.32
 24.47     590.60      24.30
 24.57     608.00      24.66
 24.67     631.00      25.12
 24.77     596.00      24.41
 24.87     610.00      24.70
 24.97     601.00      24.52
 25.07     583.00      24.15
 25.17     560.00      23.66
 25.27     574.46      23.97
 25.37     589.00      24.27
 25.47     554.00      23.54
 25.57     573.15      23.94
 25.67     580.00      24.08
 25.77     547.00      23.39
 25.87     522.92      22.87
 25.97     534.00      23.11
 26.07     588.74      24.26
 26.17     519.31      22.79
 26.27     556.51      23.59
 26.37     558.00      23.62
 26.47     568.02      23.83
 26.57     500.04      22.36
 26.67     556.00      23.58
 26.77     575.45      23.99
 26.87     547.00      23.39
 26.97     560.00      23.66
 27.07     562.00      23.71
 27.17     539.00      23.22
 27.27     548.00      23.41
 27.37     509.00      22.56
 27.47     560.00      23.66
 27.57     589.00      24.27
 27.67     590.00      24.29
 27.77     584.00      24.17
 27.87     564.95      23.77
 27.97     645.00      25.40
 28.07     824.00      28.71
 28.17     897.00      29.95
 28.27     927.00      30.45
 28.37     959.86      30.98
 28.47     786.00      28.04
 28.57     716.00      26.76
 28.67     674.00      25.96
 28.77     774.00      27.82
 28.87     789.09      28.09
 28.97     827.00      28.76
 29.07     760.06      27.57
 29.17     721.00      26.85
 29.27     660.00      25.69
 29.37     599.00      24.47
 29.47     564.00      23.75
 29.57     580.11      24.09
 29.67     579.88      24.08
 29.77     550.00      23.45
 29.87     599.06      24.48
 29.97     566.00      23.79
 30.07     561.88      23.70
 30.17     569.95      23.87
 30.27     538.00      23.19
 30.37     497.91      22.31
 30.47     580.00      24.08
 30.57     506.80      22.51
 30.67     526.88      22.95
 30.77     618.00      24.86
 30.87     661.00      25.71
 30.97     604.00      24.58
 31.07     620.84      24.92
 31.17     600.00      24.49
 31.27     556.00      23.58
 31.37     569.00      23.85
 31.47     546.00      23.37
 31.57     546.62      23.38
 31.67     534.00      23.11
 31.77     499.15      22.34
 31.87     547.05      23.39
 31.97     535.00      23.13
 32.07     556.00      23.58
 32.17     541.00      23.26
 32.27     541.00      23.26
 32.37     505.00      22.47
 32.47     509.31      22.57
 32.57     562.00      23.71
 32.67     523.37      22.88
 32.77     572.00      23.92
 32.87     542.00      23.28
 32.97     547.00      23.39
 33.07     576.21      24.00
 33.17     521.00      22.83
 33.27     529.00      23.00
 33.37     558.00      23.62
 33.47     569.00      23.85
 33.57     592.00      24.33
 33.67     611.00      24.72
 33.77     753.00      27.44
 33.87     886.16      29.77
 33.97    1010.00      31.78
 34.07    1070.00      32.71
 34.17    1045.98      32.34
 34.27     876.00      29.60
 34.37     786.73      28.05
 34.47     666.60      25.82
 34.57     568.22      23.84
 34.67     572.00      23.92
 34.77     511.46      22.62
 34.87     535.00      23.13
 34.97     534.26      23.11
 35.07     571.00      23.90
 35.17     533.00      23.09
 35.27     550.00      23.45
 35.37     506.00      22.49
 35.47     529.00      23.00
 35.57     512.02      22.63
 35.67     534.00      23.11
 35.77     476.00      21.82
 35.87     501.00      22.38
 35.97     481.00      21.93
 36.07     455.00      21.33
 36.17     488.40      22.10
 36.27     520.00      22.80
 36.37     512.00      22.63
 36.47     547.00      23.39
 36.57     519.72      22.80
 36.67     524.00      22.89
 36.77     508.00      22.54
 36.87     510.00      22.58
 36.97     547.00      23.39
 37.07     551.12      23.48
 37.17     534.00      23.11
 37.27     554.00      23.54
 37.37     512.00      22.63
 37.47     522.00      22.85
 37.57     542.00      23.28
 37.67     548.00      23.41
 37.77     538.00      23.19
 37.87     543.73      23.32
 37.97     562.65      23.72
 38.07     548.00      23.41
 38.17     482.20      21.96
 38.27     558.77      23.64
 38.37     500.00      22.36
 38.47     480.32      21.92
 38.57     555.45      23.57
 38.67     484.00      22.00
 38.77     470.00      21.68
 38.87     490.00      22.14
 38.97     468.90      21.65
 39.07     506.00      22.49
 39.17     486.00      22.05
 39.27     515.00      22.69
 39.37     479.00      21.89
 39.47     500.00      22.36
 39.57     501.00      22.38
 39.67     537.00      23.17
 39.77     502.74      22.42
 39.87     521.00      22.83
 39.97     489.00      22.11
 40.07     487.44      22.08
 40.17     516.30      22.72
 40.27     507.00      22.52
 40.37     530.00      23.02
 40.47     466.21      21.59
 40.57     536.69      23.17
 40.67     532.64      23.08
 40.77     499.24      22.34
 40.87     558.00      23.62
 40.97     477.00      21.84
 41.07     481.00      21.93
 41.17     494.18      22.23
 41.27     517.00      22.74
 41.37     505.00      22.47
 41.47     496.00      22.27
 41.57     474.93      21.79
 41.67     499.00      22.34
 41.77     487.00      22.07
 41.87     516.00      22.72
 41.97     493.00      22.20
 42.07     484.00      22.00
 42.17     484.00      22.00
 42.27     562.00      23.71
 42.37     578.00      24.04
 42.47     583.00      24.15
 42.57     596.00      24.41
 42.67     612.00      24.74
 42.77     580.94      24.10
 42.87     527.00      22.96
 42.97     617.60      24.85
 43.07     557.00      23.60
 43.17     488.00      22.09
 43.27     510.92      22.60
 43.37     504.00      22.45
 43.47     497.00      22.29
 43.57     489.00      22.11
 43.67     530.00      23.02
 43.77     515.00      22.69
 43.87     502.00      22.41
 43.97     484.06      22.00
 44.07     516.00      22.72
 44.17     527.00      22.96
 44.27     513.00      22.65
 44.37     530.00      23.02
 44.47     465.24      21.57
 44.57     487.49      22.08
 44.67     535.00      23.13
 44.77     539.36      23.22
 44.87     496.00      22.27
 44.97     480.00      21.91
 45.07     488.00      22.09
 45.17     530.00      23.02
 45.27     517.00      22.74
 45.37     468.40      21.64
 45.47     520.00      22.80
 45.57     547.22      23.39
 45.67     515.00      22.69
 45.77     489.00      22.11
 45.87     516.00      22.72
 45.97     531.00      23.04
 46.07     517.00      22.74
 46.17     510.00      22.58
 46.27     499.00      22.34
 46.37     534.65      23.12
 46.47     484.96      22.02
 46.57     550.59      23.46
 46.67     495.00      22.25
 46.77     493.00      22.20
 46.87     516.00      22.72
 46.97     473.00      21.75
 47.07     520.45      22.81
 47.17     496.00      22.27
 47.27     478.54      21.88
 47.37     541.00      23.26
 47.47     548.08      23.41
 47.57     525.24      22.92
 47.67     573.00      23.94
 47.77     577.00      24.02
 47.87     576.00      24.00
 47.97     605.00      24.60
 48.07     580.00      24.08
 48.17     560.00      23.66
 48.27     526.23      22.94
 48.37     526.00      22.93
 48.47     555.00      23.56
 48.57     519.82      22.80
 48.67     506.00      22.49
 48.77     564.00      23.75
 48.87     531.00      23.04
 48.97     553.00      23.52
 49.07     592.73      24.35
 49.17     572.57      23.93
 49.27     645.89      25.41
 49.37     651.00      25.51
 49.47     734.74      27.11
 49.57     800.92      28.30
 49.67     937.55      30.62
 49.77    1147.71      33.88
 49.87    1377.94      37.12
 49.97    1852.00      43.03
 50.07    2279.00      47.74
 50.17    2502.00      50.02
 50.27    2485.00      49.85
 50.37    2294.00      47.90
 50.47    1884.00      43.41
 50.57    1406.26      37.50
 50.67    1133.05      33.66
 50.77     814.00      28.53
 50.87     714.00      26.72
 50.97     698.00      26.42
 51.07     665.69      25.80
 51.17     640.00      25.30
 51.27     610.00      24.70
 51.37     613.00      24.76
 51.47     633.00      25.16
 51.57     539.95      23.24
 51.67     553.00      23.52
 51.77     581.00      24.10
 51.87     543.00      23.30
 51.97     534.00      23.11
 52.07     510.04      22.58
 52.17     556.62      23.59
 52.27     520.69      22.82
 52.37     554.22      23.54
 52.47     509.64      22.58
 52.57     579.49      24.07
 52.67     547.41      23.40
 52.77     547.71      23.40
 52.87     619.47      24.89
 52.97     743.00      27.26
 53.07     855.00      29.24
 53.17     941.00      30.68
 53.27     986.13      31.40
 53.37    1173.00      34.25
 53.47    1188.80      34.48
 53.57    1258.61      35.48
 53.67    1087.00      32.97
 53.77     959.99      30.98
 53.87     830.27      28.81
 53.97     746.00      27.31
 54.07     722.86      26.89
 54.17     647.00      25.44
 54.27     551.88      23.49
 54.37     599.07      24.48
 54.47     538.68      23.21
 54.57     571.10      23.90
 54.67     555.00      23.56
 54.77     543.00      23.30
 54.87     527.00      22.96
 54.97     507.57      22.53
 55.07     530.98      23.04
 55.17     559.00      23.64
 55.27     592.00      24.33
 55.37     536.76      23.17
 55.47     576.00      24.00
 55.57     562.00      23.71
 55.67     616.00      24.82
 55.77     593.16      24.35
 55.87     597.00      24.43
 55.97     632.01      25.14
 56.07     635.90      25.22
 56.17     771.00      27.77
 56.27     845.00      29.07
 56.37    1121.00      33.48
 56.47    1397.00      37.38
 56.57    1802.52      42.46
 56.67    2229.18      47.21
 56.77    2427.51      49.27
 56.87    2504.00      50.04
 56.97    2563.91      50.64
 57.07    2430.72      49.30
 57.17    1974.02      44.43
 57.27    1707.00      41.32
 57.37    1316.00      36.28
 57.47    1043.00      32.30
 57.57     847.00      29.10
 57.67     757.84      27.53
 57.77     741.95      27.24
 57.87     686.00      26.19
 57.97     676.00      26.00
 58.07     658.14      25.65
 58.17     719.00      26.81
 58.27     823.00      28.69
 58.37     833.95      28.88
 58.47    1017.76      31.90
 58.57    1081.00      32.88
 58.67    1204.00      34.70
 58.77    1355.00      36.81
 58.87    1488.78      38.58
 58.97    1538.00      39.22
 59.07    1599.00      39.99
 59.17    1533.00      39.15
 59.27    1435.56      37.89
 59.37    1378.49      37.13
 59.47    1212.41      34.82
 59.57    1166.00      34.15
 59.67    1169.00      34.19
 59.77    1151.10      33.93
 59.87    1181.40      34.37
 59.97    1237.14      35.17
 60.07    1477.00      38.43
 60.17    1517.00      38.95
 60.27    1557.00      39.46
 60.37    1464.00      38.26
 60.47    1384.00      37.20
 60.57    1232.00      35.10
 60.67    1091.00      33.03
 60.77     895.00      29.92
 60.87     806.00      28.39
 60.97     745.79      27.31
 61.07     622.00      24.94
 61.17     604.48      24.59
 61.27     666.00      25.81
 61.37     675.00      25.98
 61.47     688.00      26.23
 61.57     725.00      26.93
 61.67     814.00      28.53
 61.77     975.93      31.24
 61.87    1088.00      32.98
 61.97    1234.00      35.13
 62.07    1391.17      37.30
 62.17    1384.36      37.21
 62.27    1399.00      37.40
 62.37    1335.00      36.54
 62.47    1206.67      34.74
 62.57    1071.00      32.73
 62.67     891.47      29.86
 62.77     847.25      29.11
 62.87     663.00      25.75
 62.97     656.00      25.61
 63.07     625.00      25.00
 63.17     622.00      24.94
 63.27     554.43      23.55
 63.37     566.18      23.79
 63.47     557.00      23.60
 63.57     545.60      23.36
 63.67     553.00      23.52
 63.77     634.00      25.18
 63.87     640.55      25.31
 63.97     680.66      26.09
 64.07     708.00      26.61
 64.17     767.00      27.69
 64.27     784.70      28.01
 64.37     955.00      30.90
 64.47    1010.00      31.78
 64.57     946.28      30.76
 64.67    1016.47      31.88
 64.77     950.40      30.83
 64.87     967.16      31.10
 64.97     935.00      30.58
 65.07     815.91      28.56
 65.17     812.00      28.50
 65.27     686.45      26.20
 65.37     665.00      25.79
 65.47     625.00      25.00
 65.57     637.00      25.24
 65.67     611.00      24.72
 65.77     567.52      23.82
 65.87     576.00      24.00
 65.97     600.83      24.51
 66.07     597.87      24.45
 66.17     578.59      24.05
 66.27     527.00      22.96
 66.37     563.00      23.73
 66.47     553.23      23.52
 66.57     584.00      24.17
 66.67     566.29      23.80
 66.77     538.09      23.20
 66.87     558.00      23.62
 66.97     587.00      24.23
 67.07     607.00      24.64
 67.17     667.00      25.83
 67.27     764.00      27.64
 67.37     903.00      30.05
 67.47    1111.46      33.34
 67.57    1280.97      35.79
 67.67    1468.00      38.31
 67.77    1864.83      43.18
 67.87    2060.00      45.39
 67.97    2268.00      47.62
 68.07    2331.79      48.29
 68.17    2389.99      48.89
 68.27    2338.00      48.35
 68.37    2046.00      45.23
 68.47    1799.00      42.41
 68.57    1510.00      38.86
 68.67    1383.00      37.19
 68.77    1014.00      31.84
 68.87     942.40      30.70
 68.97     725.68      26.94
 69.07     644.50      25.39
 69.17     661.00      25.71
 69.27     584.03      24.17
 69.37     617.00      24.84
 69.47     613.54      24.77
 69.57     644.00      25.38
 69.67     603.57      24.57
 69.77     561.25      23.69
 69.87     580.00      24.08
 69.97     559.00      23.64
 70.07     562.00      23.71
 70.17     582.00      24.12
 70.27     613.00      24.76
 70.37     527.00      22.96
 70.47     601.00      24.52
 70.57     562.00      23.71
 70.67     552.00      23.49
 70.77     564.00      23.75
 70.87     585.00      24.19
 70.97     649.52      25.49
 71.07     614.00      24.78
 71.17     759.00      27.55
 71.27     820.76      28.65
 71.37     883.00      29.72
 71.47    1129.00      33.60
 71.57    1288.04      35.89
 71.67    1409.29      37.54
 71.77    1591.00      39.89
 71.87    1692.00      41.13
 71.97    1890.00      43.47
 72.07    1960.00      44.27
 72.17    1934.00      43.98
 72.27    1764.25      42.00
 72.37    1650.32      40.62
 72.47    1540.00      39.24
 72.57    1263.84      35.55
 72.67    1200.76      34.65
 72.77    1035.06      32.17
 72.87     946.63      30.77
 72.97     919.37      30.32
 73.07     765.00      27.66
 73.17     732.00      27.06
 73.27     677.00      26.02
 73.37     659.00      25.67
 73.47     642.34      25.34
 73.57     619.01      24.88
 73.67     600.00      24.49
 73.77     615.00      24.80
 73.87     586.00      24.21
 73.97     557.00      23.60
 74.07     613.90      24.78
 74.17     591.00      24.31
 74.27     586.00      24.21
 74.37     636.00      25.22
 74.47     632.00      25.14
 74.57     598.57      24.47
 74.67     658.00      25.65
 74.77     521.71      22.84
 74.87     629.00      25.08
 74.97     517.55      22.75
 75.07     611.00      24.72
 75.17     513.40      22.66
 75.27     545.00      23.35
 75.37     568.00      23.83
 75.47     558.00      23.62
 75.57     586.00      24.21
 75.67     578.00      24.04
 75.77     603.00      24.56
 75.87     552.27      23.50
 75.97     572.00      23.92
 76.07     616.00      24.82
 76.17     679.85      26.07
 76.27     649.00      25.48
 76.37     689.00      26.25
 76.47     653.52      25.56
 76.57     721.00      26.85
 76.67     710.00      26.65
 76.77     633.00      25.16
 76.87     622.95      24.96
 76.97     671.00      25.90
 77.07     656.25      25.62
 77.17     576.00      24.00
 77.27     574.00      23.96
 77.37     544.00      23.32
 77.47     518.78      22.78
 77.57     554.00      23.54
 77.67     518.17      22.76
 77.77     578.24      24.05
 77.87     521.00      22.83
 77.97     576.00      24.00
 78.07     521.00      22.83
 78.17     491.88      22.18
 78.27     503.00      22.43
 78.37     545.65      23.36
 78.47     513.00      22.65
 78.57     524.00      22.89
 78.67     529.55      23.01
 78.77     535.00      23.13
 78.87     534.38      23.12
 78.97     522.23      22.85
 79.07     496.00      22.27
 79.17     524.00      22.89
 79.27     518.06      22.76
 79.37     506.00      22.49
 79.47     571.10      23.90
 79.57     545.00      23.35
 79.67     570.55      23.89
 79.77     505.00      22.47
 79.87     538.00      23.19
 79.97     541.00      23.26
 80.07     539.00      23.22
 80.17     578.07      24.04
 80.27     534.32      23.12
 80.37     572.40      23.92
 80.47     574.91      23.98
 80.57     584.84      24.18
 80.67     620.67      24.91
 80.77     621.00      24.92
 80.87     695.00      26.36
 80.97     621.00      24.92
 81.07     671.76      25.92
 81.17     718.00      26.80
 81.27     746.00      27.31
 81.37     751.00      27.40
 81.47     768.00      27.71
 81.57     738.30      27.17
 81.67     762.00      27.60
 81.77     708.04      26.61
 81.87     707.00      26.59
 81.97     756.00      27.50
 82.07     623.00      24.96
 82.17     686.71      26.21
 82.27     624.66      24.99
 82.37     615.00      24.80
 82.47     590.99      24.31
 82.57     603.00      24.56
 82.67     584.00      24.17
 82.77     565.00      23.77
 82.87     536.49      23.16
 82.97     590.63      24.30
 83.07     516.39      22.72
 83.17     573.00      23.94
 83.27     589.93      24.29
 83.37     524.00      22.89
 83.47     565.00      23.77
 83.57     546.00      23.37
 83.67     574.00      23.96
 83.77     534.58      23.12
 83.87     583.00      24.15
 83.97     624.83      25.00
 84.07     602.33      24.54
 84.17     576.27      24.01
 84.27     575.00      23.98
 84.37     598.15      24.46
 84.47     564.00      23.75
 84.57     516.00      22.72
 84.67     577.00      24.02
 84.77     555.09      23.56
 84.87     523.00      22.87
 84.97     502.00      22.41
 85.07     555.00      23.56
 85.17     526.00      22.93
 85.27     548.00      23.41
 85.37     518.00      22.76
 85.47     529.00      23.00
 85.57     499.52      22.35
 85.67     526.00      22.93
 85.77     540.00      23.24
 85.87     502.00      22.41
 85.97     537.56      23.19
 86.07     525.65      22.93
 86.17     547.00      23.39
 86.27     528.00      22.98
 86.37     576.31      24.01
 86.47     528.77      23.00
 86.57     517.65      22.75
 86.67     567.00      23.81
 86.77     610.00      24.70
 86.87     633.00      25.16
 86.97     593.88      24.37
 87.07     569.88      23.87
 87.17     651.00      25.51
 87.27     627.00      25.04
 87.37     647.46      25.45
 87.47     619.79      24.90
 87.57     676.00      26.00
 87.67     639.00      25.28
 87.77     613.00      24.76
 87.87     615.48      24.81
 87.97     643.99      25.38
 88.07     582.00      24.12
 88.17     567.43      23.82
 88.27     564.00      23.75
 88.37     596.16      24.42
 88.47     575.00      23.98
 88.57     548.92      23.43
 88.67     601.71      24.53
 88.77     612.11      24.74
 88.87     550.61      23.47
 88.97     585.00      24.19
 89.07     645.00      25.40
 89.17     622.44      24.95
 89.27     656.00      25.61
 89.37     580.00      24.08
 89.47     615.00      24.80
 89.57     596.00      24.41
 89.67     637.00      25.24
 89.77     557.00      23.60
 89.87     546.00      23.37
 89.97     577.00      24.02
 90.07     529.00      23.00
 90.17     565.60      23.78
 90.27     570.59      23.89
 90.37     578.05      24.04
 90.47     554.00      23.54
 90.57     527.00      22.96
 90.67     517.00      22.74
 90.77     490.88      22.16
 90.87     520.00      22.80
 90.97     502.00      22.41
 91.07     513.61      22.66
 91.17     492.00      22.18
 91.27     509.78      22.58
 91.37     504.00      22.45
 91.47     565.60      23.78
 91.57     513.00      22.65
 91.67     549.00      23.43
 91.77     532.00      23.07
 91.87     521.00      22.83
 91.97     529.00      23.00
 92.07     541.00      23.26
 92.17     578.00      24.04
 92.27     565.73      23.79
 92.37     621.00      24.92
 92.47     620.00      24.90
 92.57     687.47      26.22
 92.67     607.00      24.64
 92.77     662.00      25.73
 92.87     672.09      25.92
 92.97     740.00      27.20
 93.07     754.00      27.46
 93.17     777.00      27.87
 93.27     764.16      27.64
 93.37     777.09      27.88
 93.47     784.38      28.01
 93.57     849.00      29.14
 93.67     872.00      29.53
 93.77     819.00      28.62
 93.87     851.00      29.17
 93.97     847.20      29.11
 94.07     909.00      30.15
 94.17     835.00      28.90
 94.27     874.00      29.56
 94.37     870.00      29.50
 94.47     859.00      29.31
 94.57     926.00      30.43
 94.67     991.00      31.48
 94.77     900.00      30.00
 94.87     909.64      30.16
 94.97     928.00      30.46
 95.07     870.00      29.50
 95.17     869.15      29.48
 95.27     869.00      29.48
 95.37     840.00      28.98
 95.47     819.12      28.62
 95.57     710.00      26.65
 95.67     792.00      28.14
 95.77     709.89      26.64
 95.87     732.24      27.06
 95.97     690.00      26.27
 96.07     670.25      25.89
 96.17     702.59      26.51
 96.27     726.00      26.94
 96.37     739.00      27.18
 96.47     808.00      28.43
 96.57     827.00      28.76
 96.67     930.78      30.51
 96.77    1018.20      31.91
 96.87    1111.13      33.33
 96.97    1110.00      33.32
 97.07    1220.00      34.93
 97.17    1316.12      36.28
 97.27    1369.00      37.00
 97.37    1391.90      37.31
 97.47    1451.00      38.09
 97.57    1431.00      37.83
 97.67    1437.94      37.92
 97.77    1455.00      38.14
 97.87    1310.23      36.20
 97.97    1334.25      36.53
 98.07    1268.68      35.62
 98.17    1189.16      34.48
 98.27    1090.00      33.02
 98.37     986.00      31.40
 98.47     992.00      31.50
 98.57     850.69      29.17
 98.67     824.13      28.71
 98.77     832.00      28.84
 98.87     760.00      27.57
 98.97     864.00      29.39
 99.07     816.00      28.57
 99.17     813.00      28.51
 99.27     908.00      30.13
 99.37     886.10      29.77
 99.47     952.00      30.85
 99.57    1036.46      32.19
 99.67    1174.89      34.28
 99.77    1353.86      36.79
 99.87    1479.00      38.46
 99.97    1479.00      38.46
100.07    1550.30      39.37
100.17    1769.00      42.06
100.27    1754.49      41.89
100.37    1883.00      43.39
100.47    1957.68      44.25
100.57    2051.00      45.29
100.67    2024.00      44.99
100.77    2166.00      46.54
100.87    2144.00      46.30
100.97    2085.91      45.67
101.07    2030.00      45.06
101.17    1905.00      43.65
101.27    1779.38      42.18
101.37    1728.00      41.57
101.47    1612.00      40.15
101.57    1513.11      38.90
101.67    1458.18      38.19
101.77    1448.00      38.05
101.87    1269.00      35.62
101.97    1169.00      34.19
102.07    1167.45      34.17
102.17    1183.00      34.39
102.27    1128.57      33.59
102.37    1088.00      32.98
102.47    1134.29      33.68
102.57    1112.00      33.35
102.67    1068.00      32.68
102.77    1008.15      31.75
102.87    1009.00      31.76
102.97     932.81      30.54
103.07     873.66      29.56
103.17     897.00      29.95
103.27     870.00      29.50
103.37     786.02      28.04
103.47     784.00      28.00
103.57     708.00      26.61
103.67     709.00      26.63
103.77     640.00      25.30
103.87     687.00      26.21
103.97     648.00      25.46
104.07     637.00      25.24
104.17     576.00      24.00
104.27     574.00      23.96
104.37     569.00      23.85
104.47     580.00      24.08
104.57     564.00      23.75
104.67     563.00      23.73
104.77     501.33      22.39
104.87     550.00      23.45
104.97     574.00      23.96
105.07     529.00      23.00
105.17     525.00      22.91
105.27     533.00      23.09
105.37     515.00      22.69
105.47     512.28      22.63
105.57     543.00      23.30
105.67     545.30      23.35
105.77     572.00      23.92
105.87     505.00      22.47
105.97     567.00      23.81
106.07     609.00      24.68
106.17     585.00      24.19
106.27     595.00      24.39
106.37     591.00      24.31
106.47     573.23      23.94
106.57     608.20      24.66
106.67     619.00      24.88
106.77     620.00      24.90
106.87     680.14      26.08
106.97     629.95      25.10
107.07     634.00      25.18
107.17     701.15      26.48
107.27     725.11      26.93
107.37     683.00      26.13
107.47     727.77      26.98
107.57     658.00      25.65
107.67     683.00      26.13
107.77     662.00      25.73
107.87     696.00      26.38
107.97     713.37      26.71
108.07     660.57      25.70
108.17     708.00      26.61
108.27     728.79      27.00
108.37     715.68      26.75
108.47     699.00      26.44
108.57     669.00      25.87
108.67     686.00      26.19
108.77     682.00      26.12
108.87     690.00      26.27
108.97     689.00      26.25
109.07     701.00      26.48
109.17     688.00      26.23
109.27     668.00      25.85
109.37     617.00      24.84
109.47     670.00      25.88
109.57     641.00      25.32
109.67     635.00      25.20
109.77     616.00      24.82
109.87     616.00      24.82
109.97     602.00      24.54
110.07     563.52      23.74
110.17     621.00      24.92
110.27     568.83      23.85
110.37     633.00      25.16
110.47     518.00      22.76
110.57     551.40      23.48
110.67     577.00      24.02
110.77     495.46      22.26
110.87     579.18      24.07
110.97     556.00      23.58
111.07     530.77      23.04
111.17     563.16      23.73
111.27     518.00      22.76
111.37     507.00      22.52
111.47     513.49      22.66
111.57     567.72      23.83
111.67     591.32      24.32
111.77     557.00      23.60
111.87     503.00      22.43
111.97     512.98      22.65
112.07     535.00      23.13
112.17     577.00      24.02
112.27     580.00      24.08
112.37     616.00      24.82
112.47     559.01      23.64
112.57     591.00      24.31
112.67     580.21      24.09
112.77     668.76      25.86
112.87     635.00      25.20
112.97     661.00      25.71
113.07     687.00      26.21
113.17     685.00      26.17
113.27     684.45      26.16
113.37     776.00      27.86
113.47     762.13      27.61
113.57     847.53      29.11
113.67     845.00      29.07
113.77     911.00      30.18
113.87     878.00      29.63
113.97     932.75      30.54
114.07    1066.58      32.66
114.17    1044.00      32.31
114.27    1153.00      33.96
114.37    1246.00      35.30
114.47    1364.78      36.94
114.57    1457.00      38.17
114.67    1508.29      38.84
114.77    1791.00      42.32
114.87    1818.00      42.64
114.97    2063.00      45.42
115.07    2334.61      48.32
115.17    2554.51      50.54
115.27    2871.81      53.59
115.37    3015.00      54.91
115.47    3358.00      57.95
115.57    3658.00      60.48
115.67    4112.31      64.13
115.77    4375.00      66.14
115.87    4913.26      70.09
115.97    5051.00      71.07
116.07    5732.35      75.71
116.17    6036.16      77.69
116.27    6264.00      79.15
116.37    6496.99      80.60
116.47    6764.00      82.24
116.57    6818.00      82.57
116.67    6933.00      83.26
116.77    6875.41      82.92
116.87    6838.00      82.69
116.97    6576.99      81.10
117.07    6318.92      79.49
117.17    6186.00      78.65
117.27    5841.39      76.43
117.37    5344.56      73.11
117.47    4960.81      70.43
117.57    4694.00      68.51
117.67    4262.00      65.28
117.77    3999.00      63.24
117.87    3633.00      60.27
117.97    3183.12      56.42
118.07    2944.00      54.26
118.17    2448.48      49.48
118.27    2307.00      48.03
118.37    2021.00      44.96
118.47    1818.40      42.64
118.57    1578.00      39.72
118.67    1349.84      36.74
118.77    1328.28      36.45
118.87    1206.59      34.74
118.97     996.75      31.57
119.07     983.00      31.35
119.17     844.00      29.05
119.27     800.00      28.28
119.37     786.00      28.04
119.47     694.28      26.35
119.57     687.00      26.21
119.67     685.00      26.17
119.77     662.00      25.73
119.87     630.00      25.10
119.97     575.00      23.98
120.07     595.05      24.39
120.17     604.13      24.58
120.27     611.15      24.72
120.37     622.65      24.95
120.47     597.66      24.45
120.57     536.84      23.17
120.67     583.00      24.15
120.77     554.00      23.54
120.87     522.00      22.85
120.97     534.00      23.11
121.07     627.00      25.04
121.17     540.59      23.25
121.27     548.84      23.43
121.37     573.00      23.94
121.47     567.00      23.81
121.57     562.54      23.72
121.67     601.00      24.52
121.77     582.00      24.12
121.87     582.00      24.12
121.97     555.22      23.56
122.07     606.00      24.62
122.17     654.77      25.59
122.27     624.67      24.99
122.37     596.00      24.41
122.47     641.00      25.32
122.57     652.12      25.54
122.67     666.00      25.81
122.77     594.00      24.37
122.87     635.00      25.20
122.97     667.00      25.83
123.07     614.94      24.80
123.17     681.00      26.10
123.27     678.00      26.04
123.37     609.96      24.70
123.47     631.00      25.12
123.57     650.38      25.50
123.67     635.00      25.20
123.77     589.41      24.28
123.87     659.00      25.67
123.97     641.90      25.34
124.07     599.00      24.47
124.17     561.75      23.70
124.27     641.00      25.32
124.37     597.00      24.43
124.47     584.27      24.17
124.57     601.00      24.52
124.67     562.48      23.72
124.77     622.94      24.96
124.87     580.00      24.08
124.97     545.00      23.35
