  9.97     571.00      23.90
 10.07     658.00      25.65
 10.17     563.00      23.73
 10.27     562.00      23.71
 10.37     563.00      23.73
 10.47     546.00      23.37
 10.57     585.45      24.20
 10.67     592.00      24.33
 10.77     576.00      24.00
 10.87     616.84      24.84
 10.97     555.54      23.57
 11.07     577.00      24.02
 11.17     564.00      23.75
 11.27     580.00      24.08
 11.37     603.00      24.56
 11.47     572.10      23.92
 11.57     643.00      25.36
 11.67     627.00      25.04
 11.77     592.40      24.34
 11.87     648.00      25.46
 11.97     644.89      25.39
 12.07     656.00      25.61
 12.17     677.80      26.03
 12.27     742.00      27.24
 12.37     656.00      25.61
 12.47     658.05      25.65
 12.57     573.00      23.94
 12.67     620.00      24.90
 12.77     588.00      24.25
 12.87     567.00      23.81
 12.97     554.00      23.54
 13.07     597.00      24.43
 13.17     587.00      24.23
 13.27     568.00      23.83
 13.37     607.79      24.65
 13.47     528.40      22.99
 13.57     555.00      23.56
 13.67     541.00      23.26
 13.77     540.00      23.24
 13.87     570.00      23.87
 13.97     547.78      23.40
 14.07     577.00      24.02
 14.17     553.54      23.53
 14.27     550.92      23.47
 14.37     549.00      23.43
 14.47     526.00      22.93
 14.57     583.00      24.15
 14.67     585.00      24.19
 14.77     544.00      23.32
 14.87     573.35      23.94
 14.97     568.00      23.83
 15.07     516.00      22.72
 15.17     568.00      23.83
 15.27     605.33      24.60
 15.37     610.96      24.72
 15.47     589.00      24.27
 15.57     560.03      23.66
 15.67     560.00      23.66
 15.77     524.97      22.91
 15.87     529.29      23.01
 15.97     584.74      24.18
 16.07     548.00      23.41
 16.17     524.30      22.90
 16.27     581.00      24.10
 16.37     522.72      22.86
 16.47     570.00      23.87
 16.57     582.00      24.12
 16.67     575.33      23.99
 16.77     628.00      25.06
 16.87     541.00      23.26
 16.97     553.45      23.53
 17.07     608.00      24.66
 17.17     547.00      23.39
 17.27     558.00      23.62
 17.37     546.00      23.37
 17.47     581.17      24.11
 17.57     503.00      22.43
 17.67     584.89      24.18
 17.77     535.00      23.13
 17.87     604.61      24.59
 17.97     517.00      22.74
 18.07     564.79      23.77
 18.17     558.00      23.62
 18.27     560.00      23.66
 18.37     581.00      24.10
 18.47     593.00      24.35
 18.57     531.00      23.04
 18.67     578.00      24.04
 18.77     529.00      23.00
 18.87     575.97      24.00
 18.97     559.00      23.64
 19.07     507.00      22.52
 19.17     581.00      24.10
 19.27     564.00      23.75
 19.37     532.00      23.07
 19.47     544.00      23.32
 19.57     589.00      24.27
 19.67     559.68      23.66
 19.77     557.00      23.60
 19.87     555.48      23.57
 19.97     541.00      23.26
 20.07     575.00      23.98
 20.17     565.00      23.77
 20.27     607.00      24.64
 20.37     533.00      23.09
 20.47     541.00      23.26
 20.57     547.00      23.39
 20.67     603.85      24.57
 20.77     572.00      23.92
 20.87     555.00      23.56
 20.97     519.00      22.78
 21.07     558.00      23.62
 21.17     551.00      23.47
 21.27     518.00      22.76
 21.37     554.66      23.55
 21.47     582.42      24.13
 21.57     532.37      23.07
 21.67     539.51      23.23
 21.77     550.96      23.47
 21.87     557.34      23.61
 21.97     551.58      23.49
 22.07     570.38      23.88
 22.17     525.00      22.91
 22.27     571.88      23.91
 22.37     584.00      24.17
 22.47     526.00      22.93
 22.57     574.00      23.96
 22.67     548.51      23.42
 22.77     556.00      23.58
 22.87     594.51      24.38
 22.97     544.00      23.32
 23.07     579.00      24.06
 23.17     526.00      22.93
 23.27     545.00      23.35
 23.37     588.00      24.25
 23.47     514.00      22.67
 23.57     530.00      23.02
 23.67     582.01      24.12
 23.77     562.00      23.71
 23.87     538.52      23.21
 23.97     514.23      22.68
 24.07     542.00      23.28
 24.17     580.12      24.09
 24.27     520.36      22.81
 24.37     560.57      23.68
 24.47     616.31      24.83
 24.57     560.64      23.68
 24.67     657.00      25.63
 24.77     643.00      25.36
 24.87     567.00      23.81
 24.97     580.00      24.08
 25.07     560.00      23.66
 25.17     547.00      23.39
 25.27     574.62      23.97
 25.37     573.00      23.94
 25.47     553.00      23.52
 25.57     557.00      23.60
 25.67     568.00      23.83
 25.77     563.00      23.73
 25.87     530.00      23.02
 25.97     585.80      24.20
 26.07     532.00      23.07
 26.17     526.37      22.94
 26.27     583.18      24.15
 26.37     576.06      24.00
 26.47     564.00      23.75
 26.57     496.35      22.28
 26.67     545.00      23.35
 26.77     534.43      23.12
 26.87     561.00      23.69
 26.97     521.00      22.83
 27.07     535.00      23.13
 27.17     565.00      23.77
 27.27     590.11      24.29
 27.37     579.00      24.06
 27.47     595.00      24.39
 27.57     577.02      24.02
 27.67     553.00      23.52
 27.77     582.00      24.12
 27.87     591.95      24.33
 27.97     755.00      27.48
 28.07     813.00      28.51
 28.17     901.00      30.02
 28.27     949.31      30.81
 28.37     854.85      29.24
 28.47     773.29      27.81
 28.57     739.00      27.18
 28.67     699.66      26.45
 28.77     687.08      26.21
 28.87     820.00      28.64
 28.97     808.00      28.43
 29.07     815.17      28.55
 29.17     762.92      27.62
 29.27     598.31      24.46
 29.37     612.62      24.75
 29.47     629.00      25.08
 29.57     583.00      24.15
 29.67     584.00      24.17
 29.77     542.00      23.28
 29.87     520.44      22.81
 29.97     583.84      24.16
 30.07     605.00      24.60
 30.17     575.73      23.99
 30.27     543.00      23.30
 30.37     590.00      24.29
 30.47     550.00      23.45
 30.57     550.00      23.45
 30.67     526.34      22.94
 30.77     536.64      23.17
 30.87     626.32      25.03
 30.97     647.00      25.44
 31.07     550.00      23.45
 31.17     572.00      23.92
 31.27     525.74      22.93
 31.37     550.00      23.45
 31.47     573.00      23.94
 31.57     535.00      23.13
 31.67     541.00      23.26
 31.77     517.84      22.76
 31.87     516.00      22.72
 31.97     513.00      22.65
 32.07     514.77      22.69
 32.17     584.00      24.17
 32.27     547.00      23.39
 32.37     577.00      24.02
 32.47     538.23      23.20
 32.57     527.00      22.96
 32.67     499.43      22.35
 32.77     559.00      23.64
 32.87     555.00      23.56
 32.97     497.96      22.31
 33.07     536.10      23.15
 33.17     520.00      22.80
 33.27     513.00      22.65
 33.37     513.00      22.65
 33.47     564.00      23.75
 33.57     627.00      25.04
 33.67     667.00      25.83
 33.77     792.00      28.14
 33.87     846.57      29.10
 33.97    1015.00      31.86
 34.07    1091.14      33.03
 34.17    1017.99      31.91
 34.27     884.00      29.73
 34.37     758.00      27.53
 34.47     678.05      26.04
 34.57     540.00      23.24
 34.67     529.00      23.00
 34.77     529.00      23.00
 34.87     569.25      23.86
 34.97     482.00      21.95
 35.07     503.00      22.43
 35.17     488.89      22.11
 35.27     529.00      23.00
 35.37     528.00      22.98
 35.47     460.00      21.45
 35.57     502.00      22.41
 35.67     495.17      22.25
 35.77     555.00      23.56
 35.87     559.57      23.66
 35.97     558.60      23.63
 36.07     496.00      22.27
 36.17     499.73      22.35
 36.27     510.00      22.58
 36.37     513.00      22.65
 36.47     518.33      22.77
 36.57     528.00      22.98
 36.67     510.00      22.58
 36.77     489.00      22.11
 36.87     523.85      22.89
 36.97     508.54      22.55
 37.07     537.00      23.17
 37.17     510.00      22.58
 37.27     492.00      22.18
 37.37     503.00      22.43
 37.47     488.00      22.09
 37.57     514.00      22.67
 37.67     535.88      23.15
 37.77     542.15      23.28
 37.87     514.00      22.67
 37.97     565.22      23.77
 38.07     491.00      22.16
 38.17     483.02      21.98
 38.27     554.72      23.55
 38.37     474.48      21.78
 38.47     499.00      22.34
 38.57     543.86      23.32
 38.67     502.71      22.42
 38.77     518.17      22.76
 38.87     507.00      22.52
 38.97     526.00      22.93
 39.07     535.07      23.13
 39.17     519.00      22.78
 39.27     508.00      22.54
 39.37     523.44      22.88
 39.47     525.09      22.91
 39.57     465.01      21.56
 39.67     510.00      22.58
 39.77     491.00      22.16
 39.87     501.00      22.38
 39.97     528.00      22.98
 40.07     484.83      22.02
 40.17     529.76      23.02
 40.27     515.41      22.70
 40.37     496.00      22.27
 40.47     553.20      23.52
 40.57     505.00      22.47
 40.67     501.84      22.40
 40.77     524.00      22.89
 40.87     520.74      22.82
 40.97     493.00      22.20
 41.07     488.00      22.09
 41.17     479.00      21.89
 41.27     466.00      21.59
 41.37     473.38      21.76
 41.47     475.93      21.82
 41.57     505.00      22.47
 41.67     507.00      22.52
 41.77     482.00      21.95
 41.87     545.43      23.35
 41.97     526.00      22.93
 42.07     557.11      23.60
 42.17     523.00      22.87
 42.27     530.00      23.02
 42.37     603.54      24.57
 42.47     544.00      23.32
 42.57     639.00      25.28
 42.67     661.67      25.72
 42.77     614.00      24.78
 42.87     557.00      23.60
 42.97     608.90      24.68
 43.07     558.00      23.62
 43.17     512.00      22.63
 43.27     514.00      22.67
 43.37     491.00      22.16
 43.47     477.00      21.84
 43.57     462.00      21.49
 43.67     527.00      22.96
 43.77     493.11      22.21
 43.87     472.00      21.73
 43.97     498.00      22.32
 44.07     515.00      22.69
 44.17     492.00      22.18
 44.27     527.00      22.96
 44.37     491.00      22.16
 44.47     525.18      22.92
 44.57     523.00      22.87
 44.67     494.00      22.23
 44.77     528.10      22.98
 44.87     511.00      22.61
 44.97     521.56      22.84
 45.07     537.00      23.17
 45.17     468.00      21.63
 45.27     508.00      22.54
 45.37     511.00      22.61
 45.47     520.98      22.83
 45.57     505.87      22.49
 45.67     468.00      21.63
 45.77     541.00      23.26
 45.87     548.00      23.41
 45.97     545.67      23.36
 46.07     516.00      22.72
 46.17     500.00      22.36
 46.27     539.00      23.22
 46.37     519.00      22.78
 46.47     496.00      22.27
 46.57     523.00      22.87
 46.67     531.00      23.04
 46.77     546.00      23.37
 46.87     553.19      23.52
 46.97     492.00      22.18
 47.07     504.00      22.45
 47.17     498.80      22.33
 47.27     533.00      23.09
 47.37     497.30      22.30
 47.47     565.00      23.77
 47.57     543.00      23.30
 47.67     552.00      23.49
 47.77     555.56      23.57
 47.87     607.00      24.64
 47.97     564.00      23.75
 48.07     596.14      24.42
 48.17     594.00      24.37
 48.27     569.00      23.85
 48.37     557.90      23.62
 48.47     514.80      22.69
 48.57     557.00      23.60
 48.67     533.58      23.10
 48.77     561.00      23.69
 48.87     525.00      22.91
 48.97     584.00      24.17
 49.07     544.00      23.32
 49.17     541.00      23.26
 49.27     573.00      23.94
 49.37     607.00      24.64
 49.47     615.32      24.81
 49.57     733.00      27.07
 49.67     920.00      30.33
 49.77    1157.00      34.01
 49.87    1348.10      36.72
 49.97    1768.44      42.05
 50.07    2138.21      46.24
 50.17    2411.00      49.10
 50.27    2504.55      50.05
 50.37    2158.00      46.45
 50.47    1902.00      43.61
 50.57    1422.64      37.72
 50.67    1082.76      32.91
 50.77     826.00      28.74
 50.87     778.58      27.90
 50.97     695.00      26.36
 51.07     702.00      26.50
 51.17     634.00      25.18
 51.27     608.00      24.66
 51.37     563.00      23.73
 51.47     570.00      23.87
 51.57     593.54      24.36
 51.67     560.00      23.66
 51.77     564.34      23.76
 51.87     514.08      22.67
 51.97     527.00      22.96
 52.07     526.35      22.94
 52.17     547.46      23.40
 52.27     552.00      23.49
 52.37     496.24      22.28
 52.47     539.00      23.22
 52.57     569.00      23.85
 52.67     547.00      23.39
 52.77     550.60      23.46
 52.87     689.91      26.27
 52.97     709.29      26.63
 53.07     798.00      28.25
 53.17     946.00      30.76
 53.27    1065.00      32.63
 53.37    1136.00      33.70
 53.47    1198.23      34.62
 53.57    1169.00      34.19
 53.67    1060.81      32.57
 53.77     982.00      31.34
 53.87     869.00      29.48
 53.97     755.00      27.48
 54.07     635.00      25.20
 54.17     619.00      24.88
 54.27     621.33      24.93
 54.37     589.00      24.27
 54.47     546.00      23.37
 54.57     588.51      24.26
 54.67     546.00      23.37
 54.77     535.41      23.14
 54.87     563.00      23.73
 54.97     585.84      24.20
 55.07     559.99      23.66
 55.17     560.00      23.66
 55.27     568.00      23.83
 55.37     561.00      23.69
 55.47     568.68      23.85
 55.57     542.39      23.29
 55.67     592.00      24.33
 55.77     593.00      24.35
 55.87     590.00      24.29
 55.97     675.81      26.00
 56.07     674.00      25.96
 56.17     803.87      28.35
 56.27     922.97      30.38
 56.37    1216.00      34.87
 56.47    1489.04      38.59
 56.57    1867.00      43.21
 56.67    2169.00      46.57
 56.77    2447.00      49.47
 56.87    2595.32      50.94
 56.97    2547.00      50.47
 57.07    2340.00      48.37
 57.17    2057.01      45.35
 57.27    1735.90      41.66
 57.37    1296.00      36.00
 57.47    1048.00      32.37
 57.57     870.00      29.50
 57.67     770.62      27.76
 57.77     759.00      27.55
 57.87     720.00      26.83
 57.97     696.13      26.38
 58.07     671.00      25.90
 58.17     670.86      25.90
 58.27     716.00      26.76
 58.37     799.00      28.27
 58.47     929.14      30.48
 58.57    1066.00      32.65
 58.67    1077.00      32.82
 58.77    1225.00      35.00
 58.87    1290.00      35.92
 58.97    1378.00      37.12
 59.07    1436.00      37.89
 59.17    1418.00      37.66
 59.27    1373.00      37.05
 59.37    1279.51      35.77
 59.47    1113.59      33.37
 59.57    1138.12      33.74
 59.67    1151.00      33.93
 59.77    1112.76      33.36
 59.87    1223.52      34.98
 59.97    1307.83      36.16
 60.07    1457.46      38.18
 60.17    1578.24      39.73
 60.27    1551.06      39.38
 60.37    1505.06      38.80
 60.47    1359.00      36.86
 60.57    1239.94      35.21
 60.67    1090.00      33.02
 60.77     949.00      30.81
 60.87     783.00      27.98
 60.97     672.88      25.94
 61.07     668.00      25.85
 61.17     611.98      24.74
 61.27     648.80      25.47
 61.37     681.63      26.11
 61.47     742.00      27.24
 61.57     775.00      27.84
 61.67     830.00      28.81
 61.77     956.61      30.93
 61.87    1122.04      33.50
 61.97    1254.00      35.41
 62.07    1357.00      36.84
 62.17    1489.06      38.59
 62.27    1479.28      38.46
 62.37    1345.10      36.68
 62.47    1219.00      34.91
 62.57    1021.00      31.95
 62.67     923.00      30.38
 62.77     786.00      28.04
 62.87     769.03      27.73
 62.97     685.66      26.19
 63.07     604.00      24.58
 63.17     635.96      25.22
 63.27     546.05      23.37
 63.37     560.00      23.66
 63.47     519.14      22.78
 63.57     617.94      24.86
 63.67     585.00      24.19
 63.77     647.39      25.44
 63.87     682.00      26.12
 63.97     643.55      25.37
 64.07     757.00      27.51
 64.17     793.00      28.16
 64.27     791.16      28.13
 64.37     911.00      30.18
 64.47     962.00      31.02
 64.57     987.00      31.42
 64.67     999.00      31.61
 64.77    1062.46      32.60
 64.87     992.00      31.50
 64.97     939.93      30.66
 65.07     885.41      29.76
 65.17     814.15      28.53
 65.27     721.00      26.85
 65.37     728.92      27.00
 65.47     683.00      26.13
 65.57     619.00      24.88
 65.67     599.25      24.48
 65.77     587.49      24.24
 65.87     584.31      24.17
 65.97     575.00      23.98
 66.07     562.00      23.71
 66.17     571.65      23.91
 66.27     603.68      24.57
 66.37     592.00      24.33
 66.47     512.00      22.63
 66.57     548.00      23.41
 66.67     578.00      24.04
 66.77     591.08      24.31
 66.87     592.74      24.35
 66.97     661.16      25.71
 67.07     697.82      26.42
 67.17     668.81      25.86
 67.27     801.00      28.30
 67.37     900.76      30.01
 67.47    1157.10      34.02
 67.57    1272.06      35.67
 67.67    1569.00      39.61
 67.77    1837.01      42.86
 67.87    2066.00      45.45
 67.97    2357.00      48.55
 68.07    2443.00      49.43
 68.17    2385.41      48.84
 68.27    2244.00      47.37
 68.37    2094.32      45.76
 68.47    1793.00      42.34
 68.57    1555.00      39.43
 68.67    1310.00      36.19
 68.77    1040.00      32.25
 68.87     956.04      30.92
 68.97     816.67      28.58
 69.07     716.73      26.77
 69.17     680.00      26.08
 69.27     660.51      25.70
 69.37     553.00      23.52
 69.47     563.84      23.75
 69.57     577.00      24.02
 69.67     593.28      24.36
 69.77     541.00      23.26
 69.87     552.00      23.49
 69.97     515.00      22.69
 70.07     572.00      23.92
 70.17     571.66      23.91
 70.27     558.00      23.62
 70.37     582.78      24.14
 70.47     545.45      23.35
 70.57     583.00      24.15
 70.67     628.00      25.06
 70.77     613.00      24.76
 70.87     593.00      24.35
 70.97     598.59      24.47
 71.07     710.00      26.65
 71.17     774.00      27.82
 71.27     879.00      29.65
 71.37    1011.77      31.81
 71.47    1103.00      33.21
 71.57    1278.00      35.75
 71.67    1425.20      37.75
 71.77    1565.30      39.56
 71.87    1892.00      43.50
 71.97    1994.00      44.65
 72.07    1847.88      42.99
 72.17    1897.00      43.55
 72.27    1795.55      42.37
 72.37    1626.00      40.32
 72.47    1476.00      38.42
 72.57    1291.83      35.94
 72.67    1060.00      32.56
 72.77     980.76      31.32
 72.87     847.00      29.10
 72.97     812.47      28.50
 73.07     741.00      27.22
 73.17     703.00      26.51
 73.27     663.00      25.75
 73.37     600.00      24.49
 73.47     624.00      24.98
 73.57     613.00      24.76
 73.67     663.15      25.75
 73.77     550.00      23.45
 73.87     561.31      23.69
 73.97     585.00      24.19
 74.07     597.00      24.43
 74.17     613.00      24.76
 74.27     543.43      23.31
 74.37     590.00      24.29
 74.47     615.00      24.80
 74.57     527.89      22.98
 74.67     644.00      25.38
 74.77     573.00      23.94
 74.87     602.00      24.54
 74.97     638.00      25.26
 75.07     603.00      24.56
 75.17     599.37      24.48
 75.27     535.00      23.13
 75.37     593.00      24.35
 75.47     529.80      23.02
 75.57     565.83      23.79
 75.67     540.29      23.24
 75.77     541.05      23.26
 75.87     615.17      24.80
 75.97     589.00      24.27
 76.07     631.00      25.12
 76.17     609.87      24.70
 76.27     704.00      26.53
 76.37     705.89      26.57
 76.47     677.00      26.02
 76.57     708.00      26.61
 76.67     661.00      25.71
 76.77     694.00      26.34
 76.87     690.00      26.27
 76.97     625.26      25.01
 77.07     632.00      25.14
 77.17     634.05      25.18
 77.27     523.00      22.87
 77.37     567.00      23.81
 77.47     568.00      23.83
 77.57     528.00      22.98
 77.67     512.00      22.63
 77.77     507.00      22.52
 77.87     530.90      23.04
 77.97     504.00      22.45
 78.07     528.91      23.00
 78.17     497.31      22.30
 78.27     499.55      22.35
 78.37     508.00      22.54
 78.47     514.00      22.67
 78.57     521.31      22.83
 78.67     527.00      22.96
 78.77     531.00      23.04
 78.87     530.00      23.02
 78.97     552.78      23.51
 79.07     543.00      23.30
 79.17     497.07      22.30
 79.27     495.45      22.26
 79.37     529.00      23.00
 79.47     568.15      23.84
 79.57     539.00      23.22
 79.67     536.00      23.15
 79.77     537.00      23.17
 79.87     511.50      22.62
 79.97     554.00      23.54
 80.07     516.00      22.72
 80.17     555.00      23.56
 80.27     547.00      23.39
 80.37     593.00      24.35
 80.47     583.00      24.15
 80.57     660.50      25.70
 80.67     680.00      26.08
 80.77     648.00      25.46
 80.87     695.67      26.38
 80.97     657.00      25.63
 81.07     747.17      27.33
 81.17     709.46      26.64
 81.27     801.00      28.30
 81.37     688.41      26.24
 81.47     729.00      27.00
 81.57     744.00      27.28
 81.67     697.72      26.41
 81.77     692.32      26.31
 81.87     700.00      26.46
 81.97     683.00      26.13
 82.07     701.25      26.48
 82.17     613.08      24.76
 82.27     628.00      25.06
 82.37     616.99      24.84
 82.47     564.44      23.76
 82.57     569.00      23.85
 82.67     566.00      23.79
 82.77     550.50      23.46
 82.87     562.58      23.72
 82.97     561.76      23.70
 83.07     586.00      24.21
 83.17     594.89      24.39
 83.27     576.22      24.00
 83.37     566.95      23.81
 83.47     569.00      23.85
 83.57     560.00      23.66
 83.67     607.00      24.64
 83.77     546.00      23.37
 83.87     585.00      24.19
 83.97     521.00      22.83
 84.07     572.00      23.92
 84.17     524.00      22.89
 84.27     574.00      23.96
 84.37     549.00      23.43
 84.47     515.74      22.71
 84.57     590.00      24.29
 84.67     564.00      23.75
 84.77     572.00      23.92
 84.87     590.24      24.29
 84.97     579.00      24.06
 85.07     539.00      23.22
 85.17     501.12      22.39
 85.27     543.00      23.30
 85.37     506.00      22.49
 85.47     587.00      24.23
 85.57     537.52      23.18
 85.67     567.00      23.81
 85.77     510.00      22.58
 85.87     492.38      22.19
 85.97     519.07      22.78
 86.07     508.00      22.54
 86.17     540.67      23.25
 86.27     553.00      23.52
 86.37     530.77      23.04
 86.47     536.16      23.16
 86.57     572.19      23.92
 86.67     595.71      24.41
 86.77     590.00      24.29
 86.87     613.00      24.76
 86.97     563.00      23.73
 87.07     607.00      24.64
 87.17     634.97      25.20
 87.27     655.00      25.59
 87.37     640.00      25.30
 87.47     600.76      24.51
 87.57     594.42      24.38
 87.67     610.05      24.70
 87.77     653.00      25.55
 87.87     621.00      24.92
 87.97     558.96      23.64
 88.07     562.00      23.71
 88.17     632.30      25.15
 88.27     581.00      24.10
 88.37     558.19      23.63
 88.47     592.00      24.33
 88.57     575.00      23.98
 88.67     577.09      24.02
 88.77     599.13      24.48
 88.87     612.00      24.74
 88.97     604.00      24.58
 89.07     636.62      25.23
 89.17     591.04      24.31
 89.27     623.12      24.96
 89.37     642.55      25.35
 89.47     641.00      25.32
 89.57     562.00      23.71
 89.67     603.00      24.56
 89.77     565.00      23.77
 89.87     556.30      23.59
 89.97     553.00      23.52
 90.07     597.34      24.44
 90.17     538.68      23.21
 90.27     554.00      23.54
 90.37     500.00      22.36
 90.47     505.00      22.47
 90.57     528.00      22.98
 90.67     552.00      23.49
 90.77     542.00      23.28
 90.87     514.82      22.69
 90.97     530.00      23.02
 91.07     539.05      23.22
 91.17     572.00      23.92
 91.27     535.99      23.15
 91.37     483.00      21.98
 91.47     492.00      22.18
 91.57     538.00      23.19
 91.67     539.00      23.22
 91.77     529.00      23.00
 91.87     591.85      24.33
 91.97     562.00      23.71
 92.07     582.65      24.14
 92.17     570.00      23.87
 92.27     608.00      24.66
 92.37     609.56      24.69
 92.47     665.00      25.79
 92.57     643.53      25.37
 92.67     709.00      26.63
 92.77     688.00      26.23
 92.87     704.00      26.53
 92.97     691.00      26.29
 93.07     736.86      27.15
 93.17     802.64      28.33
 93.27     756.56      27.51
 93.37     799.00      28.27
 93.47     734.10      27.09
 93.57     780.34      27.93
 93.67     807.00      28.41
 93.77     879.00      29.65
 93.87     885.00      29.75
 93.97     876.20      29.60
 94.07     844.00      29.05
 94.17     876.00      29.60
 94.27     829.00      28.79
 94.37     853.00      29.21
 94.47     920.89      30.35
 94.57     897.00      29.95
 94.67     925.00      30.41
 94.77     839.25      28.97
 94.87     945.00      30.74
 94.97     913.04      30.22
 95.07     906.00      30.10
 95.17     895.00      29.92
 95.27     863.42      29.38
 95.37     834.00      28.88
 95.47     785.00      28.02
 95.57     744.61      27.29
 95.67     735.51      27.12
 95.77     715.00      26.74
 95.87     718.00      26.80
 95.97     685.00      26.17
 96.07     666.00      25.81
 96.17     766.00      27.68
 96.27     736.00      27.13
 96.37     778.46      27.90
 96.47     790.74      28.12
 96.57     884.00      29.73
 96.67     916.00      30.27
 96.77    1064.00      32.62
 96.87    1053.00      32.45
 96.97    1104.00      33.23
 97.07    1259.00      35.48
 97.17    1338.00      36.58
 97.27    1404.00      37.47
 97.37    1343.74      36.66
 97.47    1372.00      37.04
 97.57    1360.07      36.88
 97.67    1457.00      38.17
 97.77    1415.05      37.62
 97.87    1299.20      36.04
 97.97    1305.00      36.12
 98.07    1225.00      35.00
 98.17    1120.00      33.47
 98.27    1056.00      32.50
 98.37    1070.00      32.71
 98.47    1003.00      31.67
 98.57     973.07      31.19
 98.67     800.00      28.28
 98.77     805.18      28.38
 98.87     816.76      28.58
 98.97     835.00      28.90
 99.07     848.00      29.12
 99.17     857.00      29.27
 99.27     958.00      30.95
 99.37     991.00      31.48
 99.47    1030.00      32.09
 99.57    1156.00      34.00
 99.67    1208.88      34.77
 99.77    1303.00      36.10
 99.87    1437.00      37.91
 99.97    1518.00      38.96
100.07    1700.00      41.23
100.17    1688.52      41.09
100.27    1906.00      43.66
100.37    1943.00      44.08
100.47    1984.00      44.54
100.57    2044.00      45.21
100.67    2085.00      45.66
100.77    1985.57      44.56
100.87    2090.00      45.72
100.97    1967.00      44.35
101.07    1831.86      42.80
101.17    1866.28      43.20
101.27    1707.91      41.33
101.37    1615.00      40.19
101.47    1566.00      39.57
101.57    1567.00      39.59
101.67    1499.90      38.73
101.77    1316.00      36.28
101.87    1276.00      35.72
101.97    1179.20      34.34
102.07    1225.00      35.00
102.17    1230.00      35.07
102.27    1120.10      33.47
102.37    1107.00      33.27
102.47    1094.00      33.08
102.57    1041.00      32.26
102.67    1135.00      33.69
102.77    1014.06      31.84
102.87    1064.85      32.63
102.97     968.00      31.11
103.07     924.00      30.40
103.17     937.49      30.62
103.27     875.43      29.59
103.37     795.56      28.21
103.47     762.00      27.60
103.57     752.00      27.42
103.67     723.97      26.91
103.77     693.00      26.32
103.87     665.00      25.79
103.97     615.03      24.80
104.07     627.00      25.04
104.17     586.00      24.21
104.27     599.00      24.47
104.37     553.00      23.52
104.47     559.71      23.66
104.57     546.00      23.37
104.67     510.56      22.60
104.77     561.00      23.69
104.87     522.03      22.85
104.97     575.00      23.98
105.07     498.37      22.32
105.17     532.00      23.07
105.27     564.00      23.75
105.37     583.00      24.15
105.47     536.00      23.15
105.57     529.00      23.00
105.67     578.00      24.04
105.77     582.00      24.12
105.87     569.00      23.85
105.97     578.55      24.05
106.07     614.59      24.79
106.17     640.00      25.30
106.27     627.00      25.04
106.37     612.00      24.74
106.47     632.21      25.14
106.57     646.73      25.43
106.67     641.00      25.32
106.77     673.00      25.94
106.87     671.00      25.90
106.97     638.00      25.26
107.07     655.00      25.59
107.17     688.00      26.23
107.27     711.98      26.68
107.37     698.00      26.42
107.47     666.00      25.81
107.57     718.03      26.80
107.67     682.88      26.13
107.77     699.00      26.44
107.87     670.67      25.90
107.97     693.00      26.32
108.07     693.00      26.32
108.17     689.00      26.25
108.27     686.00      26.19
108.37     672.00      25.92
108.47     656.38      25.62
108.57     652.00      25.53
108.67     663.00      25.75
108.77     729.17      27.00
108.87     676.00      26.00
108.97     681.00      26.10
109.07     703.99      26.53
109.17     707.00      26.59
109.27     675.45      25.99
109.37     630.77      25.12
109.47     647.00      25.44
109.57     675.00      25.98
109.67     660.00      25.69
109.77     644.04      25.38
109.87     623.00      24.96
109.97     548.57      23.42
110.07     544.23      23.33
110.17     594.27      24.38
110.27     605.00      24.60
110.37     548.20      23.41
110.47     583.00      24.15
110.57     582.81      24.14
110.67     518.09      22.76
110.77     528.00      22.98
110.87     555.70      23.57
110.97     582.00      24.12
111.07     570.00      23.87
111.17     559.00      23.64
111.27     551.72      23.49
111.37     561.00      23.69
111.47     547.00      23.39
111.57     517.00      22.74
111.67     586.00      24.21
111.77     554.91      23.56
111.87     583.45      24.15
111.97     533.63      23.10
112.07     621.48      24.93
112.17     556.00      23.58
112.27     601.00      24.52
112.37     586.00      24.21
112.47     597.06      24.43
112.57     554.00      23.54
112.67     628.00      25.06
112.77     643.00      25.36
112.87     620.00      24.90
112.97     639.00      25.28
113.07     678.80      26.05
113.17     656.00      25.61
113.27     678.00      26.04
113.37     751.46      27.41
113.47     663.00      25.75
113.57     768.53      27.72
113.67     728.00      26.98
113.77     818.00      28.60
113.87     823.00      28.69
113.97     949.44      30.81
114.07     938.00      30.63
114.17     977.40      31.26
114.27    1013.00      31.83
114.37    1103.00      33.21
114.47    1296.00      36.00
114.57    1399.58      37.41
114.67    1543.00      39.28
114.77    1670.00      40.87
114.87    1869.00      43.23
114.97    2065.00      45.44
115.07    2284.64      47.80
115.17    2376.59      48.75
115.27    3015.00      54.91
115.37    3254.00      57.04
115.47    3537.00      59.47
115.57    3821.61      61.82
115.67    4203.00      64.83
115.77    4613.00      67.92
115.87    4896.00      69.97
115.97    5372.00      73.29
116.07    5716.00      75.60
116.17    5849.14      76.48
116.27    6353.00      79.71
116.37    6563.00      81.01
116.47    6489.43      80.56
116.57    6718.00      81.96
116.67    6882.00      82.96
116.77    6833.00      82.66
116.87    6771.00      82.29
116.97    6398.00      79.99
117.07    6180.16      78.61
117.17    5996.00      77.43
117.27    5357.00      73.19
117.37    5190.00      72.04
117.47    4935.60      70.25
117.57    4738.89      68.84
117.67    4262.18      65.29
117.77    3799.00      61.64
117.87    3474.57      58.95
117.97    3224.00      56.78
118.07    2797.81      52.89
118.17    2483.00      49.83
118.27    2276.00      47.71
118.37    1860.00      43.13
118.47    1722.00      41.50
118.57    1667.46      40.83
118.67    1403.00      37.46
118.77    1226.00      35.01
118.87    1143.00      33.81
118.97     978.00      31.27
119.07     955.00      30.90
119.17     866.83      29.44
119.27     820.00      28.64
119.37     848.40      29.13
119.47     726.00      26.94
119.57     689.00      26.25
119.67     672.82      25.94
119.77     636.00      25.22
119.87     647.00      25.44
119.97     616.12      24.82
120.07     670.91      25.90
120.17     627.00      25.04
120.27     605.00      24.60
120.37     573.00      23.94
120.47     566.00      23.79
120.57     602.78      24.55
120.67     568.00      23.83
120.77     544.15      23.33
120.87     552.48      23.50
120.97     555.00      23.56
121.07     593.00      24.35
121.17     589.00      24.27
121.27     572.32      23.92
121.37     558.95      23.64
121.47     597.00      24.43
121.57     599.00      24.47
121.67     613.09      24.76
121.77     604.00      24.58
121.87     601.27      24.52
121.97     620.00      24.90
122.07     610.00      24.70
122.17     635.00      25.20
122.27     652.00      25.53
122.37     648.00      25.46
122.47     638.84      25.28
122.57     601.00      24.52
122.67     670.62      25.90
122.77     633.00      25.16
122.87     607.04      24.64
122.97     670.04      25.89
123.07     604.66      24.59
123.17     626.00      25.02
123.27     626.00      25.02
123.37     614.64      24.79
123.47     676.07      26.00
123.57     623.00      24.96
123.67     590.38      24.30
123.77     616.79      24.84
123.87     604.00      24.58
123.97     656.00      25.61
124.07     611.00      24.72
124.17     581.47      24.11
124.27     631.00      25.12
124.37     660.00      25.69
124.47     607.00      24.64
124.57     589.00      24.27
124.67     625.00      25.00
124.77     608.00      24.66
124.87     623.37      24.97
124.97     607.00      24.64
