  9.97     547.00      23.39
 10.07     605.00      24.60
 10.17     612.00      24.74
 10.27     568.54      23.84
 10.37     592.00      24.33
 10.47     619.00      24.88
 10.57     613.41      24.77
 10.67     594.00      24.37
 10.77     574.26      23.96
 10.87     611.00      24.72
 10.97     598.17      24.46
 11.07     575.81      24.00
 11.17     585.00      24.19
 11.27     538.33      23.20
 11.37     598.00      24.45
 11.47     608.00      24.66
 11.57     534.84      23.13
 11.67     626.00      25.02
 11.77     586.00      24.21
 11.87     621.37      24.93
 11.97     673.00      25.94
 12.07     730.00      27.02
 12.17     722.58      26.88
 12.27     629.00      25.08
 12.37     591.00      24.31
 12.47     639.00      25.28
 12.57     607.96      24.66
 12.67     587.00      24.23
 12.77     594.00      24.37
 12.87     600.00      24.49
 12.97     560.00      23.66
 13.07     552.00      23.49
 13.17     560.00      23.66
 13.27     564.00      23.75
 13.37     559.00      23.64
 13.47     557.53      23.61
 13.57     519.00      22.78
 13.67     576.00      24.00
 13.77     548.00      23.41
 13.87     565.00      23.77
 13.97     578.00      24.04
 14.07     572.00      23.92
 14.17     555.91      23.58
 14.27     578.64      24.05
 14.37     615.79      24.82
 14.47     559.74      23.66
 14.57     552.00      23.49
 14.67     566.32      23.80
 14.77     593.00      24.35
 14.87     618.00      24.86
 14.97     609.74      24.69
 15.07     549.00      23.43
 15.17     613.50      24.77
 15.27     587.66      24.24
 15.37     550.00      23.45
 15.47     550.00      23.45
 15.57     554.00      23.54
 15.67     555.00      23.56
 15.77     580.00      24.08
 15.87     572.00      23.92
 15.97     566.00      23.79
 16.07     605.24      24.60
 16.17     607.00      24.64
 16.27     590.21      24.29
 16.37     597.00      24.43
 16.47     541.00      23.26
 16.57     595.88      24.41
 16.67     524.70      22.91
 16.77     587.00      24.23
 16.87     543.60      23.32
 16.97     549.00      23.43
 17.07     532.17      23.07
 17.17     553.00      23.52
 17.27     561.00      23.69
 17.37     528.00      22.98
 17.47     534.00      23.11
 17.57     566.95      23.81
 17.67     563.00      23.73
 17.77     587.87      24.25
 17.87     522.98      22.87
 17.97     565.00      23.77
 18.07     601.75      24.53
 18.17     525.00      22.91
 18.27     536.00      23.15
 18.37     525.00      22.91
 18.47     599.00      24.47
 18.57     556.82      23.60
 18.67     551.00      23.47
 18.77     530.00      23.02
 18.87     542.00      23.28
 18.97     586.25      24.21
 19.07     539.00      23.22
 19.17     558.00      23.62
 19.27     562.00      23.71
 19.37     546.59      23.38
 19.47     543.00      23.30
 19.57     568.00      23.83
 19.67     576.00      24.00
 19.77     548.26      23.41
 19.87     547.00      23.39
 19.97     545.00      23.35
 20.07     534.00      23.11
 20.17     551.00      23.47
 20.27     538.00      23.19
 20.37     534.62      23.12
 20.47     547.00      23.39
 20.57     579.00      24.06
 20.67     592.28      24.34
 20.77     522.00      22.85
 20.87     551.00      23.47
 20.97     541.89      23.28
 21.07     541.38      23.27
 21.17     542.89      23.30
 21.27     527.00      22.96
 21.37     524.00      22.89
 21.47     549.00      23.43
 21.57     564.00      23.75
 21.67     534.00      23.11
 21.77     530.09      23.02
 21.87     570.00      23.87
 21.97     565.00      23.77
 22.07     515.44      22.70
 22.17     553.00      23.52
 22.27     513.45      22.66
 22.37     573.66      23.95
 22.47     576.08      24.00
 22.57     582.00      24.12
 22.67     510.34      22.59
 22.77     538.00      23.19
 22.87     549.00      23.43
 22.97     512.68      22.64
 23.07     516.00      22.72
 23.17     599.00      24.47
 23.27     564.00      23.75
 23.37     518.00      22.76
 23.47     590.72      24.30
 23.57     548.00      23.41
 23.67     534.00      23.11
 23.77     548.00      23.41
 23.87     514.27      22.68
 23.97     547.20      23.39
 24.07     593.13      24.35
 24.17     545.00      23.35
 24.27     537.00      23.17
 24.37     609.00      24.68
 24.47     595.00      24.39
 24.57     574.00      23.96
 24.67     577.00      24.02
 24.77     662.83      25.75
 24.87     599.00      24.47
 24.97     605.52      24.61
 25.07     556.66      23.59
 25.17     588.00      24.25
 25.27     512.56      22.64
 25.37     550.00      23.45
 25.47     545.23      23.35
 25.57     571.00      23.90
 25.67     527.00      22.96
 25.77     551.00      23.47
 25.87     569.00      23.85
 25.97     634.00      25.18
 26.07     543.00      23.30
 26.17     538.27      23.20
 26.27     551.25      23.48
 26.37     510.00      22.58
 26.47     536.00      23.15
 26.57     556.00      23.58
 26.67     543.00      23.30
 26.77     544.04      23.32
 26.87     533.00      23.09
 26.97     583.55      24.16
 27.07     514.01      22.67
 27.17     551.00      23.47
 27.27     618.00      24.86
 27.37     581.00      24.10
 27.47     589.00      24.27
 27.57     504.09      22.45
 27.67     518.00      22.76
 27.77     602.00      24.54
 27.87     614.94      24.80
 27.97     666.00      25.81
 28.07     777.23      27.88
 28.17     877.95      29.63
 28.27     975.52      31.23
 28.37     857.09      29.28
 28.47     804.69      28.37
 28.57     659.00      25.67
 28.67     661.37      25.72
 28.77     754.00      27.46
 28.87     816.00      28.57
 28.97     809.00      28.44
 29.07     825.62      28.73
 29.17     678.00      26.04
 29.27     679.94      26.08
 29.37     643.25      25.36
 29.47     571.00      23.90
 29.57     569.88      23.87
 29.67     593.00      24.35
 29.77     603.00      24.56
 29.87     601.00      24.52
 29.97     569.00      23.85
 30.07     513.46      22.66
 30.17     578.00      24.04
 30.27     525.88      22.93
 30.37     575.59      23.99
 30.47     534.97      23.13
 30.57     566.00      23.79
 30.67     558.06      23.62
 30.77     597.00      24.43
 30.87     586.00      24.21
 30.97     659.00      25.67
 31.07     560.00      23.66
 31.17     560.00      23.66
 31.27     553.00      23.52
 31.37     594.00      24.37
 31.47     527.00      22.96
 31.57     522.75      22.86
 31.67     510.00      22.58
 31.77     568.00      23.83
 31.87     542.00      23.28
 31.97     545.00      23.35
 32.07     525.89      22.93
 32.17     528.71      22.99
 32.27     550.00      23.45
 32.37     548.27      23.42
 32.47     582.00      24.12
 32.57     570.91      23.89
 32.67     512.00      22.63
 32.77     504.43      22.46
 32.87     537.00      23.17
 32.97     536.00      23.15
 33.07     550.00      23.45
 33.17     516.24      22.72
 33.27     530.00      23.02
 33.37     574.00      23.96
 33.47     514.81      22.69
 33.57     666.00      25.81
 33.67     643.00      25.36
 33.77     800.00      28.28
 33.87     881.00      29.68
 33.97     976.00      31.24
 34.07    1059.00      32.54
 34.17    1063.00      32.60
 34.27     898.00      29.97
 34.37     703.03      26.51
 34.47     571.00      23.90
 34.57     571.00      23.90
 34.67     584.20      24.17
 34.77     543.30      23.31
 34.87     569.00      23.85
 34.97     518.00      22.76
 35.07     528.00      22.98
 35.17     512.00      22.63
 35.27     565.26      23.78
 35.37     509.00      22.56
 35.47     542.37      23.29
 35.57     509.87      22.58
 35.67     537.78      23.19
 35.77     502.52      22.42
 35.87     528.11      22.98
 35.97     473.06      21.75
 36.07     529.91      23.02
 36.17     507.00      22.52
 36.27     573.00      23.94
 36.37     520.00      22.80
 36.47     551.98      23.49
 36.57     491.00      22.16
 36.67     537.85      23.19
 36.77     548.00      23.41
 36.87     491.77      22.18
 36.97     474.24      21.78
 37.07     499.16      22.34
 37.17     511.00      22.61
 37.27     528.00      22.98
 37.37     516.17      22.72
 37.47     543.00      23.30
 37.57     520.00      22.80
 37.67     518.00      22.76
 37.77     544.06      23.33
 37.87     503.00      22.43
 37.97     528.00      22.98
 38.07     505.21      22.48
 38.17     492.45      22.19
 38.27     505.95      22.49
 38.37     536.73      23.17
 38.47     463.00      21.52
 38.57     503.00      22.43
 38.67     463.00      21.52
 38.77     502.97      22.43
 38.87     501.00      22.38
 38.97     492.00      22.18
 39.07     470.70      21.70
 39.17     499.00      22.34
 39.27     498.00      22.32
 39.37     492.00      22.18
 39.47     467.00      21.61
 39.57     512.51      22.64
 39.67     501.18      22.39
 39.77     507.00      22.52
 39.87     499.00      22.34
 39.97     530.79      23.04
 40.07     463.00      21.52
 40.17     515.00      22.69
 40.27     518.45      22.77
 40.37     528.00      22.98
 40.47     525.63      22.93
 40.57     518.00      22.76
 40.67     483.00      21.98
 40.77     504.87      22.47
 40.87     482.00      21.95
 40.97     520.00      22.80
 41.07     494.00      22.23
 41.17     484.00      22.00
 41.27     457.00      21.38
 41.37     466.00      21.59
 41.47     517.00      22.74
 41.57     486.00      22.05
 41.67     510.00      22.58
 41.77     491.00      22.16
 41.87     485.00      22.02
 41.97     511.00      22.61
 42.07     522.00      22.85
 42.17     525.00      22.91
 42.27     566.00      23.79
 42.37     553.62      23.53
 42.47     625.27      25.01
 42.57     571.43      23.90
 42.67     600.00      24.49
 42.77     577.34      24.03
 42.87     593.00      24.35
 42.97     564.00      23.75
 43.07     563.00      23.73
 43.17     521.58      22.84
 43.27     498.00      22.32
 43.37     517.20      22.74
 43.47     466.00      21.59
 43.57     530.93      23.04
 43.67     513.39      22.66
 43.77     464.14      21.54
 43.87     497.00      22.29
 43.97     542.00      23.28
 44.07     503.35      22.44
 44.17     466.93      21.61
 44.27     545.00      23.35
 44.37     500.00      22.36
 44.47     522.00      22.85
 44.57     512.00      22.63
 44.67     510.00      22.58
 44.77     473.37      21.76
 44.87     541.16      23.26
 44.97     483.00      21.98
 45.07     514.00      22.67
 45.17     492.00      22.18
 45.27     534.00      23.11
 45.37     538.00      23.19
 45.47     478.64      21.88
 45.57     511.00      22.61
 45.67     499.18      22.34
 45.77     524.00      22.89
 45.87     493.00      22.20
 45.97     507.72      22.53
 46.07     501.10      22.39
 46.17     505.00      22.47
 46.27     486.00      22.05
 46.37     527.00      22.96
 46.47     546.16      23.37
 46.57     493.00      22.20
 46.67     474.69      21.79
 46.77     466.00      21.59
 46.87     484.00      22.00
 46.97     527.00      22.96
 47.07     491.00      22.16
 47.17     473.72      21.77
 47.27     483.19      21.98
 47.37     540.00      23.24
 47.47     497.00      22.29
 47.57     596.00      24.41
 47.67     536.00      23.15
 47.77     652.00      25.53
 47.87     609.00      24.68
 47.97     602.33      24.54
 48.07     594.87      24.39
 48.17     590.00      24.29
 48.27     505.33      22.48
 48.37     534.00      23.11
 48.47     538.94      23.22
 48.57     547.00      23.39
 48.67     509.00      22.56
 48.77     555.87      23.58
 48.87     513.75      22.67
 48.97     549.00      23.43
 49.07     565.00      23.77
 49.17     566.54      23.80
 49.27     581.37      24.11
 49.37     600.23      24.50
 49.47     735.00      27.11
 49.57     771.62      27.78
 49.67     862.67      29.37
 49.77    1106.00      33.26
 49.87    1434.00      37.87
 49.97    1899.95      43.59
 50.07    2245.00      47.38
 50.17    2493.00      49.93
 50.27    2454.39      49.54
 50.37    2295.00      47.91
 50.47    1928.32      43.91
 50.57    1445.00      38.01
 50.67    1062.00      32.59
 50.77     832.00      28.84
 50.87     633.00      25.16
 50.97     627.00      25.04
 51.07     659.03      25.67
 51.17     621.85      24.94
 51.27     636.00      25.22
 51.37     552.00      23.49
 51.47     570.05      23.88
 51.57     612.00      24.74
 51.67     512.77      22.64
 51.77     562.00      23.71
 51.87     542.00      23.28
 51.97     561.08      23.69
 52.07     572.00      23.92
 52.17     579.17      24.07
 52.27     544.00      23.32
 52.37     568.00      23.83
 52.47     557.00      23.60
 52.57     580.91      24.10
 52.67     568.96      23.85
 52.77     573.00      23.94
 52.87     665.09      25.79
 52.97     669.58      25.88
 53.07     810.77      28.47
 53.17     934.00      30.56
 53.27    1044.00      32.31
 53.37    1137.00      33.72
 53.47    1212.00      34.81
 53.57    1232.66      35.11
 53.67    1053.53      32.46
 53.77     980.00      31.30
 53.87     838.48      28.96
 53.97     742.21      27.24
 54.07     696.51      26.39
 54.17     640.00      25.30
 54.27     554.71      23.55
 54.37     613.00      24.76
 54.47     559.00      23.64
 54.57     577.85      24.04
 54.67     581.00      24.10
 54.77     547.00      23.39
 54.87     558.00      23.62
 54.97     575.00      23.98
 55.07     568.00      23.83
 55.17     584.02      24.17
 55.27     543.51      23.31
 55.37     588.00      24.25
 55.47     570.63      23.89
 55.57     550.00      23.45
 55.67     537.38      23.18
 55.77     518.00      22.76
 55.87     625.00      25.00
 55.97     610.00      24.70
 56.07     679.00      26.06
 56.17     795.40      28.20
 56.27     890.00      29.83
 56.37    1172.00      34.23
 56.47    1487.13      38.56
 56.57    1761.00      41.96
 56.67    2140.00      46.26
 56.77    2429.00      49.28
 56.87    2671.00      51.68
 56.97    2643.34      51.41
 57.07    2283.00      47.78
 57.17    2008.00      44.81
 57.27    1649.00      40.61
 57.37    1258.38      35.47
 57.47    1079.00      32.85
 57.57     869.00      29.48
 57.67     759.00      27.55
 57.77     688.87      26.25
 57.87     673.00      25.94
 57.97     671.00      25.90
 58.07     648.04      25.46
 58.17     738.08      27.17
 58.27     726.00      26.94
 58.37     827.24      28.76
 58.47     939.00      30.64
 58.57    1046.90      32.36
 58.67    1213.00      34.83
 58.77    1355.92      36.82
 58.87    1434.67      37.88
 58.97    1506.00      38.81
 59.07    1508.00      38.83
 59.17    1521.00      39.00
 59.27    1541.00      39.26
 59.37    1325.00      36.40
 59.47    1279.15      35.77
 59.57    1181.96      34.38
 59.67    1164.73      34.13
 59.77    1106.00      33.26
 59.87    1162.93      34.10
 59.97    1360.00      36.88
 60.07    1441.00      37.96
 60.17    1551.56      39.39
 60.27    1517.23      38.95
 60.37    1552.66      39.40
 60.47    1458.00      38.18
 60.57    1269.00      35.62
 60.67    1141.00      33.78
 60.77     952.00      30.85
 60.87     759.00      27.55
 60.97     740.00      27.20
 61.07     608.77      24.67
 61.17     618.00      24.86
 61.27     632.00      25.14
 61.37     662.00      25.73
 61.47     696.00      26.38
 61.57     792.00      28.14
 61.67     862.00      29.36
 61.77     940.00      30.66
 61.87    1069.00      32.70
 61.97    1220.00      34.93
 62.07    1380.00      37.15
 62.17    1382.00      37.18
 62.27    1389.00      37.27
 62.37    1250.00      35.36
 62.47    1126.00      33.56
 62.57    1033.78      32.15
 62.67     911.00      30.18
 62.77     763.64      27.63
 62.87     754.52      27.47
 62.97     615.81      24.82
 63.07     632.55      25.15
 63.17     543.18      23.31
 63.27     604.62      24.59
 63.37     537.00      23.17
 63.47     547.00      23.39
 63.57     558.00      23.62
 63.67     567.00      23.81
 63.77     562.00      23.71
 63.87     651.22      25.52
 63.97     676.00      26.00
 64.07     755.00      27.48
 64.17     741.00      27.22
 64.27     831.00      28.83
 64.37     973.00      31.19
 64.47     983.00      31.35
 64.57     994.00      31.53
 64.67    1050.31      32.41
 64.77    1038.79      32.23
 64.87     972.00      31.18
 64.97     910.00      30.17
 65.07     851.00      29.17
 65.17     813.63      28.52
 65.27     738.00      27.17
 65.37     730.28      27.02
 65.47     649.00      25.48
 65.57     627.00      25.04
 65.67     571.99      23.92
 65.77     590.00      24.29
 65.87     583.25      24.15
 65.97     532.00      23.07
 66.07     546.00      23.37
 66.17     603.18      24.56
 66.27     611.54      24.73
 66.37     521.65      22.84
 66.47     552.00      23.49
 66.57     559.00      23.64
 66.67     589.00      24.27
 66.77     574.00      23.96
 66.87     604.31      24.58
 66.97     658.00      25.65
 67.07     623.20      24.96
 67.17     714.00      26.72
 67.27     782.32      27.97
 67.37     923.87      30.40
 67.47    1079.00      32.85
 67.57    1307.49      36.16
 67.67    1569.00      39.61
 67.77    1825.00      42.72
 67.87    1950.00      44.16
 67.97    2339.00      48.36
 68.07    2425.00      49.24
 68.17    2384.00      48.83
 68.27    2237.80      47.31
 68.37    2095.00      45.77
 68.47    1809.00      42.53
 68.57    1577.00      39.71
 68.67    1219.00      34.91
 68.77    1090.00      33.02
 68.87     856.00      29.26
 68.97     779.00      27.91
 69.07     672.17      25.93
 69.17     652.22      25.54
 69.27     654.00      25.57
 69.37     569.00      23.85
 69.47     579.00      24.06
 69.57     599.00      24.47
 69.67     586.00      24.21
 69.77     611.00      24.72
 69.87     585.00      24.19
 69.97     581.97      24.12
 70.07     610.11      24.70
 70.17     593.00      24.35
 70.27     609.00      24.68
 70.37     527.36      22.96
 70.47     553.00      23.52
 70.57     571.92      23.91
 70.67     554.00      23.54
 70.77     562.00      23.71
 70.87     582.00      24.12
 70.97     637.00      25.24
 71.07     680.00      26.08
 71.17     723.00      26.89
 71.27     822.00      28.67
 71.37     951.00      30.84
 71.47    1056.00      32.50
 71.57    1317.36      36.30
 71.67    1433.45      37.86
 71.77    1694.00      41.16
 71.87    1719.43      41.47
 71.97    1889.00      43.46
 72.07    1912.00      43.73
 72.17    1829.00      42.77
 72.27    1680.57      40.99
 72.37    1672.00      40.89
 72.47    1473.65      38.39
 72.57    1375.37      37.09
 72.67    1184.55      34.42
 72.77    1038.00      32.22
 72.87     917.00      30.28
 72.97     864.00      29.39
 73.07     869.42      29.49
 73.17     684.00      26.15
 73.27     695.00      26.36
 73.37     662.00      25.73
 73.47     644.00      25.38
 73.57     665.00      25.79
 73.67     602.00      24.54
 73.77     586.00      24.21
 73.87     601.00      24.52
 73.97     543.74      23.32
 74.07     568.97      23.85
 74.17     537.91      23.19
 74.27     538.42      23.20
 74.37     647.00      25.44
 74.47     623.98      24.98
 74.57     611.00      24.72
 74.67     687.00      26.21
 74.77     653.00      25.55
 74.87     620.00      24.90
 74.97     516.97      22.74
 75.07     618.00      24.86
 75.17     539.22      23.22
 75.27     558.00      23.62
 75.37     518.48      22.77
 75.47     529.00      23.00
 75.57     581.00      24.10
 75.67     552.00      23.49
 75.77     582.00      24.12
 75.87     621.03      24.92
 75.97     604.92      24.60
 76.07     624.25      24.98
 76.17     681.13      26.10
 76.27     691.00      26.29
 76.37     671.00      25.90
 76.47     688.00      26.23
 76.57     664.43      25.78
 76.67     707.00      26.59
 76.77     654.00      25.57
 76.87     669.00      25.87
 76.97     619.22      24.88
 77.07     595.00      24.39
 77.17     581.00      24.10
 77.27     539.00      23.22
 77.37     538.00      23.19
 77.47     565.00      23.77
 77.57     523.57      22.88
 77.67     561.00      23.69
 77.77     507.00      22.52
 77.87     579.00      24.06
 77.97     563.00      23.73
 78.07     538.00      23.19
 78.17     559.64      23.66
 78.27     539.00      23.22
 78.37     542.00      23.28
 78.47     522.00      22.85
 78.57     554.00      23.54
 78.67     523.96      22.89
 78.77     493.00      22.20
 78.87     541.00      23.26
 78.97     524.00      22.89
 79.07     544.00      23.32
 79.17     519.00      22.78
 79.27     520.43      22.81
 79.37     532.00      23.07
 79.47     476.00      21.82
 79.57     527.33      22.96
 79.67     516.00      22.72
 79.77     577.73      24.04
 79.87     534.00      23.11
 79.97     564.00      23.75
 80.07     530.13      23.02
 80.17     518.00      22.76
 80.27     565.00      23.77
 80.37     604.00      24.58
 80.47     581.35      24.11
 80.57     614.00      24.78
 80.67     626.00      25.02
 80.77     681.00      26.10
 80.87     680.35      26.08
 80.97     704.00      26.53
 81.07     692.09      26.31
 81.17     759.00      27.55
 81.27     766.94      27.69
 81.37     760.00      27.57
 81.47     707.23      26.59
 81.57     774.00      27.82
 81.67     704.00      26.53
 81.77     715.00      26.74
 81.87     708.00      26.61
 81.97     646.00      25.42
 82.07     686.00      26.19
 82.17     632.00      25.14
 82.27     635.00      25.20
 82.37     602.54      24.55
 82.47     635.90      25.22
 82.57     621.00      24.92
 82.67     542.39      23.29
 82.77     569.00      23.85
 82.87     558.00      23.62
 82.97     587.67      24.24
 83.07     526.17      22.94
 83.17     577.02      24.02
 83.27     479.00      21.89
 83.37     604.00      24.58
 83.47     579.00      24.06
 83.57     590.09      24.29
 83.67     540.00      23.24
 83.77     529.98      23.02
 83.87     578.00      24.04
 83.97     556.60      23.59
 84.07     573.20      23.94
 84.17     546.00      23.37
 84.27     584.00      24.17
 84.37     551.73      23.49
 84.47     543.00      23.30
 84.57     567.00      23.81
 84.67     563.00      23.73
 84.77     520.33      22.81
 84.87     511.03      22.61
 84.97     531.00      23.04
 85.07     544.56      23.34
 85.17     573.80      23.95
 85.27     550.00      23.45
 85.37     499.00      22.34
 85.47     533.00      23.09
 85.57     539.00      23.22
 85.67     556.59      23.59
 85.77     506.40      22.50
 85.87     506.93      22.52
 85.97     560.54      23.68
 86.07     557.56      23.61
 86.17     577.00      24.02
 86.27     545.00      23.35
 86.37     589.47      24.28
 86.47     544.00      23.32
 86.57     552.61      23.51
 86.67     563.00      23.73
 86.77     581.00      24.10
 86.87     569.40      23.86
 86.97     597.00      24.43
 87.07     608.88      24.68
 87.17     613.37      24.77
 87.27     642.66      25.35
 87.37     657.00      25.63
 87.47     625.00      25.00
 87.57     664.00      25.77
 87.67     580.24      24.09
 87.77     656.00      25.61
 87.87     655.00      25.59
 87.97     610.00      24.70
 88.07     590.23      24.29
 88.17     604.00      24.58
 88.27     563.00      23.73
 88.37     567.00      23.81
 88.47     594.00      24.37
 88.57     586.00      24.21
 88.67     593.00      24.35
 88.77     580.00      24.08
 88.87     594.00      24.37
 88.97     624.00      24.98
 89.07     617.00      24.84
 89.17     611.00      24.72
 89.27     599.00      24.47
 89.37     606.00      24.62
 89.47     582.00      24.12
 89.57     625.63      25.01
 89.67     620.00      24.90
 89.77     566.94      23.81
 89.87     615.44      24.81
 89.97     573.00      23.94
 90.07     541.00      23.26
 90.17     577.00      24.02
 90.27     522.00      22.85
 90.37     569.00      23.85
 90.47     546.00      23.37
 90.57     527.00      22.96
 90.67     579.00      24.06
 90.77     507.00      22.52
 90.87     500.00      22.36
 90.97     517.00      22.74
 91.07     513.44      22.66
 91.17     508.00      22.54
 91.27     537.00      23.17
 91.37     529.00      23.00
 91.47     559.00      23.64
 91.57     524.00      22.89
 91.67     498.00      22.32
 91.77     568.21      23.84
 91.87     570.93      23.89
 91.97     555.92      23.58
 92.07     548.00      23.41
 92.17     552.00      23.49
 92.27     592.00      24.33
 92.37     646.99      25.44
 92.47     624.17      24.98
 92.57     622.57      24.95
 92.67     693.00      26.32
 92.77     699.00      26.44
 92.87     717.35      26.78
 92.97     733.22      27.08
 93.07     712.35      26.69
 93.17     771.07      27.77
 93.27     794.00      28.18
 93.37     759.92      27.57
 93.47     837.00      28.93
 93.57     760.00      27.57
 93.67     841.00      29.00
 93.77     813.66      28.52
 93.87     835.00      28.90
 93.97     849.61      29.15
 94.07     893.00      29.88
 94.17     827.00      28.76
 94.27     889.00      29.82
 94.37     861.00      29.34
 94.47     895.00      29.92
 94.57     825.02      28.72
 94.67     855.38      29.25
 94.77     909.00      30.15
 94.87     929.00      30.48
 94.97     881.00      29.68
 95.07     837.81      28.94
 95.17     881.00      29.68
 95.27     828.00      28.77
 95.37     775.80      27.85
 95.47     790.00      28.11
 95.57     707.72      26.60
 95.67     715.00      26.74
 95.77     698.05      26.42
 95.87     735.17      27.11
 95.97     675.00      25.98
 96.07     637.63      25.25
 96.17     677.00      26.02
 96.27     711.00      26.66
 96.37     738.43      27.17
 96.47     775.60      27.85
 96.57     872.14      29.53
 96.67     900.00      30.00
 96.77    1025.00      32.02
 96.87    1056.30      32.50
 96.97    1118.18      33.44
 97.07    1209.00      34.77
 97.17    1288.00      35.89
 97.27    1369.00      37.00
 97.37    1398.00      37.39
 97.47    1517.00      38.95
 97.57    1498.00      38.70
 97.67    1410.93      37.56
 97.77    1434.00      37.87
 97.87    1378.03      37.12
 97.97    1340.74      36.62
 98.07    1233.00      35.11
 98.17    1189.96      34.50
 98.27    1095.00      33.09
 98.37    1070.00      32.71
 98.47     946.00      30.76
 98.57     871.23      29.52
 98.67     878.00      29.63
 98.77     782.00      27.96
 98.87     776.00      27.86
 98.97     780.00      27.93
 99.07     868.69      29.47
 99.17     843.00      29.03
 99.27     912.01      30.20
 99.37     941.00      30.68
 99.47     980.51      31.31
 99.57    1145.50      33.85
 99.67    1138.90      33.75
 99.77    1267.00      35.59
 99.87    1357.41      36.84
 99.97    1603.00      40.04
100.07    1671.00      40.88
100.17    1746.00      41.79
100.27    1859.00      43.12
100.37    1926.00      43.89
100.47    2013.00      44.87
100.57    2076.00      45.56
100.67    2056.00      45.34
100.77    2110.00      45.93
100.87    2043.69      45.21
100.97    2040.97      45.18
101.07    1872.76      43.28
101.17    1895.00      43.53
101.27    1762.53      41.98
101.37    1720.00      41.47
101.47    1534.00      39.17
101.57    1523.00      39.03
101.67    1372.50      37.05
101.77    1366.00      36.96
101.87    1368.98      37.00
101.97    1236.00      35.16
102.07    1235.63      35.15
102.17    1122.00      33.50
102.27    1169.00      34.19
102.37    1166.47      34.15
102.47    1163.00      34.10
102.57    1031.00      32.11
102.67    1065.00      32.63
102.77    1042.00      32.28
102.87    1044.13      32.31
102.97     984.22      31.37
103.07     951.09      30.84
103.17     871.00      29.51
103.27     890.35      29.84
103.37     787.00      28.05
103.47     824.00      28.71
103.57     777.02      27.88
103.67     732.00      27.06
103.77     708.43      26.62
103.87     659.00      25.67
103.97     644.64      25.39
104.07     635.84      25.22
104.17     564.00      23.75
104.27     584.00      24.17
104.37     561.00      23.69
104.47     564.00      23.75
104.57     569.00      23.85
104.67     565.62      23.78
104.77     569.00      23.85
104.87     574.00      23.96
104.97     545.00      23.35
105.07     532.00      23.07
105.17     558.53      23.63
105.27     564.52      23.76
105.37     548.00      23.41
105.47     530.00      23.02
105.57     501.65      22.40
105.67     529.00      23.00
105.77     511.00      22.61
105.87     584.00      24.17
105.97     594.00      24.37
106.07     571.00      23.90
106.17     587.00      24.23
106.27     574.83      23.98
106.37     620.00      24.90
106.47     623.00      24.96
106.57     626.54      25.03
106.67     648.74      25.47
106.77     627.00      25.04
106.87     664.00      25.77
106.97     658.00      25.65
107.07     660.00      25.69
107.17     647.00      25.44
107.27     657.98      25.65
107.37     700.62      26.47
107.47     726.58      26.96
107.57     693.00      26.32
107.67     712.00      26.68
107.77     685.00      26.17
107.87     654.00      25.57
107.97     722.51      26.88
108.07     737.57      27.16
108.17     696.00      26.38
108.27     678.00      26.04
108.37     660.00      25.69
108.47     682.55      26.13
108.57     680.00      26.08
108.67     655.00      25.59
108.77     674.00      25.96
108.87     706.25      26.58
108.97     670.00      25.88
109.07     675.81      26.00
109.17     679.22      26.06
109.27     716.85      26.77
109.37     657.00      25.63
109.47     620.44      24.91
109.57     643.00      25.36
109.67     672.00      25.92
109.77     609.27      24.68
109.87     577.97      24.04
109.97     622.00      24.94
110.07     599.00      24.47
110.17     605.00      24.60
110.27     589.00      24.27
110.37     562.00      23.71
110.47     549.26      23.44
110.57     556.00      23.58
110.67     514.00      22.67
110.77     561.00      23.69
110.87     514.00      22.67
110.97     533.55      23.10
111.07     587.00      24.23
111.17     564.56      23.76
111.27     544.00      23.32
111.37     496.41      22.28
111.47     530.00      23.02
111.57     568.70      23.85
111.67     527.00      22.96
111.77     548.00      23.41
111.87     528.00      22.98
111.97     555.00      23.56
112.07     559.13      23.65
112.17     583.20      24.15
112.27     594.00      24.37
112.37     576.66      24.01
112.47     661.00      25.71
112.57     621.00      24.92
112.67     616.00      24.82
112.77     652.00      25.53
112.87     594.85      24.39
112.97     695.00      26.36
113.07     674.68      25.97
113.17     690.00      26.27
113.27     688.00      26.23
113.37     692.63      26.32
113.47     769.00      27.73
113.57     745.54      27.30
113.67     814.00      28.53
113.77     919.94      30.33
113.87     923.14      30.38
113.97     885.00      29.75
114.07     962.00      31.02
114.17    1052.00      32.43
114.27    1156.00      34.00
114.37    1235.00      35.14
114.47    1285.91      35.86
114.57    1458.00      38.18
114.67    1524.00      39.04
114.77    1692.70      41.14
114.87    1914.00      43.75
114.97    2133.00      46.18
115.07    2326.05      48.23
115.17    2592.00      50.91
115.27    2862.00      53.50
115.37    3135.00      55.99
115.47    3516.97      59.30
115.57    3706.00      60.88
115.67    4241.29      65.13
115.77    4482.00      66.95
115.87    4671.00      68.34
115.97    5248.00      72.44
116.07    5472.00      73.97
116.17    5986.00      77.37
116.27    6415.45      80.10
116.37    6522.00      80.76
116.47    6581.66      81.13
116.57    6896.00      83.04
116.67    6871.57      82.89
116.77    6753.52      82.18
116.87    6702.41      81.87
116.97    6581.48      81.13
117.07    6359.60      79.75
117.17    5984.00      77.36
117.27    5554.00      74.53
117.37    5171.00      71.91
117.47    5153.23      71.79
117.57    4586.00      67.72
117.67    4272.00      65.36
117.77    3920.00      62.61
117.87    3509.17      59.24
117.97    3131.22      55.96
118.07    2773.29      52.66
118.17    2438.79      49.38
118.27    2289.00      47.84
118.37    1971.48      44.40
118.47    1786.00      42.26
118.57    1532.00      39.14
118.67    1463.38      38.25
118.77    1214.00      34.84
118.87    1071.00      32.73
118.97    1060.00      32.56
119.07     975.00      31.22
119.17     872.00      29.53
119.27     872.09      29.53
119.37     746.33      27.32
119.47     763.12      27.62
119.57     733.00      27.07
119.67     675.91      26.00
119.77     660.00      25.69
119.87     614.00      24.78
119.97     660.18      25.69
120.07     628.00      25.06
120.17     619.80      24.90
120.27     551.00      23.47
120.37     549.93      23.45
120.47     568.91      23.85
120.57     631.00      25.12
120.67     524.00      22.89
120.77     608.00      24.66
120.87     559.00      23.64
120.97     615.00      24.80
121.07     537.85      23.19
121.17     582.00      24.12
121.27     559.06      23.64
121.37     596.70      24.43
121.47     591.00      24.31
121.57     590.29      24.30
121.67     634.55      25.19
121.77     590.00      24.29
121.87     556.30      23.59
121.97     602.00      24.54
122.07     628.75      25.07
122.17     577.43      24.03
122.27     644.00      25.38
122.37     665.86      25.80
122.47     597.85      24.45
122.57     624.00      24.98
122.67     624.00      24.98
122.77     650.20      25.50
122.87     661.75      25.72
122.97     659.00      25.67
123.07     683.00      26.13
123.17     685.18      26.18
123.27     647.00      25.44
123.37     633.00      25.16
123.47     642.00      25.34
123.57     610.80      24.71
123.67     632.21      25.14
123.77     587.13      24.23
123.87     619.54      24.89
123.97     612.00      24.74
124.07     642.00      25.34
124.17     604.39      24.58
124.27     628.00      25.06
124.37     596.35      24.42
124.47     593.20      24.36
124.57     617.03      24.84
124.67     607.00      24.64
124.77     623.77      24.98
124.87     627.00      25.04
124.97     633.00      25.16
