  9.97     559.00      23.64
 10.07     594.42      24.38
 10.17     550.03      23.45
 10.27     579.00      24.06
 10.37     587.00      24.23
 10.47     552.00      23.49
 10.57     532.07      23.07
 10.67     589.00      24.27
 10.77     535.50      23.14
 10.87     580.00      24.08
 10.97     595.89      24.41
 11.07     559.00      23.64
 11.17     598.79      24.47
 11.27     605.78      24.61
 11.37     597.00      24.43
 11.47     604.27      24.58
 11.57     580.05      24.08
 11.67     580.67      24.10
 11.77     588.59      24.26
 11.87     592.53      24.34
 11.97     573.53      23.95
 12.07     663.00      25.75
 12.17     647.74      25.45
 12.27     661.00      25.71
 12.37     617.00      24.84
 12.47     599.00      24.47
 12.57     601.00      24.52
 12.67     541.00      23.26
 12.77     607.23      24.64
 12.87     571.74      23.91
 12.97     609.43      24.69
 13.07     584.45      24.18
 13.17     578.00      24.04
 13.27     530.00      23.02
 13.37     532.06      23.07
 13.47     590.90      24.31
 13.57     574.00      23.96
 13.67     527.00      22.96
 13.77     526.00      22.93
 13.87     545.09      23.35
 13.97     558.00      23.62
 14.07     539.00      23.22
 14.17     563.34      23.73
 14.27     592.00      24.33
 14.37     577.26      24.03
 14.47     529.84      23.02
 14.57     583.00      24.15
 14.67     510.00      22.58
 14.77     555.00      23.56
 14.87     570.00      23.87
 14.97     548.00      23.41
 15.07     558.00      23.62
 15.17     537.86      23.19
 15.27     518.50      22.77
 15.37     597.70      24.45
 15.47     512.00      22.63
 15.57     605.63      24.61
 15.67     486.00      22.05
 15.77     548.00      23.41
 15.87     520.95      22.82
 15.97     534.00      23.11
 16.07     573.59      23.95
 16.17     551.00      23.47
 16.27     560.62      23.68
 16.37     519.00      22.78
 16.47     512.00      22.63
 16.57     585.00      24.19
 16.67     521.00      22.83
 16.77     581.00      24.10
 16.87     569.74      23.87
 16.97     556.00      23.58
 17.07     516.00      22.72
 17.17     554.00      23.54
 17.27     603.40      24.56
 17.37     522.00      22.85
 17.47     589.89      24.29
 17.57     604.32      24.58
 17.67     552.20      23.50
 17.77     560.00      23.66
 17.87     567.26      23.82
 17.97     591.96      24.33
 18.07     584.33      24.17
 18.17     511.00      22.61
 18.27     516.67      22.73
 18.37     527.00      22.96
 18.47     536.34      23.16
 18.57     575.16      23.98
 18.67     550.77      23.47
 18.77     528.00      22.98
 18.87     575.00      23.98
 18.97     528.02      22.98
 19.07     556.00      23.58
 19.17     557.00      23.60
 19.27     567.00      23.81
 19.37     566.00      23.79
 19.47     540.31      23.24
 19.57     534.00      23.11
 19.67     566.00      23.79
 19.77     571.00      23.90
 19.87     532.00      23.07
 19.97     528.39      22.99
 20.07     536.00      23.15
 20.17     546.00      23.37
 20.27     522.00      22.85
 20.37     559.00      23.64
 20.47     559.00      23.64
 20.57     542.00      23.28
 20.67     564.00      23.75
 20.77     585.28      24.19
 20.87     533.00      23.09
 20.97     558.00      23.62
 21.07     533.00      23.09
 21.17     539.00      23.22
 21.27     538.00      23.19
 21.37     575.67      23.99
 21.47     592.00      24.33
 21.57     576.00      24.00
 21.67     539.00      23.22
 21.77     535.00      23.13
 21.87     526.00      22.93
 21.97     541.00      23.26
 22.07     544.00      23.32
 22.17     536.00      23.15
 22.27     566.22      23.80
 22.37     545.00      23.35
 22.47     516.24      22.72
 22.57     581.00      24.10
 22.67     532.00      23.07
 22.77     572.94      23.94
 22.87     562.31      23.71
 22.97     544.00      23.32
 23.07     527.38      22.96
 23.17     552.00      23.49
 23.27     555.98      23.58
 23.37     507.46      22.53
 23.47     541.29      23.27
 23.57     562.00      23.71
 23.67     544.00      23.32
 23.77     618.00      24.86
 23.87     555.00      23.56
 23.97     536.00      23.15
 24.07     549.12      23.43
 24.17     546.20      23.37
 24.27     591.05      24.31
 24.37     561.00      23.69
 24.47     614.00      24.78
 24.57     596.00      24.41
 24.67     636.00      25.22
 24.77     695.00      26.36
 24.87     613.00      24.76
 24.97     595.00      24.39
 25.07     611.14      24.72
 25.17     575.00      23.98
 25.27     604.95      24.60
 25.37     547.39      23.40
 25.47     552.33      23.50
 25.57     531.00      23.04
 25.67     542.00      23.28
 25.77     541.47      23.27
 25.87     565.73      23.79
 25.97     572.92      23.94
 26.07     549.88      23.45
 26.17     533.00      23.09
 26.27     539.00      23.22
 26.37     567.00      23.81
 26.47     531.00      23.04
 26.57     546.00      23.37
 26.67     514.99      22.69
 26.77     501.93      22.40
 26.87     543.70      23.32
 26.97     584.21      24.17
 27.07     523.71      22.88
 27.17     564.70      23.76
 27.27     516.13      22.72
 27.37     539.00      23.22
 27.47     534.00      23.11
 27.57     545.00      23.35
 27.67     545.00      23.35
 27.77     532.00      23.07
 27.87     582.42      24.13
 27.97     690.00      26.27
 28.07     710.01      26.65
 28.17     803.00      28.34
 28.27     885.60      29.76
 28.37     880.84      29.68
 28.47     863.00      29.38
 28.57     755.00      27.48
 28.67     733.00      27.07
 28.77     752.00      27.42
 28.87     822.00      28.67
 28.97     813.00      28.51
 29.07     766.00      27.68
 29.17     729.00      27.00
 29.27     686.00      26.19
 29.37     580.00      24.08
 29.47     606.00      24.62
 29.57     592.00      24.33
 29.67     546.00      23.37
 29.77     580.00      24.08
 29.87     503.42      22.44
 29.97     599.00      24.47
 30.07     546.00      23.37
 30.17     571.65      23.91
 30.27     503.09      22.43
 30.37     540.00      23.24
 30.47     564.00      23.75
 30.57     586.00      24.21
 30.67     534.22      23.11
 30.77     575.89      24.00
 30.87     606.00      24.62
 30.97     644.00      25.38
 31.07     644.00      25.38
 31.17     592.34      24.34
 31.27     617.00      24.84
 31.37     565.00      23.77
 31.47     531.63      23.06
 31.57     500.86      22.38
 31.67     512.00      22.63
 31.77     514.49      22.68
 31.87     511.00      22.61
 31.97     488.00      22.09
 32.07     548.00      23.41
 32.17     534.00      23.11
 32.27     543.00      23.30
 32.37     542.00      23.28
 32.47     512.81      22.65
 32.57     549.00      23.43
 32.67     531.00      23.04
 32.77     545.00      23.35
 32.87     521.00      22.83
 32.97     577.00      24.02
 33.07     564.00      23.75
 33.17     504.46      22.46
 33.27     544.00      23.32
 33.37     550.30      23.46
 33.47     591.51      24.32
 33.57     541.11      23.26
 33.67     637.00      25.24
 33.77     741.00      27.22
 33.87     809.00      28.44
 33.97     929.29      30.48
 34.07    1041.00      32.26
 34.17    1033.00      32.14
 34.27     957.14      30.94
 34.37     860.85      29.34
 34.47     750.33      27.39
 34.57     591.00      24.31
 34.67     566.00      23.79
 34.77     547.75      23.40
 34.87     554.00      23.54
 34.97     489.66      22.13
 35.07     484.01      22.00
 35.17     521.17      22.83
 35.27     527.15      22.96
 35.37     480.00      21.91
 35.47     519.00      22.78
 35.57     572.00      23.92
 35.67     476.00      21.82
 35.77     460.00      21.45
 35.87     548.00      23.41
 35.97     493.30      22.21
 36.07     507.00      22.52
 36.17     533.00      23.09
 36.27     444.00      21.07
 36.37     520.00      22.80
 36.47     531.92      23.06
 36.57     523.00      22.87
 36.67     503.00      22.43
 36.77     524.00      22.89
 36.87     517.00      22.74
 36.97     503.00      22.43
 37.07     535.46      23.14
 37.17     540.97      23.26
 37.27     506.00      22.49
 37.37     522.00      22.85
 37.47     545.40      23.35
 37.57     517.00      22.74
 37.67     520.00      22.80
 37.77     512.00      22.63
 37.87     528.00      22.98
 37.97     521.00      22.83
 38.07     505.00      22.47
 38.17     496.27      22.28
 38.27     518.32      22.77
 38.37     493.99      22.23
 38.47     507.00      22.52
 38.57     523.00      22.87
 38.67     542.39      23.29
 38.77     482.00      21.95
 38.87     473.00      21.75
 38.97     511.00      22.61
 39.07     546.00      23.37
 39.17     540.81      23.26
 39.27     442.00      21.02
 39.37     502.00      22.41
 39.47     505.40      22.48
 39.57     507.00      22.52
 39.67     486.97      22.07
 39.77     518.00      22.76
 39.87     506.00      22.49
 39.97     463.00      21.52
 40.07     465.00      21.56
 40.17     495.00      22.25
 40.27     461.27      21.48
 40.37     482.26      21.96
 40.47     477.00      21.84
 40.57     479.00      21.89
 40.67     494.74      22.24
 40.77     454.00      21.31
 40.87     488.00      22.09
 40.97     476.00      21.82
 41.07     448.00      21.17
 41.17     523.37      22.88
 41.27     470.00      21.68
 41.37     500.33      22.37
 41.47     461.07      21.47
 41.57     506.01      22.49
 41.67     527.38      22.96
 41.77     519.00      22.78
 41.87     457.43      21.39
 41.97     464.00      21.54
 42.07     493.68      22.22
 42.17     496.50      22.28
 42.27     486.25      22.05
 42.37     522.00      22.85
 42.47     579.50      24.07
 42.57     522.00      22.85
 42.67     596.70      24.43
 42.77     622.00      24.94
 42.87     574.00      23.96
 42.97     562.00      23.71
 43.07     568.00      23.83
 43.17     508.00      22.54
 43.27     563.29      23.73
 43.37     476.00      21.82
 43.47     487.00      22.07
 43.57     516.00      22.72
 43.67     505.00      22.47
 43.77     492.00      22.18
 43.87     449.00      21.19
 43.97     496.00      22.27
 44.07     523.00      22.87
 44.17     493.00      22.20
 44.27     524.00      22.89
 44.37     483.83      22.00
 44.47     504.00      22.45
 44.57     499.00      22.34
 44.67     530.61      23.03
 44.77     492.48      22.19
 44.87     501.00      22.38
 44.97     527.00      22.96
 45.07     512.20      22.63
 45.17     495.00      22.25
 45.27     514.06      22.67
 45.37     521.70      22.84
 45.47     468.00      21.63
 45.57     521.00      22.83
 45.67     487.00      22.07
 45.77     460.24      21.45
 45.87     481.42      21.94
 45.97     520.00      22.80
 46.07     502.00      22.41
 46.17     457.34      21.39
 46.27     489.25      22.12
 46.37     477.00      21.84
 46.47     520.00      22.80
 46.57     550.00      23.45
 46.67     470.00      21.68
 46.77     528.00      22.98
 46.87     526.00      22.93
 46.97     458.12      21.40
 47.07     514.80      22.69
 47.17     527.00      22.96
 47.27     526.00      22.93
 47.37     503.00      22.43
 47.47     507.37      22.52
 47.57     507.00      22.52
 47.67     551.00      23.47
 47.77     536.00      23.15
 47.87     592.00      24.33
 47.97     585.00      24.19
 48.07     568.62      23.85
 48.17     535.00      23.13
 48.27     565.00      23.77
 48.37     531.30      23.05
 48.47     498.64      22.33
 48.57     579.00      24.06
 48.67     497.73      22.31
 48.77     518.00      22.76
 48.87     550.43      23.46
 48.97     491.00      22.16
 49.07     526.00      22.93
 49.17     557.55      23.61
 49.27     573.68      23.95
 49.37     597.00      24.43
 49.47     631.00      25.12
 49.57     624.00      24.98
 49.67     781.38      27.95
 49.77     961.93      31.02
 49.87    1270.00      35.64
 49.97    1505.90      38.81
 50.07    1907.82      43.68
 50.17    2270.00      47.64
 50.27    2374.00      48.72
 50.37    2360.00      48.58
 50.47    2068.00      45.48
 50.57    1606.08      40.08
 50.67    1300.93      36.07
 50.77     948.00      30.79
 50.87     838.74      28.96
 50.97     754.76      27.47
 51.07     683.00      26.13
 51.17     602.00      24.54
 51.27     644.00      25.38
 51.37     582.51      24.14
 51.47     554.00      23.54
 51.57     557.57      23.61
 51.67     552.00      23.49
 51.77     578.72      24.06
 51.87     551.98      23.49
 51.97     556.00      23.58
 52.07     532.00      23.07
 52.17     542.00      23.28
 52.27     514.74      22.69
 52.37     563.84      23.75
 52.47     508.77      22.56
 52.57     548.00      23.41
 52.67     560.00      23.66
 52.77     590.00      24.29
 52.87     623.00      24.96
 52.97     622.00      24.94
 53.07     751.00      27.40
 53.17     814.00      28.53
 53.27     911.61      30.19
 53.37    1051.07      32.42
 53.47    1167.94      34.18
 53.57    1211.22      34.80
 53.67    1084.00      32.92
 53.77    1134.72      33.69
 53.87     986.00      31.40
 53.97     847.00      29.10
 54.07     770.00      27.75
 54.17     686.00      26.19
 54.27     672.64      25.94
 54.37     630.00      25.10
 54.47     533.00      23.09
 54.57     602.60      24.55
 54.67     546.59      23.38
 54.77     503.20      22.43
 54.87     592.00      24.33
 54.97     530.00      23.02
 55.07     513.67      22.66
 55.17     550.00      23.45
 55.27     580.00      24.08
 55.37     532.80      23.08
 55.47     606.00      24.62
 55.57     552.00      23.49
 55.67     576.00      24.00
 55.77     558.00      23.62
 55.87     596.09      24.41
 55.97     602.00      24.54
 56.07     612.00      24.74
 56.17     732.00      27.06
 56.27     779.00      27.91
 56.37    1002.00      31.65
 56.47    1212.31      34.82
 56.57    1524.44      39.04
 56.67    1804.00      42.47
 56.77    2248.00      47.41
 56.87    2396.00      48.95
 56.97    2504.00      50.04
 57.07    2424.00      49.23
 57.17    2256.85      47.51
 57.27    1903.00      43.62
 57.37    1636.00      40.45
 57.47    1240.00      35.21
 57.57    1011.71      31.81
 57.67     901.00      30.02
 57.77     867.00      29.44
 57.87     738.00      27.17
 57.97     706.84      26.59
 58.07     682.00      26.12
 58.17     697.00      26.40
 58.27     729.28      27.01
 58.37     739.00      27.18
 58.47     871.08      29.51
 58.57     948.07      30.79
 58.67     968.68      31.12
 58.77    1023.28      31.99
 58.87    1162.73      34.10
 58.97    1154.00      33.97
 59.07    1287.00      35.87
 59.17    1302.00      36.08
 59.27    1264.98      35.57
 59.37    1255.13      35.43
 59.47    1333.00      36.51
 59.57    1238.00      35.19
 59.67    1238.00      35.19
 59.77    1173.00      34.25
 59.87    1187.00      34.45
 59.97    1280.00      35.78
 60.07    1323.00      36.37
 60.17    1475.00      38.41
 60.27    1466.71      38.30
 60.37    1505.00      38.79
 60.47    1395.00      37.35
 60.57    1413.00      37.59
 60.67    1251.15      35.37
 60.77    1095.22      33.09
 60.87     922.00      30.36
 60.97     804.00      28.35
 61.07     728.00      26.98
 61.17     732.00      27.06
 61.27     665.00      25.79
 61.37     638.75      25.27
 61.47     620.33      24.91
 61.57     668.93      25.86
 61.67     790.00      28.11
 61.77     832.00      28.84
 61.87    1001.67      31.65
 61.97    1086.00      32.95
 62.07    1242.00      35.24
 62.17    1350.00      36.74
 62.27    1308.00      36.17
 62.37    1334.00      36.52
 62.47    1279.94      35.78
 62.57    1119.00      33.45
 62.67     999.00      31.61
 62.77     866.00      29.43
 62.87     767.00      27.69
 62.97     634.00      25.18
 63.07     660.60      25.70
 63.17     675.00      25.98
 63.27     612.24      24.74
 63.37     576.00      24.00
 63.47     550.51      23.46
 63.57     556.00      23.58
 63.67     552.00      23.49
 63.77     559.00      23.64
 63.87     589.00      24.27
 63.97     626.00      25.02
 64.07     686.06      26.19
 64.17     747.00      27.33
 64.27     716.50      26.77
 64.37     863.00      29.38
 64.47     928.09      30.46
 64.57     966.55      31.09
 64.67    1012.00      31.81
 64.77    1032.00      32.12
 64.87    1052.00      32.43
 64.97     883.00      29.72
 65.07     930.00      30.50
 65.17     846.00      29.09
 65.27     775.67      27.85
 65.37     775.00      27.84
 65.47     745.99      27.31
 65.57     633.00      25.16
 65.67     594.00      24.37
 65.77     657.77      25.65
 65.87     640.00      25.30
 65.97     602.00      24.54
 66.07     607.00      24.64
 66.17     595.71      24.41
 66.27     609.48      24.69
 66.37     551.00      23.47
 66.47     549.00      23.43
 66.57     551.43      23.48
 66.67     559.00      23.64
 66.77     585.74      24.20
 66.87     583.39      24.15
 66.97     579.00      24.06
 67.07     690.00      26.27
 67.17     615.00      24.80
 67.27     743.00      27.26
 67.37     824.00      28.71
 67.47     940.30      30.66
 67.57    1092.00      33.05
 67.67    1318.15      36.31
 67.77    1594.00      39.92
 67.87    1813.00      42.58
 67.97    2112.93      45.97
 68.07    2303.86      48.00
 68.17    2368.77      48.67
 68.27    2351.00      48.49
 68.37    2186.65      46.76
 68.47    2019.83      44.94
 68.57    1796.00      42.38
 68.67    1559.00      39.48
 68.77    1291.00      35.93
 68.87    1102.00      33.20
 68.97     957.00      30.94
 69.07     824.00      28.71
 69.17     690.23      26.27
 69.27     660.34      25.70
 69.37     664.75      25.78
 69.47     574.79      23.97
 69.57     580.00      24.08
 69.67     571.00      23.90
 69.77     580.00      24.08
 69.87     544.00      23.32
 69.97     598.14      24.46
 70.07     568.00      23.83
 70.17     528.00      22.98
 70.27     569.00      23.85
 70.37     581.00      24.10
 70.47     562.00      23.71
 70.57     532.79      23.08
 70.67     585.00      24.19
 70.77     588.51      24.26
 70.87     650.86      25.51
 70.97     634.94      25.20
 71.07     675.74      26.00
 71.17     692.00      26.31
 71.27     820.10      28.64
 71.37     860.00      29.33
 71.47     933.89      30.56
 71.57    1138.00      33.73
 71.67    1319.33      36.32
 71.77    1439.41      37.94
 71.87    1548.44      39.35
 71.97    1782.00      42.21
 72.07    1839.00      42.88
 72.17    1850.00      43.01
 72.27    1853.40      43.05
 72.37    1696.03      41.18
 72.47    1543.00      39.28
 72.57    1357.24      36.84
 72.67    1309.00      36.18
 72.77    1106.83      33.27
 72.87     957.00      30.94
 72.97     837.00      28.93
 73.07     823.90      28.70
 73.17     780.00      27.93
 73.27     693.38      26.33
 73.37     668.85      25.86
 73.47     657.00      25.63
 73.57     639.00      25.28
 73.67     594.00      24.37
 73.77     614.00      24.78
 73.87     595.17      24.40
 73.97     554.00      23.54
 74.07     539.82      23.23
 74.17     609.00      24.68
 74.27     589.04      24.27
 74.37     533.17      23.09
 74.47     571.00      23.90
 74.57     640.00      25.30
 74.67     586.74      24.22
 74.77     564.88      23.77
 74.87     669.00      25.87
 74.97     568.48      23.84
 75.07     638.00      25.26
 75.17     594.28      24.38
 75.27     585.00      24.19
 75.37     585.00      24.19
 75.47     566.40      23.80
 75.57     532.00      23.07
 75.67     520.38      22.81
 75.77     564.00      23.75
 75.87     577.00      24.02
 75.97     540.00      23.24
 76.07     608.00      24.66
 76.17     666.10      25.81
 76.27     659.00      25.67
 76.37     654.00      25.57
 76.47     664.00      25.77
 76.57     725.00      26.93
 76.67     702.00      26.50
 76.77     685.00      26.17
 76.87     708.91      26.63
 76.97     687.00      26.21
 77.07     611.33      24.73
 77.17     590.00      24.29
 77.27     609.00      24.68
 77.37     538.37      23.20
 77.47     555.00      23.56
 77.57     510.00      22.58
 77.67     556.00      23.58
 77.77     525.63      22.93
 77.87     502.36      22.41
 77.97     517.00      22.74
 78.07     490.00      22.14
 78.17     532.00      23.07
 78.27     558.85      23.64
 78.37     469.00      21.66
 78.47     524.00      22.89
 78.57     530.00      23.02
 78.67     504.10      22.45
 78.77     492.90      22.20
 78.87     533.10      23.09
 78.97     484.00      22.00
 79.07     527.09      22.96
 79.17     524.00      22.89
 79.27     513.15      22.65
 79.37     499.00      22.34
 79.47     501.00      22.38
 79.57     545.00      23.35
 79.67     539.09      23.22
 79.77     497.00      22.29
 79.87     543.74      23.32
 79.97     517.00      22.74
 80.07     547.00      23.39
 80.17     540.00      23.24
 80.27     548.00      23.41
 80.37     557.00      23.60
 80.47     572.00      23.92
 80.57     585.00      24.19
 80.67     590.00      24.29
 80.77     657.12      25.63
 80.87     622.00      24.94
 80.97     646.00      25.42
 81.07     639.00      25.28
 81.17     698.00      26.42
 81.27     694.00      26.34
 81.37     725.00      26.93
 81.47     768.26      27.72
 81.57     705.47      26.56
 81.67     725.96      26.94
 81.77     777.48      27.88
 81.87     751.00      27.40
 81.97     729.00      27.00
 82.07     699.00      26.44
 82.17     680.12      26.08
 82.27     697.42      26.41
 82.37     615.00      24.80
 82.47     603.55      24.57
 82.57     601.06      24.52
 82.67     606.31      24.62
 82.77     593.00      24.35
 82.87     521.00      22.83
 82.97     589.00      24.27
 83.07     575.50      23.99
 83.17     584.08      24.17
 83.27     563.93      23.75
 83.37     538.00      23.19
 83.47     533.00      23.09
 83.57     541.00      23.26
 83.67     514.21      22.68
 83.77     551.07      23.47
 83.87     577.00      24.02
 83.97     546.00      23.37
 84.07     568.65      23.85
 84.17     579.00      24.06
 84.27     546.00      23.37
 84.37     544.25      23.33
 84.47     568.00      23.83
 84.57     533.00      23.09
 84.67     530.00      23.02
 84.77     551.00      23.47
 84.87     541.00      23.26
 84.97     520.00      22.80
 85.07     481.00      21.93
 85.17     549.00      23.43
 85.27     550.00      23.45
 85.37     488.00      22.09
 85.47     532.87      23.08
 85.57     511.00      22.61
 85.67     549.00      23.43
 85.77     530.00      23.02
 85.87     471.99      21.73
 85.97     485.12      22.03
 86.07     531.00      23.04
 86.17     551.69      23.49
 86.27     525.61      22.93
 86.37     553.21      23.52
 86.47     520.00      22.80
 86.57     540.00      23.24
 86.67     526.22      22.94
 86.77     526.45      22.94
 86.87     526.00      22.93
 86.97     589.00      24.27
 87.07     618.41      24.87
 87.17     571.83      23.91
 87.27     656.00      25.61
 87.37     599.21      24.48
 87.47     601.00      24.52
 87.57     587.29      24.23
 87.67     605.02      24.60
 87.77     626.00      25.02
 87.87     620.00      24.90
 87.97     614.67      24.79
 88.07     575.75      23.99
 88.17     626.00      25.02
 88.27     565.00      23.77
 88.37     635.00      25.20
 88.47     593.00      24.35
 88.57     596.00      24.41
 88.67     556.00      23.58
 88.77     515.00      22.69
 88.87     592.67      24.34
 88.97     571.00      23.90
 89.07     534.33      23.12
 89.17     624.00      24.98
 89.27     614.67      24.79
 89.37     575.00      23.98
 89.47     599.00      24.47
 89.57     571.00      23.90
 89.67     617.83      24.86
 89.77     625.31      25.01
 89.87     565.00      23.77
 89.97     573.77      23.95
 90.07     546.00      23.37
 90.17     524.81      22.91
 90.27     571.00      23.90
 90.37     536.00      23.15
 90.47     535.00      23.13
 90.57     571.40      23.90
 90.67     482.17      21.96
 90.77     555.78      23.58
 90.87     508.00      22.54
 90.97     505.00      22.47
 91.07     472.27      21.73
 91.17     493.63      22.22
 91.27     537.00      23.17
 91.37     519.00      22.78
 91.47     498.00      22.32
 91.57     528.00      22.98
 91.67     540.70      23.25
 91.77     556.56      23.59
 91.87     520.95      22.82
 91.97     543.00      23.30
 92.07     509.00      22.56
 92.17     549.00      23.43
 92.27     559.00      23.64
 92.37     595.00      24.39
 92.47     577.00      24.02
 92.57     583.00      24.15
 92.67     630.00      25.10
 92.77     674.00      25.96
 92.87     696.00      26.38
 92.97     650.00      25.50
 93.07     677.00      26.02
 93.17     668.00      25.85
 93.27     775.00      27.84
 93.37     781.00      27.95
 93.47     760.00      27.57
 93.57     748.21      27.35
 93.67     778.00      27.89
 93.77     800.00      28.28
 93.87     800.60      28.29
 93.97     822.00      28.67
 94.07     831.00      28.83
 94.17     798.60      28.26
 94.27     813.00      28.51
 94.37     815.11      28.55
 94.47     759.00      27.55
 94.57     831.00      28.83
 94.67     854.00      29.22
 94.77     911.56      30.19
 94.87     924.88      30.41
 94.97     906.86      30.11
 95.07     958.00      30.95
 95.17     859.59      29.32
 95.27     803.98      28.35
 95.37     822.72      28.68
 95.47     835.00      28.90
 95.57     780.22      27.93
 95.67     739.00      27.18
 95.77     722.00      26.87
 95.87     701.00      26.48
 95.97     760.00      27.57
 96.07     660.00      25.69
 96.17     674.00      25.96
 96.27     675.11      25.98
 96.37     741.12      27.22
 96.47     784.60      28.01
 96.57     758.00      27.53
 96.67     785.33      28.02
 96.77     884.70      29.74
 96.87    1005.85      31.72
 96.97    1069.00      32.70
 97.07    1178.00      34.32
 97.17    1130.00      33.62
 97.27    1243.00      35.26
 97.37    1336.00      36.55
 97.47    1325.00      36.40
 97.57    1341.12      36.62
 97.67    1451.00      38.09
 97.77    1429.00      37.80
 97.87    1407.00      37.51
 97.97    1346.00      36.69
 98.07    1368.05      36.99
 98.17    1267.00      35.59
 98.27    1253.00      35.40
 98.37    1213.00      34.83
 98.47    1066.00      32.65
 98.57    1024.00      32.00
 98.67    1000.00      31.62
 98.77     884.00      29.73
 98.87     846.48      29.09
 98.97     910.06      30.17
 99.07     831.00      28.83
 99.17     820.00      28.64
 99.27     877.00      29.61
 99.37     895.00      29.92
 99.47     995.00      31.54
 99.57     971.06      31.16
 99.67    1083.00      32.91
 99.77    1079.00      32.85
 99.87    1222.00      34.96
 99.97    1321.00      36.35
100.07    1398.00      37.39
100.17    1508.00      38.83
100.27    1670.00      40.87
100.37    1762.00      41.98
100.47    1850.00      43.01
100.57    1868.00      43.22
100.67    1950.00      44.16
100.77    1949.00      44.15
100.87    1973.00      44.42
100.97    2088.00      45.69
101.07    2010.00      44.83
101.17    1893.00      43.51
101.27    1938.00      44.02
101.37    1745.40      41.78
101.47    1711.00      41.36
101.57    1600.00      40.00
101.67    1508.00      38.83
101.77    1442.80      37.98
101.87    1404.00      37.47
101.97    1409.73      37.55
102.07    1253.20      35.40
102.17    1246.00      35.30
102.27    1193.00      34.54
102.37    1144.00      33.82
102.47    1210.81      34.80
102.57    1085.11      32.94
102.67    1207.00      34.74
102.77    1120.00      33.47
102.87    1063.04      32.60
102.97    1002.00      31.65
103.07     998.00      31.59
103.17    1041.00      32.26
103.27     881.28      29.69
103.37     849.00      29.14
103.47     813.67      28.52
103.57     857.04      29.28
103.67     773.00      27.80
103.77     773.00      27.80
103.87     681.00      26.10
103.97     677.00      26.02
104.07     658.00      25.65
104.17     596.00      24.41
104.27     611.92      24.74
104.37     591.00      24.31
104.47     580.62      24.10
104.57     593.00      24.35
104.67     559.10      23.65
104.77     528.36      22.99
104.87     570.00      23.87
104.97     514.16      22.68
105.07     539.54      23.23
105.17     555.00      23.56
105.27     541.00      23.26
105.37     530.00      23.02
105.47     515.00      22.69
105.57     572.00      23.92
105.67     528.00      22.98
105.77     553.46      23.53
105.87     569.00      23.85
105.97     504.53      22.46
106.07     539.00      23.22
106.17     586.37      24.22
106.27     542.83      23.30
106.37     577.00      24.02
106.47     623.00      24.96
106.57     634.66      25.19
106.67     563.00      23.73
106.77     615.00      24.80
106.87     651.00      25.51
106.97     608.45      24.67
107.07     639.00      25.28
107.17     687.28      26.22
107.27     635.00      25.20
107.37     714.97      26.74
107.47     657.25      25.64
107.57     633.00      25.16
107.67     655.00      25.59
107.77     692.00      26.31
107.87     675.96      26.00
107.97     715.00      26.74
108.07     710.00      26.65
108.17     719.41      26.82
108.27     681.00      26.10
108.37     668.00      25.85
108.47     680.00      26.08
108.57     722.00      26.87
108.67     693.00      26.32
108.77     628.00      25.06
108.87     663.00      25.75
108.97     696.16      26.38
109.07     683.00      26.13
109.17     657.26      25.64
109.27     696.00      26.38
109.37     620.00      24.90
109.47     643.88      25.37
109.57     650.00      25.50
109.67     695.00      26.36
109.77     632.00      25.14
109.87     618.00      24.86
109.97     650.26      25.50
110.07     573.47      23.95
110.17     598.00      24.45
110.27     575.07      23.98
110.37     560.19      23.67
110.47     581.20      24.11
110.57     635.00      25.20
110.67     566.00      23.79
110.77     537.99      23.19
110.87     566.00      23.79
110.97     566.00      23.79
111.07     544.00      23.32
111.17     514.00      22.67
111.27     553.07      23.52
111.37     539.00      23.22
111.47     558.66      23.64
111.57     554.00      23.54
111.67     503.00      22.43
111.77     537.00      23.17
111.87     490.00      22.14
111.97     536.00      23.15
112.07     558.00      23.62
112.17     526.84      22.95
112.27     573.00      23.94
112.37     593.71      24.37
112.47     581.00      24.10
112.57     543.00      23.30
112.67     595.68      24.41
112.77     572.00      23.92
112.87     552.00      23.49
112.97     552.00      23.49
113.07     571.00      23.90
113.17     573.00      23.94
113.27     612.00      24.74
113.37     592.62      24.34
113.47     583.00      24.15
113.57     687.17      26.21
113.67     645.00      25.40
113.77     699.00      26.44
113.87     701.30      26.48
113.97     793.68      28.17
114.07     751.17      27.41
114.17     781.00      27.95
114.27     921.00      30.35
114.37     930.00      30.50
114.47    1036.00      32.19
114.57    1110.96      33.33
114.67    1241.99      35.24
114.77    1245.85      35.30
114.87    1371.43      37.03
114.97    1634.00      40.42
115.07    1749.68      41.83
115.17    2093.29      45.75
115.27    2227.64      47.20
115.37    2571.00      50.71
115.47    2729.00      52.24
115.57    3088.57      55.57
115.67    3460.00      58.82
115.77    3873.00      62.23
115.87    4251.26      65.20
115.97    4543.00      67.40
116.07    4909.00      70.06
116.17    5260.00      72.53
116.27    5559.00      74.56
116.37    5945.00      77.10
116.47    6299.00      79.37
116.57    6620.00      81.36
116.67    6805.97      82.50
116.77    6801.00      82.47
116.87    6952.00      83.38
116.97    6660.16      81.61
117.07    6648.00      81.54
117.17    6617.23      81.35
117.27    6333.00      79.58
117.37    6034.71      77.68
117.47    5615.00      74.93
117.57    5285.00      72.70
117.67    5022.00      70.87
117.77    4680.06      68.41
117.87    4422.03      66.50
117.97    3954.24      62.88
118.07    3750.00      61.24
118.17    3400.00      58.31
118.27    3002.79      54.80
118.37    2780.61      52.73
118.47    2385.76      48.84
118.57    2234.10      47.27
118.67    1921.27      43.83
118.77    1741.00      41.73
118.87    1480.40      38.48
118.97    1452.96      38.12
119.07    1234.00      35.13
119.17    1186.87      34.45
119.27    1013.00      31.83
119.37    1018.88      31.92
119.47     939.55      30.65
119.57     846.00      29.09
119.67     827.37      28.76
119.77     776.00      27.86
119.87     722.00      26.87
119.97     667.00      25.83
120.07     678.15      26.04
120.17     622.29      24.95
120.27     691.00      26.29
120.37     633.69      25.17
120.47     651.89      25.53
120.57     619.00      24.88
120.67     608.00      24.66
120.77     572.00      23.92
120.87     533.00      23.09
120.97     585.00      24.19
121.07     561.55      23.70
121.17     572.00      23.92
121.27     587.00      24.23
121.37     576.00      24.00
121.47     606.98      24.64
121.57     575.00      23.98
121.67     586.00      24.21
121.77     602.00      24.54
121.87     616.74      24.83
121.97     617.34      24.85
122.07     623.00      24.96
122.17     602.00      24.54
122.27     568.00      23.83
122.37     611.46      24.73
122.47     600.00      24.49
122.57     584.57      24.18
122.67     614.22      24.78
122.77     602.00      24.54
122.87     662.81      25.75
122.97     611.00      24.72
123.07     627.00      25.04
123.17     657.49      25.64
123.27     633.00      25.16
123.37     669.00      25.87
123.47     635.00      25.20
123.57     585.00      24.19
123.67     636.00      25.22
123.77     621.00      24.92
123.87     639.00      25.28
123.97     647.00      25.44
124.07     594.02      24.37
124.17     614.00      24.78
124.27     644.66      25.39
124.37     624.00      24.98
124.47     558.96      23.64
124.57     671.00      25.90
124.67     602.00      24.54
124.77     567.84      23.83
124.87     564.00      23.75
124.97     550.00      23.45
