  9.97     607.00      24.64
 10.07     603.31      24.56
 10.17     543.91      23.32
 10.27     616.00      24.82
 10.37     604.00      24.58
 10.47     641.00      25.32
 10.57     602.00      24.54
 10.67     586.00      24.21
 10.77     530.91      23.04
 10.87     568.92      23.85
 10.97     617.22      24.84
 11.07     593.72      24.37
 11.17     551.28      23.48
 11.27     563.04      23.73
 11.37     586.00      24.21
 11.47     548.00      23.41
 11.57     600.00      24.49
 11.67     563.61      23.74
 11.77     623.00      24.96
 11.87     653.00      25.55
 11.97     680.00      26.08
 12.07     625.03      25.00
 12.17     677.00      26.02
 12.27     655.00      25.59
 12.37     633.08      25.16
 12.47     637.00      25.24
 12.57     607.00      24.64
 12.67     598.19      24.46
 12.77     579.00      24.06
 12.87     568.00      23.83
 12.97     562.71      23.72
 13.07     550.00      23.45
 13.17     585.51      24.20
 13.27     541.00      23.26
 13.37     561.00      23.69
 13.47     552.00      23.49
 13.57     615.00      24.80
 13.67     557.59      23.61
 13.77     565.00      23.77
 13.87     593.39      24.36
 13.97     527.00      22.96
 14.07     572.00      23.92
 14.17     600.00      24.49
 14.27     531.00      23.04
 14.37     556.00      23.58
 14.47     521.00      22.83
 14.57     598.71      24.47
 14.67     631.00      25.12
 14.77     567.00      23.81
 14.87     559.00      23.64
 14.97     587.33      24.23
 15.07     592.00      24.33
 15.17     579.00      24.06
 15.27     565.00      23.77
 15.37     556.03      23.58
 15.47     549.00      23.43
 15.57     555.00      23.56
 15.67     588.00      24.25
 15.77     592.08      24.33
 15.87     520.00      22.80
 15.97     539.50      23.23
 16.07     526.00      22.93
 16.17     595.81      24.41
 16.27     548.82      23.43
 16.37     530.00      23.02
 16.47     535.97      23.15
 16.57     605.58      24.61
 16.67     579.54      24.07
 16.77     568.00      23.83
 16.87     591.00      24.31
 16.97     572.00      23.92
 17.07     610.54      24.71
 17.17     546.00      23.37
 17.27     518.14      22.76
 17.37     532.00      23.07
 17.47     567.54      23.82
 17.57     584.69      24.18
 17.67     556.00      23.58
 17.77     540.00      23.24
 17.87     570.00      23.87
 17.97     605.98      24.62
 18.07     569.00      23.85
 18.17     564.00      23.75
 18.27     578.00      24.04
 18.37     575.00      23.98
 18.47     550.00      23.45
 18.57     539.88      23.24
 18.67     537.26      23.18
 18.77     601.19      24.52
 18.87     514.87      22.69
 18.97     552.00      23.49
 19.07     571.00      23.90
 19.17     564.00      23.75
 19.27     501.00      22.38
 19.37     602.00      24.54
 19.47     531.31      23.05
 19.57     531.25      23.05
 19.67     549.00      23.43
 19.77     569.00      23.85
 19.87     564.46      23.76
 19.97     540.96      23.26
 20.07     544.00      23.32
 20.17     520.42      22.81
 20.27     509.83      22.58
 20.37     528.00      22.98
 20.47     536.00      23.15
 20.57     561.25      23.69
 20.67     531.00      23.04
 20.77     546.00      23.37
 20.87     565.00      23.77
 20.97     552.00      23.49
 21.07     526.00      22.93
 21.17     566.68      23.81
 21.27     529.00      23.00
 21.37     541.72      23.27
 21.47     560.00      23.66
 21.57     551.34      23.48
 21.67     527.00      22.96
 21.77     540.18      23.24
 21.87     523.00      22.87
 21.97     561.00      23.69
 22.07     547.00      23.39
 22.17     551.00      23.47
 22.27     510.92      22.60
 22.37     563.00      23.73
 22.47     565.00      23.77
 22.57     519.00      22.78
 22.67     545.77      23.36
 22.77     505.89      22.49
 22.87     517.46      22.75
 22.97     548.00      23.41
 23.07     573.00      23.94
 23.17     544.80      23.34
 23.27     536.53      23.16
 23.37     571.00      23.90
 23.47     563.00      23.73
 23.57     583.27      24.15
 23.67     532.00      23.07
 23.77     575.00      23.98
 23.87     520.00      22.80
 23.97     569.70      23.87
 24.07     577.00      24.02
 24.17     543.19      23.31
 24.27     613.00      24.76
 24.37     600.00      24.49
 24.47     582.83      24.14
 24.57     630.69      25.11
 24.67     617.94      24.86
 24.77     641.00      25.32
 24.87     621.00      24.92
 24.97     598.80      24.47
 25.07     555.00      23.56
 25.17     529.53      23.01
 25.27     585.84      24.20
 25.37     548.00      23.41
 25.47     569.00      23.85
 25.57     521.00      22.83
 25.67     552.00      23.49
 25.77     556.91      23.60
 25.87     567.90      23.83
 25.97     586.84      24.22
 26.07     568.00      23.83
 26.17     591.00      24.31
 26.27     512.00      22.63
 26.37     516.53      22.73
 26.47     535.00      23.13
 26.57     534.00      23.11
 26.67     549.00      23.43
 26.77     528.87      23.00
 26.87     526.03      22.94
 26.97     529.08      23.00
 27.07     571.00      23.90
 27.17     586.54      24.22
 27.27     578.00      24.04
 27.37     563.00      23.73
 27.47     556.00      23.58
 27.57     559.29      23.65
 27.67     562.41      23.72
 27.77     601.00      24.52
 27.87     585.00      24.19
 27.97     731.00      27.04
 28.07     816.00      28.57
 28.17     889.00      29.82
 28.27    1000.00      31.62
 28.37     858.48      29.30
 28.47     805.75      28.39
 28.57     723.56      26.90
 28.67     645.00      25.40
 28.77     746.00      27.31
 28.87     797.00      28.23
 28.97     827.00      28.76
 29.07     721.00      26.85
 29.17     708.00      26.61
 29.27     636.00      25.22
 29.37     584.41      24.17
 29.47     574.00      23.96
 29.57     593.00      24.35
 29.67     567.00      23.81
 29.77     580.95      24.10
 29.87     640.00      25.30
 29.97     556.00      23.58
 30.07     568.00      23.83
 30.17     540.13      23.24
 30.27     499.74      22.35
 30.37     552.00      23.49
 30.47     561.33      23.69
 30.57     533.00      23.09
 30.67     554.35      23.54
 30.77     567.00      23.81
 30.87     628.00      25.06
 30.97     637.00      25.24
 31.07     638.65      25.27
 31.17     585.50      24.20
 31.27     592.00      24.33
 31.37     556.00      23.58
 31.47     488.00      22.09
 31.57     510.00      22.58
 31.67     505.80      22.49
 31.77     550.00      23.45
 31.87     547.00      23.39
 31.97     566.44      23.80
 32.07     517.02      22.74
 32.17     547.00      23.39
 32.27     566.97      23.81
 32.37     554.00      23.54
 32.47     559.00      23.64
 32.57     560.24      23.67
 32.67     572.00      23.92
 32.77     504.00      22.45
 32.87     512.42      22.64
 32.97     507.00      22.52
 33.07     548.00      23.41
 33.17     522.00      22.85
 33.27     547.00      23.39
 33.37     524.52      22.90
 33.47     517.24      22.74
 33.57     599.00      24.47
 33.67     673.00      25.94
 33.77     714.96      26.74
 33.87     895.00      29.92
 33.97    1023.58      31.99
 34.07    1012.00      31.81
 34.17    1010.00      31.78
 34.27     906.00      30.10
 34.37     803.73      28.35
 34.47     615.00      24.80
 34.57     569.00      23.85
 34.67     587.51      24.24
 34.77     567.00      23.81
 34.87     564.71      23.76
 34.97     485.00      22.02
 35.07     522.00      22.85
 35.17     495.93      22.27
 35.27     471.00      21.70
 35.37     523.00      22.87
 35.47     502.00      22.41
 35.57     478.67      21.88
 35.67     487.33      22.08
 35.77     523.00      22.87
 35.87     555.00      23.56
 35.97     513.00      22.65
 36.07     524.00      22.89
 36.17     491.00      22.16
 36.27     526.00      22.93
 36.37     537.97      23.19
 36.47     515.00      22.69
 36.57     510.00      22.58
 36.67     534.40      23.12
 36.77     530.00      23.02
 36.87     496.00      22.27
 36.97     523.65      22.88
 37.07     515.00      22.69
 37.17     527.00      22.96
 37.27     520.00      22.80
 37.37     540.79      23.25
 37.47     530.00      23.02
 37.57     487.30      22.07
 37.67     549.00      23.43
 37.77     531.90      23.06
 37.87     491.00      22.16
 37.97     536.00      23.15
 38.07     521.00      22.83
 38.17     508.00      22.54
 38.27     517.00      22.74
 38.37     510.48      22.59
 38.47     529.00      23.00
 38.57     480.00      21.91
 38.67     493.00      22.20
 38.77     548.31      23.42
 38.87     543.00      23.30
 38.97     480.00      21.91
 39.07     540.00      23.24
 39.17     491.00      22.16
 39.27     509.06      22.56
 39.37     543.00      23.30
 39.47     458.00      21.40
 39.57     509.00      22.56
 39.67     503.00      22.43
 39.77     531.00      23.04
 39.87     526.00      22.93
 39.97     510.08      22.58
 40.07     483.07      21.98
 40.17     466.97      21.61
 40.27     547.32      23.39
 40.37     512.00      22.63
 40.47     480.00      21.91
 40.57     493.63      22.22
 40.67     497.00      22.29
 40.77     512.00      22.63
 40.87     500.00      22.36
 40.97     498.48      22.33
 41.07     479.00      21.89
 41.17     488.00      22.09
 41.27     470.17      21.68
 41.37     543.70      23.32
 41.47     511.00      22.61
 41.57     464.00      21.54
 41.67     519.00      22.78
 41.77     519.00      22.78
 41.87     469.85      21.68
 41.97     491.09      22.16
 42.07     516.00      22.72
 42.17     492.00      22.18
 42.27     537.00      23.17
 42.37     526.00      22.93
 42.47     598.00      24.45
 42.57     574.62      23.97
 42.67     651.12      25.52
 42.77     655.23      25.60
 42.87     565.00      23.77
 42.97     615.00      24.80
 43.07     549.00      23.43
 43.17     529.00      23.00
 43.27     525.00      22.91
 43.37     501.00      22.38
 43.47     535.00      23.13
 43.57     479.00      21.89
 43.67     501.98      22.40
 43.77     466.11      21.59
 43.87     525.00      22.91
 43.97     518.76      22.78
 44.07     535.48      23.14
 44.17     545.00      23.35
 44.27     512.00      22.63
 44.37     515.00      22.69
 44.47     488.00      22.09
 44.57     481.00      21.93
 44.67     534.67      23.12
 44.77     479.00      21.89
 44.87     458.00      21.40
 44.97     528.67      22.99
 45.07     525.45      22.92
 45.17     485.01      22.02
 45.27     514.98      22.69
 45.37     530.41      23.03
 45.47     522.00      22.85
 45.57     545.00      23.35
 45.67     487.00      22.07
 45.77     469.00      21.66
 45.87     551.00      23.47
 45.97     534.94      23.13
 46.07     498.00      22.32
 46.17     485.00      22.02
 46.27     538.81      23.21
 46.37     475.23      21.80
 46.47     498.84      22.33
 46.57     524.26      22.90
 46.67     511.00      22.61
 46.77     534.00      23.11
 46.87     508.00      22.54
 46.97     494.26      22.23
 47.07     487.16      22.07
 47.17     485.29      22.03
 47.27     478.00      21.86
 47.37     515.69      22.71
 47.47     550.00      23.45
 47.57     584.00      24.17
 47.67     585.00      24.19
 47.77     591.70      24.32
 47.87     601.13      24.52
 47.97     613.16      24.76
 48.07     609.06      24.68
 48.17     537.00      23.17
 48.27     517.67      22.75
 48.37     576.00      24.00
 48.47     511.00      22.61
 48.57     553.00      23.52
 48.67     498.00      22.32
 48.77     568.00      23.83
 48.87     567.27      23.82
 48.97     493.00      22.20
 49.07     584.32      24.17
 49.17     587.00      24.23
 49.27     567.01      23.81
 49.37     607.11      24.64
 49.47     639.81      25.29
 49.57     737.00      27.15
 49.67     894.87      29.91
 49.77    1126.43      33.56
 49.87    1454.24      38.13
 49.97    1845.49      42.96
 50.07    2331.00      48.28
 50.17    2510.00      50.10
 50.27    2439.20      49.39
 50.37    2253.00      47.47
 50.47    1850.00      43.01
 50.57    1487.00      38.56
 50.67    1051.00      32.42
 50.77     899.70      29.99
 50.87     739.48      27.19
 50.97     669.00      25.87
 51.07     660.00      25.69
 51.17     572.00      23.92
 51.27     579.80      24.08
 51.37     556.00      23.58
 51.47     587.25      24.23
 51.57     551.00      23.47
 51.67     569.00      23.85
 51.77     501.00      22.38
 51.87     497.31      22.30
 51.97     572.88      23.93
 52.07     521.00      22.83
 52.17     554.00      23.54
 52.27     490.72      22.15
 52.37     541.00      23.26
 52.47     496.59      22.28
 52.57     556.00      23.58
 52.67     587.00      24.23
 52.77     622.00      24.94
 52.87     669.18      25.87
 52.97     724.00      26.91
 53.07     814.00      28.53
 53.17     889.00      29.82
 53.27    1005.00      31.70
 53.37    1124.96      33.54
 53.47    1181.00      34.37
 53.57    1114.00      33.38
 53.67    1099.00      33.15
 53.77     972.00      31.18
 53.87     837.00      28.93
 53.97     787.46      28.06
 54.07     694.00      26.34
 54.17     617.89      24.86
 54.27     623.34      24.97
 54.37     560.00      23.66
 54.47     583.29      24.15
 54.57     557.00      23.60
 54.67     566.87      23.81
 54.77     521.00      22.83
 54.87     581.00      24.10
 54.97     569.00      23.85
 55.07     529.00      23.00
 55.17     513.84      22.67
 55.27     532.00      23.07
 55.37     578.00      24.04
 55.47     548.69      23.42
 55.57     568.00      23.83
 55.67     604.00      24.58
 55.77     588.00      24.25
 55.87     589.00      24.27
 55.97     619.00      24.88
 56.07     702.10      26.50
 56.17     774.00      27.82
 56.27     938.58      30.64
 56.37    1083.19      32.91
 56.47    1357.00      36.84
 56.57    1719.00      41.46
 56.67    2156.00      46.43
 56.77    2508.98      50.09
 56.87    2604.00      51.03
 56.97    2681.61      51.78
 57.07    2383.10      48.82
 57.17    2021.00      44.96
 57.27    1590.66      39.88
 57.37    1328.00      36.44
 57.47    1053.00      32.45
 57.57     873.00      29.55
 57.67     766.27      27.68
 57.77     694.00      26.34
 57.87     687.00      26.21
 57.97     707.45      26.60
 58.07     697.00      26.40
 58.17     708.00      26.61
 58.27     778.72      27.91
 58.37     844.00      29.05
 58.47     953.00      30.87
 58.57    1120.00      33.47
 58.67    1256.18      35.44
 58.77    1366.00      36.96
 58.87    1394.22      37.34
 58.97    1563.88      39.55
 59.07    1518.78      38.97
 59.17    1486.00      38.55
 59.27    1484.00      38.52
 59.37    1291.17      35.93
 59.47    1340.00      36.61
 59.57    1171.00      34.22
 59.67    1088.81      33.00
 59.77    1189.00      34.48
 59.87    1301.00      36.07
 59.97    1348.94      36.73
 60.07    1432.00      37.84
 60.17    1494.63      38.66
 60.27    1502.00      38.76
 60.37    1494.00      38.65
 60.47    1423.00      37.72
 60.57    1278.00      35.75
 60.67    1093.00      33.06
 60.77     916.00      30.27
 60.87     769.14      27.73
 60.97     721.00      26.85
 61.07     629.78      25.10
 61.17     626.00      25.02
 61.27     590.00      24.29
 61.37     656.00      25.61
 61.47     734.31      27.10
 61.57     716.73      26.77
 61.67     845.00      29.07
 61.77     884.00      29.73
 61.87    1181.14      34.37
 61.97    1205.56      34.72
 62.07    1372.00      37.04
 62.17    1496.00      38.68
 62.27    1388.00      37.26
 62.37    1403.56      37.46
 62.47    1162.20      34.09
 62.57    1056.00      32.50
 62.67     876.89      29.61
 62.77     831.00      28.83
 62.87     666.00      25.81
 62.97     688.99      26.25
 63.07     601.00      24.52
 63.17     607.00      24.64
 63.27     600.00      24.49
 63.37     597.00      24.43
 63.47     573.00      23.94
 63.57     597.00      24.43
 63.67     609.00      24.68
 63.77     580.00      24.08
 63.87     652.00      25.53
 63.97     681.00      26.10
 64.07     736.00      27.13
 64.17     755.00      27.48
 64.27     768.39      27.72
 64.37     947.00      30.77
 64.47     990.62      31.47
 64.57     936.00      30.59
 64.67     983.53      31.36
 64.77    1001.00      31.64
 64.87     993.00      31.51
 64.97     868.30      29.47
 65.07     848.00      29.12
 65.17     781.77      27.96
 65.27     727.34      26.97
 65.37     686.73      26.21
 65.47     633.85      25.18
 65.57     583.00      24.15
 65.67     631.55      25.13
 65.77     577.03      24.02
 65.87     528.00      22.98
 65.97     602.09      24.54
 66.07     553.00      23.52
 66.17     549.81      23.45
 66.27     551.00      23.47
 66.37     572.00      23.92
 66.47     584.00      24.17
 66.57     551.00      23.47
 66.67     575.00      23.98
 66.77     578.00      24.04
 66.87     594.00      24.37
 66.97     576.00      24.00
 67.07     612.00      24.74
 67.17     643.00      25.36
 67.27     767.95      27.71
 67.37     895.00      29.92
 67.47    1100.00      33.17
 67.57    1251.00      35.37
 67.67    1512.28      38.89
 67.77    1750.00      41.83
 67.87    2123.45      46.08
 67.97    2209.57      47.01
 68.07    2383.18      48.82
 68.17    2376.56      48.75
 68.27    2222.00      47.14
 68.37    1974.45      44.43
 68.47    1805.00      42.49
 68.57    1603.00      40.04
 68.67    1223.22      34.97
 68.77    1025.00      32.02
 68.87     836.00      28.91
 68.97     815.74      28.56
 69.07     758.00      27.53
 69.17     663.00      25.75
 69.27     581.30      24.11
 69.37     619.00      24.88
 69.47     623.00      24.96
 69.57     567.00      23.81
 69.67     622.00      24.94
 69.77     581.00      24.10
 69.87     555.00      23.56
 69.97     603.15      24.56
 70.07     592.00      24.33
 70.17     627.00      25.04
 70.27     552.46      23.50
 70.37     588.31      24.26
 70.47     596.00      24.41
 70.57     596.39      24.42
 70.67     565.00      23.77
 70.77     575.00      23.98
 70.87     585.00      24.19
 70.97     610.41      24.71
 71.07     635.00      25.20
 71.17     722.00      26.87
 71.27     823.88      28.70
 71.37     938.00      30.63
 71.47    1069.00      32.70
 71.57    1220.03      34.93
 71.67    1411.00      37.56
 71.77    1608.00      40.10
 71.87    1830.00      42.78
 71.97    1839.16      42.89
 72.07    1993.00      44.64
 72.17    1794.00      42.36
 72.27    1901.00      43.60
 72.37    1660.40      40.75
 72.47    1405.45      37.49
 72.57    1336.00      36.55
 72.67    1195.00      34.57
 72.77    1098.52      33.14
 72.87    1021.18      31.96
 72.97     907.00      30.12
 73.07     802.76      28.33
 73.17     814.00      28.53
 73.27     678.00      26.04
 73.37     730.20      27.02
 73.47     628.00      25.06
 73.57     628.00      25.06
 73.67     628.00      25.06
 73.77     570.00      23.87
 73.87     594.02      24.37
 73.97     606.00      24.62
 74.07     625.00      25.00
 74.17     575.00      23.98
 74.27     603.00      24.56
 74.37     628.00      25.06
 74.47     617.07      24.84
 74.57     660.00      25.69
 74.67     673.00      25.94
 74.77     651.00      25.51
 74.87     526.58      22.95
 74.97     541.56      23.27
 75.07     513.65      22.66
 75.17     577.00      24.02
 75.27     551.00      23.47
 75.37     593.00      24.35
 75.47     561.00      23.69
 75.57     580.00      24.08
 75.67     575.21      23.98
 75.77     569.00      23.85
 75.87     570.00      23.87
 75.97     600.00      24.49
 76.07     622.50      24.95
 76.17     625.00      25.00
 76.27     695.62      26.37
 76.37     699.70      26.45
 76.47     694.00      26.34
 76.57     683.00      26.13
 76.67     701.00      26.48
 76.77     644.48      25.39
 76.87     690.00      26.27
 76.97     598.00      24.45
 77.07     635.00      25.20
 77.17     645.19      25.40
 77.27     583.00      24.15
 77.37     570.22      23.88
 77.47     582.00      24.12
 77.57     535.00      23.13
 77.67     515.00      22.69
 77.77     558.00      23.62
 77.87     540.00      23.24
 77.97     559.55      23.65
 78.07     505.13      22.48
 78.17     489.68      22.13
 78.27     506.79      22.51
 78.37     546.00      23.37
 78.47     542.28      23.29
 78.57     510.00      22.58
 78.67     512.75      22.64
 78.77     531.00      23.04
 78.87     564.48      23.76
 78.97     535.53      23.14
 79.07     506.00      22.49
 79.17     493.93      22.22
 79.27     490.70      22.15
 79.37     514.00      22.67
 79.47     571.87      23.91
 79.57     562.00      23.71
 79.67     536.00      23.15
 79.77     526.44      22.94
 79.87     506.00      22.49
 79.97     542.00      23.28
 80.07     543.69      23.32
 80.17     558.00      23.62
 80.27     575.69      23.99
 80.37     603.00      24.56
 80.47     580.00      24.08
 80.57     591.00      24.31
 80.67     624.64      24.99
 80.77     646.00      25.42
 80.87     664.00      25.77
 80.97     720.86      26.85
 81.07     705.00      26.55
 81.17     695.00      26.36
 81.27     762.00      27.60
 81.37     783.17      27.99
 81.47     754.00      27.46
 81.57     761.00      27.59
 81.67     737.00      27.15
 81.77     734.00      27.09
 81.87     756.44      27.50
 81.97     725.00      26.93
 82.07     642.00      25.34
 82.17     636.36      25.23
 82.27     657.00      25.63
 82.37     645.00      25.40
 82.47     624.14      24.98
 82.57     589.00      24.27
 82.67     569.00      23.85
 82.77     518.00      22.76
 82.87     547.00      23.39
 82.97     539.00      23.22
 83.07     531.00      23.04
 83.17     517.00      22.74
 83.27     528.75      22.99
 83.37     541.60      23.27
 83.47     553.00      23.52
 83.57     519.00      22.78
 83.67     571.00      23.90
 83.77     530.98      23.04
 83.87     583.27      24.15
 83.97     564.03      23.75
 84.07     571.00      23.90
 84.17     569.00      23.85
 84.27     570.48      23.88
 84.37     548.78      23.43
 84.47     548.00      23.41
 84.57     529.00      23.00
 84.67     569.00      23.85
 84.77     493.00      22.20
 84.87     541.00      23.26
 84.97     509.00      22.56
 85.07     534.00      23.11
 85.17     530.00      23.02
 85.27     550.00      23.45
 85.37     527.00      22.96
 85.47     555.50      23.57
 85.57     565.00      23.77
 85.67     531.00      23.04
 85.77     501.00      22.38
 85.87     539.00      23.22
 85.97     528.96      23.00
 86.07     483.00      21.98
 86.17     542.00      23.28
 86.27     526.94      22.96
 86.37     540.00      23.24
 86.47     551.00      23.47
 86.57     539.00      23.22
 86.67     590.00      24.29
 86.77     579.00      24.06
 86.87     552.82      23.51
 86.97     544.00      23.32
 87.07     674.00      25.96
 87.17     600.59      24.51
 87.27     687.00      26.21
 87.37     648.00      25.46
 87.47     665.00      25.79
 87.57     637.00      25.24
 87.67     665.21      25.79
 87.77     572.73      23.93
 87.87     602.00      24.54
 87.97     607.00      24.64
 88.07     594.00      24.37
 88.17     575.11      23.98
 88.27     604.00      24.58
 88.37     610.00      24.70
 88.47     563.00      23.73
 88.57     562.00      23.71
 88.67     593.00      24.35
 88.77     538.44      23.20
 88.87     614.00      24.78
 88.97     629.16      25.08
 89.07     570.00      23.87
 89.17     674.00      25.96
 89.27     585.00      24.19
 89.37     580.00      24.08
 89.47     588.00      24.25
 89.57     555.93      23.58
 89.67     541.00      23.26
 89.77     588.00      24.25
 89.87     601.70      24.53
 89.97     568.14      23.84
 90.07     565.00      23.77
 90.17     592.00      24.33
 90.27     564.27      23.75
 90.37     501.00      22.38
 90.47     501.00      22.38
 90.57     503.76      22.44
 90.67     568.58      23.84
 90.77     503.72      22.44
 90.87     566.00      23.79
 90.97     482.57      21.97
 91.07     528.16      22.98
 91.17     505.00      22.47
 91.27     567.83      23.83
 91.37     514.72      22.69
 91.47     527.00      22.96
 91.57     558.00      23.62
 91.67     569.74      23.87
 91.77     536.00      23.15
 91.87     531.00      23.04
 91.97     541.00      23.26
 92.07     530.46      23.03
 92.17     618.00      24.86
 92.27     615.00      24.80
 92.37     592.00      24.33
 92.47     649.00      25.48
 92.57     602.00      24.54
 92.67     652.00      25.53
 92.77     712.00      26.68
 92.87     702.00      26.50
 92.97     789.00      28.09
 93.07     782.00      27.96
 93.17     746.62      27.32
 93.27     812.00      28.50
 93.37     793.00      28.16
 93.47     818.00      28.60
 93.57     760.11      27.57
 93.67     795.23      28.20
 93.77     827.00      28.76
 93.87     894.00      29.90
 93.97     850.00      29.15
 94.07     862.00      29.36
 94.17     882.11      29.70
 94.27     891.00      29.85
 94.37     823.00      28.69
 94.47     900.40      30.01
 94.57     836.30      28.92
 94.67     945.00      30.74
 94.77     920.00      30.33
 94.87     970.00      31.14
 94.97     864.81      29.41
 95.07     892.00      29.87
 95.17     861.00      29.34
 95.27     851.02      29.17
 95.37     763.00      27.62
 95.47     751.00      27.40
 95.57     760.00      27.57
 95.67     707.00      26.59
 95.77     710.00      26.65
 95.87     715.00      26.74
 95.97     704.00      26.53
 96.07     682.00      26.12
 96.17     702.00      26.50
 96.27     729.00      27.00
 96.37     757.00      27.51
 96.47     795.00      28.20
 96.57     885.72      29.76
 96.67     950.39      30.83
 96.77     965.00      31.06
 96.87    1010.00      31.78
 96.97    1131.81      33.64
 97.07    1223.00      34.97
 97.17    1351.57      36.76
 97.27    1308.12      36.17
 97.37    1338.82      36.59
 97.47    1398.78      37.40
 97.57    1402.00      37.44
 97.67    1469.95      38.34
 97.77    1350.06      36.74
 97.87    1282.52      35.81
 97.97    1228.00      35.04
 98.07    1232.00      35.10
 98.17    1139.00      33.75
 98.27    1086.00      32.95
 98.37    1027.00      32.05
 98.47     965.00      31.06
 98.57     891.93      29.87
 98.67     851.12      29.17
 98.77     840.00      28.98
 98.87     829.00      28.79
 98.97     815.00      28.55
 99.07     814.17      28.53
 99.17     860.00      29.33
 99.27     856.00      29.26
 99.37     931.00      30.51
 99.47    1025.00      32.02
 99.57    1016.00      31.87
 99.67    1163.00      34.10
 99.77    1314.00      36.25
 99.87    1449.22      38.07
 99.97    1537.00      39.20
100.07    1601.00      40.01
100.17    1700.00      41.23
100.27    1802.23      42.45
100.37    1996.00      44.68
100.47    2067.00      45.46
100.57    2004.45      44.77
100.67    2148.00      46.35
100.77    2031.00      45.07
100.87    2124.72      46.09
100.97    1963.00      44.31
101.07    1953.00      44.19
101.17    1976.00      44.45
101.27    1863.09      43.16
101.37    1745.00      41.77
101.47    1640.00      40.50
101.57    1576.64      39.71
101.67    1453.00      38.12
101.77    1367.00      36.97
101.87    1271.06      35.65
101.97    1229.00      35.06
102.07    1191.16      34.51
102.17    1195.99      34.58
102.27    1144.00      33.82
102.37    1166.00      34.15
102.47    1136.00      33.70
102.57    1078.00      32.83
102.67    1097.44      33.13
102.77    1075.00      32.79
102.87    1057.00      32.51
102.97    1025.54      32.02
103.07     918.45      30.31
103.17     889.05      29.82
103.27     843.00      29.03
103.37     788.00      28.07
103.47     739.81      27.20
103.57     763.00      27.62
103.67     736.98      27.15
103.77     643.00      25.36
103.87     652.00      25.53
103.97     602.00      24.54
104.07     618.56      24.87
104.17     580.62      24.10
104.27     553.00      23.52
104.37     585.57      24.20
104.47     578.00      24.04
104.57     595.00      24.39
104.67     552.00      23.49
104.77     531.00      23.04
104.87     557.00      23.60
104.97     504.00      22.45
105.07     507.12      22.52
105.17     564.00      23.75
105.27     552.75      23.51
105.37     515.00      22.69
105.47     558.00      23.62
105.57     599.00      24.47
105.67     567.52      23.82
105.77     565.00      23.77
105.87     550.00      23.45
105.97     593.00      24.35
106.07     583.00      24.15
106.17     587.91      24.25
106.27     595.00      24.39
106.37     586.00      24.21
106.47     599.00      24.47
106.57     627.00      25.04
106.67     637.00      25.24
106.77     647.00      25.44
106.87     710.23      26.65
106.97     638.08      25.26
107.07     624.00      24.98
107.17     664.16      25.77
107.27     695.00      26.36
107.37     658.00      25.65
107.47     667.70      25.84
107.57     667.00      25.83
107.67     688.00      26.23
107.77     739.11      27.19
107.87     652.00      25.53
107.97     653.73      25.57
108.07     730.15      27.02
108.17     655.02      25.59
108.27     691.05      26.29
108.37     685.00      26.17
108.47     739.72      27.20
108.57     720.00      26.83
108.67     687.00      26.21
108.77     649.72      25.49
108.87     715.91      26.76
108.97     708.00      26.61
109.07     668.91      25.86
109.17     684.41      26.16
109.27     677.24      26.02
109.37     628.49      25.07
109.47     607.68      24.65
109.57     605.00      24.60
109.67     692.00      26.31
109.77     569.00      23.85
109.87     630.00      25.10
109.97     570.02      23.88
110.07     535.00      23.13
110.17     626.00      25.02
110.27     574.00      23.96
110.37     584.00      24.17
110.47     532.00      23.07
110.57     537.00      23.17
110.67     544.70      23.34
110.77     540.22      23.24
110.87     522.24      22.85
110.97     525.71      22.93
111.07     512.00      22.63
111.17     556.00      23.58
111.27     572.36      23.92
111.37     536.10      23.15
111.47     566.00      23.79
111.57     534.00      23.11
111.67     582.38      24.13
111.77     499.00      22.34
111.87     583.58      24.16
111.97     541.83      23.28
112.07     569.00      23.85
112.17     510.00      22.58
112.27     602.32      24.54
112.37     560.38      23.67
112.47     561.00      23.69
112.57     563.20      23.73
112.67     606.66      24.63
112.77     625.00      25.00
112.87     662.51      25.74
112.97     692.00      26.31
113.07     732.08      27.06
113.17     719.64      26.83
113.27     680.48      26.09
113.37     662.00      25.73
113.47     769.00      27.73
113.57     773.95      27.82
113.67     875.66      29.59
113.77     924.46      30.40
113.87     895.00      29.92
113.97     982.75      31.35
114.07    1026.00      32.03
114.17    1089.00      33.00
114.27    1090.00      33.02
114.37    1219.00      34.91
114.47    1392.00      37.31
114.57    1464.00      38.26
114.67    1614.00      40.17
114.77    1763.86      42.00
114.87    1895.90      43.54
114.97    2085.68      45.67
115.07    2336.63      48.34
115.17    2572.00      50.71
115.27    2854.00      53.42
115.37    3115.00      55.81
115.47    3458.00      58.80
115.57    3775.66      61.45
115.67    3978.00      63.07
115.77    4518.00      67.22
115.87    5053.63      71.09
115.97    5217.00      72.23
116.07    5679.85      75.36
116.17    5931.00      77.01
116.27    6295.00      79.34
116.37    6608.00      81.29
116.47    6810.08      82.52
116.57    6882.63      82.96
116.67    7126.00      84.42
116.77    7031.82      83.86
116.87    6914.00      83.15
116.97    6702.00      81.87
117.07    6514.85      80.71
117.17    6008.52      77.51
117.27    5745.00      75.80
117.37    5418.33      73.61
117.47    5154.21      71.79
117.57    4562.00      67.54
117.67    4308.00      65.64
117.77    3963.00      62.95
117.87    3720.00      60.99
117.97    3384.00      58.17
118.07    2881.30      53.68
118.17    2526.00      50.26
118.27    2334.50      48.32
118.37    1905.43      43.65
118.47    1839.82      42.89
118.57    1552.00      39.40
118.67    1452.01      38.11
118.77    1174.00      34.26
118.87    1163.84      34.12
118.97     981.05      31.32
119.07     911.93      30.20
119.17     886.00      29.77
119.27     830.00      28.81
119.37     800.06      28.29
119.47     758.76      27.55
119.57     680.26      26.08
119.67     697.00      26.40
119.77     655.00      25.59
119.87     638.44      25.27
119.97     594.00      24.37
120.07     589.14      24.27
120.17     600.00      24.49
120.27     562.90      23.73
120.37     560.30      23.67
120.47     607.03      24.64
120.57     595.61      24.41
120.67     568.36      23.84
120.77     584.00      24.17
120.87     589.00      24.27
120.97     612.00      24.74
121.07     538.00      23.19
121.17     568.00      23.83
121.27     595.16      24.40
121.37     560.00      23.66
121.47     585.00      24.19
121.57     589.49      24.28
121.67     581.00      24.10
121.77     590.00      24.29
121.87     574.00      23.96
121.97     585.00      24.19
122.07     594.00      24.37
122.17     622.00      24.94
122.27     629.00      25.08
122.37     620.00      24.90
122.47     622.00      24.94
122.57     642.00      25.34
122.67     657.00      25.63
122.77     649.35      25.48
122.87     684.85      26.17
122.97     616.47      24.83
123.07     597.00      24.43
123.17     676.00      26.00
123.27     665.00      25.79
123.37     645.00      25.40
123.47     646.00      25.42
123.57     629.36      25.09
123.67     663.54      25.76
123.77     596.26      24.42
123.87     639.00      25.28
123.97     652.62      25.55
124.07     653.00      25.55
124.17     690.00      26.27
124.27     608.00      24.66
124.37     597.00      24.43
124.47     602.89      24.55
124.57     623.00      24.96
124.67     594.90      24.39
124.77     556.00      23.58
124.87     585.00      24.19
124.97     587.00      24.23
