  9.97     560.30      23.67
 10.07     596.00      24.41
 10.17     573.00      23.94
 10.27     599.78      24.49
 10.37     610.00      24.70
 10.47     556.00      23.58
 10.57     540.06      23.24
 10.67     598.00      24.45
 10.77     534.99      23.13
 10.87     596.45      24.42
 10.97     593.00      24.35
 11.07     588.55      24.26
 11.17     594.85      24.39
 11.27     605.00      24.60
 11.37     558.31      23.63
 11.47     606.41      24.63
 11.57     561.81      23.70
 11.67     640.00      25.30
 11.77     632.00      25.14
 11.87     654.00      25.57
 11.97     696.00      26.38
 12.07     682.00      26.12
 12.17     701.99      26.49
 12.27     711.74      26.68
 12.37     678.40      26.05
 12.47     697.78      26.42
 12.57     599.00      24.47
 12.67     601.00      24.52
 12.77     583.00      24.15
 12.87     581.00      24.10
 12.97     533.00      23.09
 13.07     571.00      23.90
 13.17     547.00      23.39
 13.27     538.00      23.19
 13.37     578.00      24.04
 13.47     592.61      24.34
 13.57     582.00      24.12
 13.67     620.50      24.91
 13.77     526.75      22.95
 13.87     563.00      23.73
 13.97     527.75      22.97
 14.07     547.00      23.39
 14.17     580.52      24.09
 14.27     567.00      23.81
 14.37     569.55      23.87
 14.47     567.00      23.81
 14.57     553.06      23.52
 14.67     620.30      24.91
 14.77     599.00      24.47
 14.87     601.00      24.52
 14.97     537.00      23.17
 15.07     578.14      24.04
 15.17     611.55      24.73
 15.27     602.00      24.54
 15.37     594.00      24.37
 15.47     540.88      23.26
 15.57     579.00      24.06
 15.67     548.00      23.41
 15.77     556.00      23.58
 15.87     527.50      22.97
 15.97     580.00      24.08
 16.07     539.00      23.22
 16.17     556.00      23.58
 16.27     570.00      23.87
 16.37     513.00      22.65
 16.47     541.00      23.26
 16.57     559.00      23.64
 16.67     579.95      24.08
 16.77     591.41      24.32
 16.87     553.00      23.52
 16.97     546.25      23.37
 17.07     576.00      24.00
 17.17     572.00      23.92
 17.27     578.00      24.04
 17.37     554.00      23.54
 17.47     578.00      24.04
 17.57     547.00      23.39
 17.67     548.00      23.41
 17.77     554.00      23.54
 17.87     554.00      23.54
 17.97     507.00      22.52
 18.07     606.00      24.62
 18.17     531.50      23.05
 18.27     553.00      23.52
 18.37     538.00      23.19
 18.47     548.00      23.41
 18.57     575.00      23.98
 18.67     560.00      23.66
 18.77     516.00      22.72
 18.87     555.00      23.56
 18.97     594.58      24.38
 19.07     507.00      22.52
 19.17     539.00      23.22
 19.27     547.00      23.39
 19.37     548.00      23.41
 19.47     559.00      23.64
 19.57     557.68      23.62
 19.67     551.00      23.47
 19.77     527.41      22.97
 19.87     567.00      23.81
 19.97     561.00      23.69
 20.07     533.37      23.09
 20.17     515.00      22.69
 20.27     544.00      23.32
 20.37     596.00      24.41
 20.47     538.14      23.20
 20.57     529.00      23.00
 20.67     459.00      21.42
 20.77     553.64      23.53
 20.87     544.00      23.32
 20.97     559.00      23.64
 21.07     543.00      23.30
 21.17     588.00      24.25
 21.27     523.00      22.87
 21.37     562.00      23.71
 21.47     574.44      23.97
 21.57     508.00      22.54
 21.67     520.39      22.81
 21.77     570.00      23.87
 21.87     545.65      23.36
 21.97     540.00      23.24
 22.07     512.42      22.64
 22.17     547.59      23.40
 22.27     549.00      23.43
 22.37     544.00      23.32
 22.47     541.00      23.26
 22.57     549.00      23.43
 22.67     535.00      23.13
 22.77     552.00      23.49
 22.87     505.64      22.49
 22.97     568.40      23.84
 23.07     522.00      22.85
 23.17     543.00      23.30
 23.27     541.28      23.27
 23.37     566.00      23.79
 23.47     581.00      24.10
 23.57     501.08      22.38
 23.67     549.89      23.45
 23.77     549.00      23.43
 23.87     499.88      22.36
 23.97     504.17      22.45
 24.07     595.41      24.40
 24.17     572.65      23.93
 24.27     523.99      22.89
 24.37     575.00      23.98
 24.47     580.06      24.08
 24.57     619.00      24.88
 24.67     660.19      25.69
 24.77     609.00      24.68
 24.87     628.00      25.06
 24.97     591.31      24.32
 25.07     629.00      25.08
 25.17     578.00      24.04
 25.27     535.00      23.13
 25.37     549.47      23.44
 25.47     567.00      23.81
 25.57     538.83      23.21
 25.67     599.00      24.47
 25.77     563.00      23.73
 25.87     523.23      22.87
 25.97     518.00      22.76
 26.07     538.00      23.19
 26.17     559.05      23.64
 26.27     566.38      23.80
 26.37     571.00      23.90
 26.47     553.77      23.53
 26.57     556.00      23.58
 26.67     552.39      23.50
 26.77     575.22      23.98
 26.87     546.00      23.37
 26.97     517.78      22.75
 27.07     553.00      23.52
 27.17     574.00      23.96
 27.27     518.00      22.76
 27.37     507.86      22.54
 27.47     532.03      23.07
 27.57     562.72      23.72
 27.67     539.00      23.22
 27.77     593.00      24.35
 27.87     631.00      25.12
 27.97     669.50      25.87
 28.07     803.00      28.34
 28.17     851.67      29.18
 28.27    1025.93      32.03
 28.37     904.00      30.07
 28.47     757.00      27.51
 28.57     744.26      27.28
 28.67     660.00      25.69
 28.77     709.00      26.63
 28.87     793.00      28.16
 28.97     796.00      28.21
 29.07     819.59      28.63
 29.17     751.00      27.40
 29.27     688.06      26.23
 29.37     623.34      24.97
 29.47     582.00      24.12
 29.57     573.00      23.94
 29.67     572.00      23.92
 29.77     606.00      24.62
 29.87     609.00      24.68
 29.97     604.00      24.58
 30.07     579.00      24.06
 30.17     561.00      23.69
 30.27     534.00      23.11
 30.37     551.00      23.47
 30.47     576.05      24.00
 30.57     585.38      24.19
 30.67     559.00      23.64
 30.77     573.99      23.96
 30.87     631.00      25.12
 30.97     627.00      25.04
 31.07     602.67      24.55
 31.17     589.00      24.27
 31.27     555.68      23.57
 31.37     524.00      22.89
 31.47     556.00      23.58
 31.57     530.00      23.02
 31.67     516.00      22.72
 31.77     524.00      22.89
 31.87     494.83      22.24
 31.97     491.00      22.16
 32.07     532.00      23.07
 32.17     481.39      21.94
 32.27     564.79      23.77
 32.37     559.00      23.64
 32.47     593.00      24.35
 32.57     491.20      22.16
 32.67     568.32      23.84
 32.77     566.00      23.79
 32.87     513.62      22.66
 32.97     531.00      23.04
 33.07     590.00      24.29
 33.17     565.00      23.77
 33.27     530.00      23.02
 33.37     557.00      23.60
 33.47     551.09      23.48
 33.57     601.06      24.52
 33.67     573.00      23.94
 33.77     749.00      27.37
 33.87     887.00      29.78
 33.97     953.72      30.88
 34.07    1053.00      32.45
 34.17    1013.00      31.83
 34.27     920.00      30.33
 34.37     777.00      27.87
 34.47     689.88      26.27
 34.57     615.00      24.80
 34.67     562.00      23.71
 34.77     549.38      23.44
 34.87     530.00      23.02
 34.97     565.27      23.78
 35.07     538.00      23.19
 35.17     512.00      22.63
 35.27     481.77      21.95
 35.37     499.00      22.34
 35.47     533.48      23.10
 35.57     505.00      22.47
 35.67     532.00      23.07
 35.77     502.00      22.41
 35.87     544.40      23.33
 35.97     526.00      22.93
 36.07     517.00      22.74
 36.17     473.00      21.75
 36.27     516.00      22.72
 36.37     514.00      22.67
 36.47     503.00      22.43
 36.57     435.00      20.86
 36.67     457.00      21.38
 36.77     523.00      22.87
 36.87     544.51      23.33
 36.97     493.02      22.20
 37.07     484.39      22.01
 37.17     540.00      23.24
 37.27     525.00      22.91
 37.37     537.73      23.19
 37.47     536.11      23.15
 37.57     548.44      23.42
 37.67     531.00      23.04
 37.77     549.66      23.44
 37.87     514.00      22.67
 37.97     513.00      22.65
 38.07     510.00      22.58
 38.17     485.00      22.02
 38.27     512.00      22.63
 38.37     546.00      23.37
 38.47     483.98      22.00
 38.57     507.00      22.52
 38.67     550.44      23.46
 38.77     541.47      23.27
 38.87     555.00      23.56
 38.97     511.00      22.61
 39.07     466.00      21.59
 39.17     497.00      22.29
 39.27     485.77      22.04
 39.37     514.20      22.68
 39.47     521.00      22.83
 39.57     553.01      23.52
 39.67     493.00      22.20
 39.77     461.67      21.49
 39.87     505.00      22.47
 39.97     519.80      22.80
 40.07     525.81      22.93
 40.17     481.00      21.93
 40.27     467.00      21.61
 40.37     468.00      21.63
 40.47     525.54      22.92
 40.57     467.64      21.62
 40.67     490.00      22.14
 40.77     518.00      22.76
 40.87     442.00      21.02
 40.97     495.00      22.25
 41.07     473.36      21.76
 41.17     471.00      21.70
 41.27     514.00      22.67
 41.37     510.57      22.60
 41.47     503.00      22.43
 41.57     481.25      21.94
 41.67     541.63      23.27
 41.77     469.25      21.66
 41.87     511.53      22.62
 41.97     533.00      23.09
 42.07     478.00      21.86
 42.17     533.00      23.09
 42.27     515.00      22.69
 42.37     608.00      24.66
 42.47     623.23      24.96
 42.57     622.00      24.94
 42.67     586.00      24.21
 42.77     584.00      24.17
 42.87     536.00      23.15
 42.97     573.00      23.94
 43.07     535.66      23.14
 43.17     523.00      22.87
 43.27     476.00      21.82
 43.37     568.00      23.83
 43.47     553.01      23.52
 43.57     522.00      22.85
 43.67     480.33      21.92
 43.77     495.00      22.25
 43.87     538.00      23.19
 43.97     538.83      23.21
 44.07     495.00      22.25
 44.17     537.00      23.17
 44.27     548.00      23.41
 44.37     476.00      21.82
 44.47     480.00      21.91
 44.57     518.00      22.76
 44.67     475.00      21.79
 44.77     481.00      21.93
 44.87     496.00      22.27
 44.97     507.21      22.52
 45.07     542.50      23.29
 45.17     491.00      22.16
 45.27     476.00      21.82
 45.37     509.18      22.56
 45.47     529.00      23.00
 45.57     480.00      21.91
 45.67     520.00      22.80
 45.77     489.00      22.11
 45.87     575.00      23.98
 45.97     504.00      22.45
 46.07     459.25      21.43
 46.17     524.15      22.89
 46.27     505.08      22.47
 46.37     490.00      22.14
 46.47     513.19      22.65
 46.57     496.00      22.27
 46.67     521.00      22.83
 46.77     510.00      22.58
 46.87     504.00      22.45
 46.97     465.42      21.57
 47.07     499.00      22.34
 47.17     519.32      22.79
 47.27     506.39      22.50
 47.37     520.00      22.80
 47.47     503.52      22.44
 47.57     515.00      22.69
 47.67     564.00      23.75
 47.77     631.86      25.14
 47.87     615.61      24.81
 47.97     586.95      24.23
 48.07     543.54      23.31
 48.17     575.00      23.98
 48.27     551.25      23.48
 48.37     517.85      22.76
 48.47     554.00      23.54
 48.57     531.00      23.04
 48.67     518.00      22.76
 48.77     551.91      23.49
 48.87     506.00      22.49
 48.97     551.00      23.47
 49.07     543.00      23.30
 49.17     574.00      23.96
 49.27     642.00      25.34
 49.37     638.00      25.26
 49.47     653.61      25.57
 49.57     745.28      27.30
 49.67     898.00      29.97
 49.77    1144.16      33.83
 49.87    1470.46      38.35
 49.97    1924.00      43.86
 50.07    2214.48      47.06
 50.17    2501.03      50.01
 50.27    2499.00      49.99
 50.37    2271.00      47.66
 50.47    1941.00      44.06
 50.57    1435.00      37.88
 50.67    1145.04      33.84
 50.77     847.86      29.12
 50.87     653.00      25.55
 50.97     677.00      26.02
 51.07     622.00      24.94
 51.17     609.87      24.70
 51.27     600.75      24.51
 51.37     577.00      24.02
 51.47     527.79      22.97
 51.57     587.38      24.24
 51.67     574.00      23.96
 51.77     548.00      23.41
 51.87     491.12      22.16
 51.97     597.00      24.43
 52.07     573.09      23.94
 52.17     573.00      23.94
 52.27     571.42      23.90
 52.37     580.55      24.09
 52.47     588.00      24.25
 52.57     579.00      24.06
 52.67     605.27      24.60
 52.77     544.36      23.33
 52.87     579.17      24.07
 52.97     719.14      26.82
 53.07     860.00      29.33
 53.17     951.00      30.84
 53.27     978.80      31.29
 53.37    1157.00      34.01
 53.47    1179.00      34.34
 53.57    1187.00      34.45
 53.67    1069.00      32.70
 53.77     981.22      31.32
 53.87     828.00      28.77
 53.97     747.00      27.33
 54.07     680.00      26.08
 54.17     615.00      24.80
 54.27     571.98      23.92
 54.37     573.00      23.94
 54.47     597.00      24.43
 54.57     541.00      23.26
 54.67     502.00      22.41
 54.77     615.00      24.80
 54.87     583.56      24.16
 54.97     570.00      23.87
 55.07     526.00      22.93
 55.17     573.00      23.94
 55.27     549.00      23.43
 55.37     559.00      23.64
 55.47     577.00      24.02
 55.57     557.00      23.60
 55.67     572.39      23.92
 55.77     563.00      23.73
 55.87     570.50      23.89
 55.97     600.00      24.49
 56.07     687.60      26.22
 56.17     693.00      26.32
 56.27     923.00      30.38
 56.37    1128.00      33.59
 56.47    1420.00      37.68
 56.57    1776.00      42.14
 56.67    2106.00      45.89
 56.77    2518.00      50.18
 56.87    2681.00      51.78
 56.97    2633.00      51.31
 57.07    2356.98      48.55
 57.17    2111.00      45.95
 57.27    1671.00      40.88
 57.37    1330.00      36.47
 57.47    1068.00      32.68
 57.57     900.13      30.00
 57.67     717.16      26.78
 57.77     660.00      25.69
 57.87     658.25      25.66
 57.97     647.00      25.44
 58.07     691.00      26.29
 58.17     678.00      26.04
 58.27     770.00      27.75
 58.37     801.00      28.30
 58.47     937.00      30.61
 58.57    1068.00      32.68
 58.67    1208.00      34.76
 58.77    1310.00      36.19
 58.87    1492.00      38.63
 58.97    1559.00      39.48
 59.07    1601.49      40.02
 59.17    1543.00      39.28
 59.27    1414.05      37.60
 59.37    1342.00      36.63
 59.47    1200.09      34.64
 59.57    1184.00      34.41
 59.67    1144.00      33.82
 59.77    1215.00      34.86
 59.87    1204.00      34.70
 59.97    1370.00      37.01
 60.07    1446.02      38.03
 60.17    1526.00      39.06
 60.27    1619.00      40.24
 60.37    1570.67      39.63
 60.47    1373.00      37.05
 60.57    1208.00      34.76
 60.67    1029.00      32.08
 60.77     914.00      30.23
 60.87     731.00      27.04
 60.97     697.00      26.40
 61.07     649.52      25.49
 61.17     635.00      25.20
 61.27     646.00      25.42
 61.37     624.00      24.98
 61.47     737.00      27.15
 61.57     718.74      26.81
 61.67     883.00      29.72
 61.77     966.00      31.08
 61.87    1109.00      33.30
 61.97    1205.00      34.71
 62.07    1381.00      37.16
 62.17    1386.86      37.24
 62.27    1412.00      37.58
 62.37    1318.00      36.30
 62.47    1250.94      35.37
 62.57    1039.00      32.23
 62.67     859.00      29.31
 62.77     755.00      27.48
 62.87     715.00      26.74
 62.97     631.00      25.12
 63.07     641.00      25.32
 63.17     537.61      23.19
 63.27     580.00      24.08
 63.37     597.20      24.44
 63.47     566.00      23.79
 63.57     608.32      24.66
 63.67     578.00      24.04
 63.77     557.33      23.61
 63.87     608.14      24.66
 63.97     610.77      24.71
 64.07     670.83      25.90
 64.17     731.91      27.05
 64.27     860.00      29.33
 64.37     896.55      29.94
 64.47     952.03      30.86
 64.57    1002.44      31.66
 64.67    1057.88      32.52
 64.77    1008.60      31.76
 64.87     995.87      31.56
 64.97     931.00      30.51
 65.07     834.61      28.89
 65.17     833.99      28.88
 65.27     743.00      27.26
 65.37     652.00      25.53
 65.47     664.45      25.78
 65.57     583.00      24.15
 65.67     601.00      24.52
 65.77     583.00      24.15
 65.87     540.00      23.24
 65.97     564.00      23.75
 66.07     542.00      23.28
 66.17     550.00      23.45
 66.27     521.78      22.84
 66.37     568.64      23.85
 66.47     536.00      23.15
 66.57     590.00      24.29
 66.67     578.34      24.05
 66.77     589.13      24.27
 66.87     519.00      22.78
 66.97     616.00      24.82
 67.07     619.40      24.89
 67.17     698.00      26.42
 67.27     756.38      27.50
 67.37     893.00      29.88
 67.47    1108.00      33.29
 67.57    1301.00      36.07
 67.67    1455.06      38.15
 67.77    1840.00      42.90
 67.87    2041.00      45.18
 67.97    2257.00      47.51
 68.07    2404.00      49.03
 68.17    2559.00      50.59
 68.27    2314.00      48.10
 68.37    1988.25      44.59
 68.47    1820.00      42.66
 68.57    1495.00      38.67
 68.67    1248.00      35.33
 68.77    1005.34      31.71
 68.87     924.00      30.40
 68.97     782.00      27.96
 69.07     680.88      26.09
 69.17     695.00      26.36
 69.27     620.77      24.92
 69.37     534.00      23.11
 69.47     576.00      24.00
 69.57     604.25      24.58
 69.67     537.91      23.19
 69.77     565.00      23.77
 69.87     596.00      24.41
 69.97     546.00      23.37
 70.07     546.00      23.37
 70.17     564.00      23.75
 70.27     506.00      22.49
 70.37     561.68      23.70
 70.47     555.00      23.56
 70.57     565.72      23.78
 70.67     608.08      24.66
 70.77     544.36      23.33
 70.87     621.09      24.92
 70.97     649.00      25.48
 71.07     646.00      25.42
 71.17     686.00      26.19
 71.27     870.90      29.51
 71.37     911.49      30.19
 71.47    1110.94      33.33
 71.57    1313.82      36.25
 71.67    1450.00      38.08
 71.77    1552.00      39.40
 71.87    1827.26      42.75
 71.97    1814.00      42.59
 72.07    1984.35      44.55
 72.17    1779.39      42.18
 72.27    1752.00      41.86
 72.37    1664.00      40.79
 72.47    1505.03      38.79
 72.57    1273.00      35.68
 72.67    1123.00      33.51
 72.77    1119.09      33.45
 72.87     907.00      30.12
 72.97     809.00      28.44
 73.07     773.00      27.80
 73.17     717.00      26.78
 73.27     675.00      25.98
 73.37     583.00      24.15
 73.47     596.00      24.41
 73.57     613.00      24.76
 73.67     608.00      24.66
 73.77     588.01      24.25
 73.87     570.00      23.87
 73.97     613.59      24.77
 74.07     534.46      23.12
 74.17     618.34      24.87
 74.27     585.22      24.19
 74.37     586.00      24.21
 74.47     603.00      24.56
 74.57     619.04      24.88
 74.67     548.12      23.41
 74.77     516.69      22.73
 74.87     662.00      25.73
 74.97     539.07      23.22
 75.07     527.72      22.97
 75.17     574.00      23.96
 75.27     581.00      24.10
 75.37     544.00      23.32
 75.47     565.00      23.77
 75.57     587.98      24.25
 75.67     535.84      23.15
 75.77     565.00      23.77
 75.87     561.00      23.69
 75.97     589.00      24.27
 76.07     651.92      25.53
 76.17     646.00      25.42
 76.27     629.00      25.08
 76.37     737.00      27.15
 76.47     703.00      26.51
 76.57     713.00      26.70
 76.67     647.54      25.45
 76.77     733.00      27.07
 76.87     630.00      25.10
 76.97     629.04      25.08
 77.07     599.14      24.48
 77.17     626.00      25.02
 77.27     551.42      23.48
 77.37     543.00      23.30
 77.47     516.00      22.72
 77.57     528.00      22.98
 77.67     498.00      22.32
 77.77     529.79      23.02
 77.87     567.38      23.82
 77.97     491.59      22.17
 78.07     528.00      22.98
 78.17     541.41      23.27
 78.27     495.00      22.25
 78.37     536.89      23.17
 78.47     535.00      23.13
 78.57     499.00      22.34
 78.67     562.91      23.73
 78.77     502.99      22.43
 78.87     508.00      22.54
 78.97     472.00      21.73
 79.07     546.00      23.37
 79.17     535.16      23.13
 79.27     499.00      22.34
 79.37     553.00      23.52
 79.47     504.00      22.45
 79.57     515.00      22.69
 79.67     515.00      22.69
 79.77     492.95      22.20
 79.87     573.45      23.95
 79.97     534.00      23.11
 80.07     512.00      22.63
 80.17     565.00      23.77
 80.27     569.00      23.85
 80.37     596.89      24.43
 80.47     584.00      24.17
 80.57     616.43      24.83
 80.67     635.82      25.22
 80.77     669.73      25.88
 80.87     635.00      25.20
 80.97     744.98      27.29
 81.07     670.00      25.88
 81.17     750.00      27.39
 81.27     758.00      27.53
 81.37     736.42      27.14
 81.47     713.91      26.72
 81.57     730.40      27.03
 81.67     779.85      27.93
 81.77     722.13      26.87
 81.87     720.00      26.83
 81.97     706.00      26.57
 82.07     727.00      26.96
 82.17     666.00      25.81
 82.27     639.00      25.28
 82.37     615.62      24.81
 82.47     565.95      23.79
 82.57     559.51      23.65
 82.67     607.00      24.64
 82.77     592.00      24.33
 82.87     522.00      22.85
 82.97     565.00      23.77
 83.07     555.00      23.56
 83.17     531.00      23.04
 83.27     585.00      24.19
 83.37     540.00      23.24
 83.47     531.06      23.04
 83.57     481.00      21.93
 83.67     534.26      23.11
 83.77     584.00      24.17
 83.87     538.00      23.19
 83.97     595.00      24.39
 84.07     609.58      24.69
 84.17     567.00      23.81
 84.27     580.00      24.08
 84.37     534.00      23.11
 84.47     556.00      23.58
 84.57     524.00      22.89
 84.67     519.00      22.78
 84.77     532.73      23.08
 84.87     514.00      22.67
 84.97     548.00      23.41
 85.07     538.00      23.19
 85.17     557.00      23.60
 85.27     565.08      23.77
 85.37     533.00      23.09
 85.47     545.00      23.35
 85.57     529.38      23.01
 85.67     527.00      22.96
 85.77     521.70      22.84
 85.87     506.00      22.49
 85.97     530.00      23.02
 86.07     565.00      23.77
 86.17     553.43      23.53
 86.27     497.00      22.29
 86.37     559.00      23.64
 86.47     556.00      23.58
 86.57     544.84      23.34
 86.67     582.08      24.13
 86.77     562.35      23.71
 86.87     585.00      24.19
 86.97     594.00      24.37
 87.07     619.79      24.90
 87.17     654.00      25.57
 87.27     610.40      24.71
 87.37     618.00      24.86
 87.47     613.00      24.76
 87.57     645.30      25.40
 87.67     616.00      24.82
 87.77     649.00      25.48
 87.87     598.00      24.45
 87.97     597.00      24.43
 88.07     623.00      24.96
 88.17     582.53      24.14
 88.27     612.00      24.74
 88.37     620.00      24.90
 88.47     604.00      24.58
 88.57     576.00      24.00
 88.67     527.00      22.96
 88.77     534.78      23.13
 88.87     617.00      24.84
 88.97     643.00      25.36
 89.07     624.00      24.98
 89.17     572.00      23.92
 89.27     595.00      24.39
 89.37     609.00      24.68
 89.47     635.00      25.20
 89.57     591.00      24.31
 89.67     622.00      24.94
 89.77     592.22      24.34
 89.87     583.00      24.15
 89.97     567.81      23.83
 90.07     519.00      22.78
 90.17     527.00      22.96
 90.27     545.00      23.35
 90.37     539.62      23.23
 90.47     522.00      22.85
 90.57     511.00      22.61
 90.67     527.00      22.96
 90.77     485.00      22.02
 90.87     515.00      22.69
 90.97     567.88      23.83
 91.07     485.17      22.03
 91.17     533.00      23.09
 91.27     534.00      23.11
 91.37     514.17      22.68
 91.47     510.17      22.59
 91.57     484.21      22.00
 91.67     542.87      23.30
 91.77     578.97      24.06
 91.87     564.00      23.75
 91.97     551.00      23.47
 92.07     531.53      23.05
 92.17     579.00      24.06
 92.27     552.00      23.49
 92.37     626.93      25.04
 92.47     622.00      24.94
 92.57     643.00      25.36
 92.67     646.87      25.43
 92.77     627.13      25.04
 92.87     689.00      26.25
 92.97     736.70      27.14
 93.07     750.98      27.40
 93.17     725.55      26.94
 93.27     736.00      27.13
 93.37     777.00      27.87
 93.47     830.00      28.81
 93.57     849.95      29.15
 93.67     862.22      29.36
 93.77     786.00      28.04
 93.87     798.68      28.26
 93.97     864.57      29.40
 94.07     857.00      29.27
 94.17     859.00      29.31
 94.27     834.43      28.89
 94.37     895.70      29.93
 94.47     825.72      28.74
 94.57     952.00      30.85
 94.67     904.00      30.07
 94.77     884.00      29.73
 94.87     901.00      30.02
 94.97     925.00      30.41
 95.07     907.17      30.12
 95.17     865.00      29.41
 95.27     855.00      29.24
 95.37     839.17      28.97
 95.47     800.00      28.28
 95.57     760.62      27.58
 95.67     768.00      27.71
 95.77     664.33      25.77
 95.87     680.00      26.08
 95.97     686.47      26.20
 96.07     632.00      25.14
 96.17     708.26      26.61
 96.27     765.31      27.66
 96.37     789.00      28.09
 96.47     805.00      28.37
 96.57     847.00      29.10
 96.67     896.00      29.93
 96.77    1022.00      31.97
 96.87    1052.88      32.45
 96.97    1093.00      33.06
 97.07    1173.00      34.25
 97.17    1320.00      36.33
 97.27    1379.00      37.13
 97.37    1404.00      37.47
 97.47    1376.94      37.11
 97.57    1502.00      38.76
 97.67    1481.00      38.48
 97.77    1392.00      37.31
 97.87    1384.38      37.21
 97.97    1264.17      35.56
 98.07    1221.00      34.94
 98.17    1117.39      33.43
 98.27    1105.00      33.24
 98.37    1016.00      31.87
 98.47     951.00      30.84
 98.57     929.35      30.49
 98.67     745.00      27.29
 98.77     874.65      29.57
 98.87     754.00      27.46
 98.97     820.00      28.64
 99.07     837.00      28.93
 99.17     825.00      28.72
 99.27     848.00      29.12
 99.37     902.00      30.03
 99.47    1023.00      31.98
 99.57    1066.00      32.65
 99.67    1135.00      33.69
 99.77    1323.00      36.37
 99.87    1319.00      36.32
 99.97    1519.00      38.97
100.07    1551.40      39.39
100.17    1717.00      41.44
100.27    1896.39      43.55
100.37    1847.90      42.99
100.47    2039.00      45.16
100.57    2084.00      45.65
100.67    2119.00      46.03
100.77    2058.00      45.37
100.87    2054.00      45.32
100.97    2040.00      45.17
101.07    1893.00      43.51
101.17    1825.46      42.73
101.27    1790.00      42.31
101.37    1672.59      40.90
101.47    1599.00      39.99
101.57    1581.00      39.76
101.67    1402.00      37.44
101.77    1319.27      36.32
101.87    1325.37      36.41
101.97    1311.88      36.22
102.07    1152.21      33.94
102.17    1164.55      34.13
102.27    1136.00      33.70
102.37    1133.00      33.66
102.47    1057.67      32.52
102.57    1040.00      32.25
102.67    1056.53      32.50
102.77    1013.00      31.83
102.87    1020.00      31.94
102.97     993.00      31.51
103.07     896.00      29.93
103.17     886.00      29.77
103.27     804.00      28.35
103.37     789.00      28.09
103.47     801.21      28.31
103.57     787.16      28.06
103.67     724.59      26.92
103.77     687.00      26.21
103.87     639.48      25.29
103.97     652.93      25.55
104.07     582.00      24.12
104.17     605.00      24.60
104.27     609.21      24.68
104.37     592.00      24.33
104.47     579.00      24.06
104.57     521.89      22.84
104.67     535.36      23.14
104.77     530.29      23.03
104.87     549.00      23.43
104.97     518.89      22.78
105.07     572.00      23.92
105.17     546.60      23.38
105.27     554.38      23.55
105.37     503.62      22.44
105.47     550.63      23.47
105.57     509.00      22.56
105.67     544.00      23.32
105.77     604.00      24.58
105.87     516.00      22.72
105.97     609.16      24.68
106.07     559.00      23.64
106.17     580.40      24.09
106.27     588.00      24.25
106.37     557.00      23.60
106.47     551.00      23.47
106.57     598.42      24.46
106.67     625.00      25.00
106.77     614.00      24.78
106.87     631.00      25.12
106.97     624.00      24.98
107.07     722.59      26.88
107.17     706.00      26.57
107.27     698.00      26.42
107.37     689.00      26.25
107.47     762.86      27.62
107.57     699.34      26.45
107.67     748.99      27.37
107.77     698.00      26.42
107.87     675.58      25.99
107.97     749.05      27.37
108.07     652.64      25.55
108.17     711.00      26.66
108.27     718.00      26.80
108.37     702.40      26.50
108.47     717.93      26.79
108.57     663.46      25.76
108.67     646.00      25.42
108.77     698.43      26.43
108.87     670.00      25.88
108.97     678.16      26.04
109.07     696.00      26.38
109.17     653.10      25.56
109.27     665.00      25.79
109.37     652.00      25.53
109.47     673.00      25.94
109.57     682.77      26.13
109.67     581.24      24.11
109.77     656.00      25.61
109.87     634.00      25.18
109.97     616.00      24.82
110.07     536.11      23.15
110.17     612.00      24.74
110.27     523.74      22.89
110.37     557.00      23.60
110.47     586.11      24.21
110.57     560.00      23.66
110.67     565.00      23.77
110.77     572.11      23.92
110.87     587.00      24.23
110.97     520.00      22.80
111.07     536.00      23.15
111.17     587.64      24.24
111.27     515.53      22.71
111.37     579.00      24.06
111.47     528.51      22.99
111.57     561.00      23.69
111.67     534.07      23.11
111.77     505.02      22.47
111.87     546.00      23.37
111.97     568.00      23.83
112.07     596.00      24.41
112.17     553.00      23.52
112.27     580.00      24.08
112.37     546.00      23.37
112.47     573.66      23.95
112.57     582.00      24.12
112.67     595.00      24.39
112.77     621.00      24.92
112.87     665.00      25.79
112.97     644.00      25.38
113.07     681.00      26.10
113.17     741.00      27.22
113.27     655.66      25.61
113.37     706.00      26.57
113.47     804.00      28.35
113.57     725.00      26.93
113.67     798.00      28.25
113.77     865.00      29.41
113.87     917.00      30.28
113.97     932.25      30.53
114.07    1001.00      31.64
114.17    1095.77      33.10
114.27    1068.00      32.68
114.37    1169.00      34.19
114.47    1308.00      36.17
114.57    1484.00      38.52
114.67    1536.00      39.19
114.77    1718.23      41.45
114.87    1850.00      43.01
114.97    2190.00      46.80
115.07    2165.25      46.53
115.17    2590.01      50.89
115.27    2819.00      53.09
115.37    3089.00      55.58
115.47    3340.58      57.80
115.57    3853.80      62.08
115.67    4065.00      63.76
115.77    4590.00      67.75
115.87    5004.60      70.74
115.97    5145.00      71.73
116.07    5680.81      75.37
116.17    5998.00      77.45
116.27    6218.00      78.85
116.37    6560.48      81.00
116.47    6918.00      83.17
116.57    6987.65      83.59
116.67    6976.78      83.53
116.77    6945.00      83.34
116.87    6785.00      82.37
116.97    6639.02      81.48
117.07    6348.00      79.67
117.17    6142.12      78.37
117.27    5633.77      75.06
117.37    5290.00      72.73
117.47    4952.00      70.37
117.57    4617.00      67.95
117.67    4217.00      64.94
117.77    3971.61      63.02
117.87    3593.00      59.94
117.97    3197.00      56.54
118.07    2904.00      53.89
118.17    2644.00      51.42
118.27    2243.00      47.36
118.37    1980.51      44.50
118.47    1771.00      42.08
118.57    1574.00      39.67
118.67    1473.88      38.39
118.77    1202.79      34.68
118.87    1125.00      33.54
118.97    1007.00      31.73
119.07     957.13      30.94
119.17     952.49      30.86
119.27     806.00      28.39
119.37     755.61      27.49
119.47     693.64      26.34
119.57     696.00      26.38
119.67     653.00      25.55
119.77     636.00      25.22
119.87     604.44      24.59
119.97     679.41      26.07
120.07     580.27      24.09
120.17     584.00      24.17
120.27     616.21      24.82
120.37     564.09      23.75
120.47     574.00      23.96
120.57     599.61      24.49
120.67     574.64      23.97
120.77     558.00      23.62
120.87     532.00      23.07
120.97     597.00      24.43
121.07     567.00      23.81
121.17     556.29      23.59
121.27     546.61      23.38
121.37     595.00      24.39
121.47     619.08      24.88
121.57     567.00      23.81
121.67     594.54      24.38
121.77     645.47      25.41
121.87     632.00      25.14
121.97     616.00      24.82
122.07     593.81      24.37
122.17     629.50      25.09
122.27     601.69      24.53
122.37     601.49      24.53
122.47     591.41      24.32
122.57     643.00      25.36
122.67     628.00      25.06
122.77     591.19      24.31
122.87     694.00      26.34
122.97     649.29      25.48
123.07     616.67      24.83
123.17     650.60      25.51
123.27     654.59      25.58
123.37     622.00      24.94
123.47     634.00      25.18
123.57     640.00      25.30
123.67     639.00      25.28
123.77     669.38      25.87
123.87     596.00      24.41
123.97     603.44      24.56
124.07     647.00      25.44
124.17     587.53      24.24
124.27     620.00      24.90
124.37     641.00      25.32
124.47     607.44      24.65
124.57     587.00      24.23
124.67     586.00      24.21
124.77     592.00      24.33
124.87     620.00      24.90
124.97     575.16      23.98
