  9.97     557.40      23.61
 10.07     593.00      24.35
 10.17     657.00      25.63
 10.27     542.20      23.29
 10.37     644.00      25.38
 10.47     595.00      24.39
 10.57     583.00      24.15
 10.67     528.48      22.99
 10.77     566.00      23.79
 10.87     574.00      23.96
 10.97     625.00      25.00
 11.07     551.29      23.48
 11.17     617.00      24.84
 11.27     593.41      24.36
 11.37     620.07      24.90
 11.47     545.94      23.37
 11.57     632.00      25.14
 11.67     610.09      24.70
 11.77     658.00      25.65
 11.87     657.00      25.63
 11.97     659.00      25.67
 12.07     710.00      26.65
 12.17     682.08      26.12
 12.27     673.00      25.94
 12.37     671.00      25.90
 12.47     602.00      24.54
 12.57     615.00      24.80
 12.67     563.20      23.73
 12.77     584.48      24.18
 12.87     585.00      24.19
 12.97     590.00      24.29
 13.07     586.00      24.21
 13.17     534.69      23.12
 13.27     562.48      23.72
 13.37     579.57      24.07
 13.47     583.00      24.15
 13.57     565.00      23.77
 13.67     608.73      24.67
 13.77     580.00      24.08
 13.87     548.00      23.41
 13.97     562.00      23.71
 14.07     581.00      24.10
 14.17     550.00      23.45
 14.27     569.67      23.87
 14.37     596.00      24.41
 14.47     615.12      24.80
 14.57     609.00      24.68
 14.67     579.00      24.06
 14.77     577.00      24.02
 14.87     624.48      24.99
 14.97     575.00      23.98
 15.07     602.99      24.56
 15.17     565.00      23.77
 15.27     566.00      23.79
 15.37     575.40      23.99
 15.47     586.61      24.22
 15.57     590.63      24.30
 15.67     621.96      24.94
 15.77     533.00      23.09
 15.87     622.80      24.96
 15.97     568.00      23.83
 16.07     542.00      23.28
 16.17     560.00      23.66
 16.27     605.12      24.60
 16.37     569.00      23.85
 16.47     535.00      23.13
 16.57     531.00      23.04
 16.67     573.72      23.95
 16.77     564.00      23.75
 16.87     529.00      23.00
 16.97     551.00      23.47
 17.07     567.00      23.81
 17.17     563.00      23.73
 17.27     540.37      23.25
 17.37     586.00      24.21
 17.47     560.10      23.67
 17.57     545.00      23.35
 17.67     583.00      24.15
 17.77     554.00      23.54
 17.87     565.00      23.77
 17.97     575.00      23.98
 18.07     611.00      24.72
 18.17     565.00      23.77
 18.27     555.76      23.57
 18.37     548.00      23.41
 18.47     553.00      23.52
 18.57     605.50      24.61
 18.67     580.00      24.08
 18.77     586.00      24.21
 18.87     603.69      24.57
 18.97     563.00      23.73
 19.07     591.57      24.32
 19.17     591.00      24.31
 19.27     543.00      23.30
 19.37     584.00      24.17
 19.47     581.00      24.10
 19.57     563.00      23.73
 19.67     580.41      24.09
 19.77     581.00      24.10
 19.87     552.00      23.49
 19.97     602.55      24.55
 20.07     537.00      23.17
 20.17     570.00      23.87
 20.27     565.93      23.79
 20.37     567.00      23.81
 20.47     560.00      23.66
 20.57     601.29      24.52
 20.67     556.00      23.58
 20.77     563.00      23.73
 20.87     556.00      23.58
 20.97     553.03      23.52
 21.07     562.11      23.71
 21.17     566.00      23.79
 21.27     590.00      24.29
 21.37     572.53      23.93
 21.47     566.53      23.80
 21.57     564.00      23.75
 21.67     592.00      24.33
 21.77     503.00      22.43
 21.87     581.00      24.10
 21.97     522.57      22.86
 22.07     528.00      22.98
 22.17     584.00      24.17
 22.27     602.54      24.55
 22.37     555.00      23.56
 22.47     607.00      24.64
 22.57     534.00      23.11
 22.67     615.00      24.80
 22.77     551.02      23.47
 22.87     596.96      24.43
 22.97     580.00      24.08
 23.07     563.00      23.73
 23.17     563.00      23.73
 23.27     537.00      23.17
 23.37     522.00      22.85
 23.47     539.00      23.22
 23.57     572.00      23.92
 23.67     562.00      23.71
 23.77     555.00      23.56
 23.87     587.01      24.23
 23.97     624.00      24.98
 24.07     573.52      23.95
 24.17     554.00      23.54
 24.27     572.00      23.92
 24.37     545.16      23.35
 24.47     666.00      25.81
 24.57     610.00      24.70
 24.67     627.00      25.04
 24.77     682.00      26.12
 24.87     617.73      24.85
 24.97     631.89      25.14
 25.07     660.00      25.69
 25.17     628.00      25.06
 25.27     591.96      24.33
 25.37     653.00      25.55
 25.47     589.00      24.27
 25.57     615.00      24.80
 25.67     602.00      24.54
 25.77     572.00      23.92
 25.87     593.00      24.35
 25.97     623.00      24.96
 26.07     554.00      23.54
 26.17     533.02      23.09
 26.27     522.72      22.86
 26.37     593.00      24.35
 26.47     583.00      24.15
 26.57     532.85      23.08
 26.67     584.00      24.17
 26.77     592.00      24.33
 26.87     608.69      24.67
 26.97     586.93      24.23
 27.07     581.00      24.10
 27.17     656.00      25.61
 27.27     604.00      24.58
 27.37     604.54      24.59
 27.47     574.98      23.98
 27.57     581.00      24.10
 27.67     607.00      24.64
 27.77     607.00      24.64
 27.87     616.95      24.84
 27.97     652.00      25.53
 28.07     729.41      27.01
 28.17     792.90      28.16
 28.27     956.85      30.93
 28.37     971.00      31.16
 28.47     865.84      29.43
 28.57     847.00      29.10
 28.67     766.00      27.68
 28.77     749.00      27.37
 28.87     822.00      28.67
 28.97     822.00      28.67
 29.07     889.91      29.83
 29.17     845.00      29.07
 29.27     761.00      27.59
 29.37     662.00      25.73
 29.47     623.00      24.96
 29.57     552.92      23.51
 29.67     642.00      25.34
 29.77     618.00      24.86
 29.87     545.00      23.35
 29.97     573.00      23.94
 30.07     556.67      23.59
 30.17     647.00      25.44
 30.27     620.00      24.90
 30.37     590.23      24.29
 30.47     583.00      24.15
 30.57     616.00      24.82
 30.67     600.00      24.49
 30.77     555.80      23.58
 30.87     652.00      25.53
 30.97     649.74      25.49
 31.07     574.79      23.97
 31.17     684.00      26.15
 31.27     588.00      24.25
 31.37     590.00      24.29
 31.47     623.00      24.96
 31.57     582.00      24.12
 31.67     507.83      22.54
 31.77     604.00      24.58
 31.87     503.86      22.45
 31.97     587.00      24.23
 32.07     569.00      23.85
 32.17     567.00      23.81
 32.27     609.00      24.68
 32.37     499.16      22.34
 32.47     532.00      23.07
 32.57     547.00      23.39
 32.67     567.00      23.81
 32.77     559.00      23.64
 32.87     577.07      24.02
 32.97     572.00      23.92
 33.07     602.00      24.54
 33.17     563.00      23.73
 33.27     586.00      24.21
 33.37     567.00      23.81
 33.47     601.51      24.53
 33.57     645.00      25.40
 33.67     618.00      24.86
 33.77     722.87      26.89
 33.87     781.00      27.95
 33.97     819.48      28.63
 34.07    1021.00      31.95
 34.17    1037.09      32.20
 34.27    1022.00      31.97
 34.37     893.00      29.88
 34.47     732.00      27.06
 34.57     622.00      24.94
 34.67     629.18      25.08
 34.77     624.82      25.00
 34.87     601.12      24.52
 34.97     556.00      23.58
 35.07     560.00      23.66
 35.17     521.00      22.83
 35.27     559.00      23.64
 35.37     550.13      23.45
 35.47     557.00      23.60
 35.57     518.02      22.76
 35.67     569.00      23.85
 35.77     570.94      23.89
 35.87     528.00      22.98
 35.97     514.00      22.67
 36.07     495.73      22.26
 36.17     568.50      23.84
 36.27     564.00      23.75
 36.37     525.00      22.91
 36.47     561.07      23.69
 36.57     488.17      22.09
 36.67     552.00      23.49
 36.77     508.00      22.54
 36.87     501.76      22.40
 36.97     503.81      22.45
 37.07     511.00      22.61
 37.17     494.63      22.24
 37.27     507.00      22.52
 37.37     516.00      22.72
 37.47     553.00      23.52
 37.57     537.00      23.17
 37.67     519.00      22.78
 37.77     567.29      23.82
 37.87     525.30      22.92
 37.97     538.00      23.19
 38.07     518.00      22.76
 38.17     477.00      21.84
 38.27     474.00      21.77
 38.37     556.51      23.59
 38.47     551.00      23.47
 38.57     512.00      22.63
 38.67     472.34      21.73
 38.77     481.00      21.93
 38.87     518.00      22.76
 38.97     479.34      21.89
 39.07     489.00      22.11
 39.17     472.00      21.73
 39.27     485.00      22.02
 39.37     512.31      22.63
 39.47     477.00      21.84
 39.57     495.00      22.25
 39.67     485.64      22.04
 39.77     469.26      21.66
 39.87     458.00      21.40
 39.97     528.04      22.98
 40.07     498.00      22.32
 40.17     521.00      22.83
 40.27     497.31      22.30
 40.37     443.00      21.05
 40.47     468.12      21.64
 40.57     468.00      21.63
 40.67     498.00      22.32
 40.77     459.21      21.43
 40.87     494.00      22.23
 40.97     495.00      22.25
 41.07     527.00      22.96
 41.17     475.61      21.81
 41.27     530.70      23.04
 41.37     488.00      22.09
 41.47     470.26      21.69
 41.57     517.50      22.75
 41.67     527.00      22.96
 41.77     489.00      22.11
 41.87     504.00      22.45
 41.97     520.00      22.80
 42.07     491.00      22.16
 42.17     529.00      23.00
 42.27     494.00      22.23
 42.37     524.00      22.89
 42.47     546.00      23.37
 42.57     561.00      23.69
 42.67     563.00      23.73
 42.77     630.56      25.11
 42.87     652.95      25.55
 42.97     598.00      24.45
 43.07     608.01      24.66
 43.17     573.00      23.94
 43.27     550.00      23.45
 43.37     514.38      22.68
 43.47     521.00      22.83
 43.57     541.00      23.26
 43.67     474.00      21.77
 43.77     499.00      22.34
 43.87     495.00      22.25
 43.97     502.46      22.42
 44.07     501.26      22.39
 44.17     499.61      22.35
 44.27     538.00      23.19
 44.37     462.53      21.51
 44.47     529.00      23.00
 44.57     461.00      21.47
 44.67     459.45      21.43
 44.77     454.00      21.31
 44.87     537.81      23.19
 44.97     495.61      22.26
 45.07     509.00      22.56
 45.17     465.00      21.56
 45.27     473.27      21.75
 45.37     461.12      21.47
 45.47     510.00      22.58
 45.57     510.00      22.58
 45.67     486.00      22.05
 45.77     471.77      21.72
 45.87     502.00      22.41
 45.97     506.13      22.50
 46.07     517.00      22.74
 46.17     501.00      22.38
 46.27     525.64      22.93
 46.37     502.00      22.41
 46.47     486.61      22.06
 46.57     501.00      22.38
 46.67     513.00      22.65
 46.77     533.00      23.09
 46.87     481.00      21.93
 46.97     538.00      23.19
 47.07     490.00      22.14
 47.17     513.00      22.65
 47.27     499.00      22.34
 47.37     513.00      22.65
 47.47     570.76      23.89
 47.57     551.74      23.49
 47.67     571.00      23.90
 47.77     595.79      24.41
 47.87     556.00      23.58
 47.97     576.00      24.00
 48.07     564.75      23.76
 48.17     577.00      24.02
 48.27     606.22      24.62
 48.37     542.00      23.28
 48.47     575.05      23.98
 48.57     504.00      22.45
 48.67     515.00      22.69
 48.77     520.95      22.82
 48.87     523.00      22.87
 48.97     576.00      24.00
 49.07     511.00      22.61
 49.17     568.00      23.83
 49.27     560.00      23.66
 49.37     569.00      23.85
 49.47     589.74      24.28
 49.57     651.17      25.52
 49.67     686.00      26.19
 49.77     806.99      28.41
 49.87    1016.00      31.87
 49.97    1318.00      36.30
 50.07    1589.29      39.87
 50.17    1918.00      43.79
 50.27    2210.00      47.01
 50.37    2348.00      48.46
 50.47    2186.63      46.76
 50.57    1950.97      44.17
 50.67    1594.00      39.92
 50.77    1198.00      34.61
 50.87     998.68      31.60
 50.97     841.00      29.00
 51.07     725.88      26.94
 51.17     722.76      26.88
 51.27     607.27      24.64
 51.37     593.00      24.35
 51.47     612.00      24.74
 51.57     592.00      24.33
 51.67     580.56      24.09
 51.77     571.00      23.90
 51.87     584.00      24.17
 51.97     568.00      23.83
 52.07     573.31      23.94
 52.17     520.29      22.81
 52.27     574.00      23.96
 52.37     512.40      22.64
 52.47     525.86      22.93
 52.57     569.00      23.85
 52.67     556.46      23.59
 52.77     611.00      24.72
 52.87     645.82      25.41
 52.97     612.00      24.74
 53.07     642.00      25.34
 53.17     706.03      26.57
 53.27     797.00      28.23
 53.37     961.43      31.01
 53.47     985.00      31.38
 53.57    1144.00      33.82
 53.67    1171.00      34.22
 53.77    1146.37      33.86
 53.87    1112.46      33.35
 53.97    1023.00      31.98
 54.07     870.00      29.50
 54.17     799.00      28.27
 54.27     689.99      26.27
 54.37     656.00      25.61
 54.47     652.00      25.53
 54.57     592.00      24.33
 54.67     620.32      24.91
 54.77     607.00      24.64
 54.87     606.00      24.62
 54.97     568.74      23.85
 55.07     596.00      24.41
 55.17     532.43      23.07
 55.27     520.61      22.82
 55.37     506.31      22.50
 55.47     593.00      24.35
 55.57     519.00      22.78
 55.67     619.23      24.88
 55.77     585.44      24.20
 55.87     588.00      24.25
 55.97     593.00      24.35
 56.07     669.83      25.88
 56.17     687.00      26.21
 56.27     785.00      28.02
 56.37     799.00      28.27
 56.47    1102.41      33.20
 56.57    1250.00      35.36
 56.67    1602.00      40.02
 56.77    1942.00      44.07
 56.87    2230.00      47.22
 56.97    2421.00      49.20
 57.07    2617.08      51.16
 57.17    2417.63      49.17
 57.27    2285.00      47.80
 57.37    1885.95      43.43
 57.47    1656.37      40.70
 57.57    1380.00      37.15
 57.67    1106.00      33.26
 57.77     979.00      31.29
 57.87     805.63      28.38
 57.97     726.00      26.94
 58.07     799.00      28.27
 58.17     744.00      27.28
 58.27     729.00      27.00
 58.37     654.99      25.59
 58.47     822.00      28.67
 58.57     777.56      27.88
 58.67     920.58      30.34
 58.77     942.00      30.69
 58.87    1062.00      32.59
 58.97    1058.94      32.54
 59.07    1202.72      34.68
 59.17    1237.83      35.18
 59.27    1268.59      35.62
 59.37    1276.00      35.72
 59.47    1272.00      35.67
 59.57    1278.00      35.75
 59.67    1186.53      34.45
 59.77    1128.48      33.59
 59.87    1098.03      33.14
 59.97    1198.30      34.62
 60.07    1314.00      36.25
 60.17    1417.00      37.64
 60.27    1499.02      38.72
 60.37    1546.79      39.33
 60.47    1594.03      39.93
 60.57    1490.00      38.60
 60.67    1274.50      35.70
 60.77    1183.22      34.40
 60.87    1059.00      32.54
 60.97     928.00      30.46
 61.07     849.00      29.14
 61.17     754.00      27.46
 61.27     701.39      26.48
 61.37     710.00      26.65
 61.47     669.00      25.87
 61.57     731.00      27.04
 61.67     762.72      27.62
 61.77     742.00      27.24
 61.87     903.00      30.05
 61.97     961.00      31.00
 62.07    1107.00      33.27
 62.17    1142.00      33.79
 62.27    1253.00      35.40
 62.37    1287.00      35.87
 62.47    1297.00      36.01
 62.57    1288.69      35.90
 62.67    1140.00      33.76
 62.77     952.00      30.85
 62.87     915.00      30.25
 62.97     804.22      28.36
 63.07     659.00      25.67
 63.17     686.00      26.19
 63.27     640.22      25.30
 63.37     606.00      24.62
 63.47     588.57      24.26
 63.57     567.16      23.82
 63.67     571.98      23.92
 63.77     590.30      24.30
 63.87     579.00      24.06
 63.97     670.00      25.88
 64.07     660.00      25.69
 64.17     717.15      26.78
 64.27     664.80      25.78
 64.37     812.00      28.50
 64.47     781.00      27.95
 64.57     916.00      30.27
 64.67     978.00      31.27
 64.77     997.00      31.58
 64.87    1030.80      32.11
 64.97    1089.00      33.00
 65.07    1021.20      31.96
 65.17     976.00      31.24
 65.27     884.00      29.73
 65.37     788.11      28.07
 65.47     814.90      28.55
 65.57     700.00      26.46
 65.67     656.00      25.61
 65.77     673.00      25.94
 65.87     615.00      24.80
 65.97     628.00      25.06
 66.07     563.00      23.73
 66.17     556.00      23.58
 66.27     604.28      24.58
 66.37     559.00      23.64
 66.47     572.00      23.92
 66.57     584.00      24.17
 66.67     557.00      23.60
 66.77     577.11      24.02
 66.87     592.00      24.33
 66.97     603.76      24.57
 67.07     582.89      24.14
 67.17     685.46      26.18
 67.27     627.00      25.04
 67.37     800.05      28.29
 67.47     853.78      29.22
 67.57     962.00      31.02
 67.67    1035.00      32.17
 67.77    1328.98      36.46
 67.87    1511.00      38.87
 67.97    1755.35      41.90
 68.07    2080.23      45.61
 68.17    2131.00      46.16
 68.27    2319.00      48.16
 68.37    2388.00      48.87
 68.47    2207.00      46.98
 68.57    1982.28      44.52
 68.67    1859.00      43.12
 68.77    1609.00      40.11
 68.87    1384.00      37.20
 68.97    1195.61      34.58
 69.07    1003.00      31.67
 69.17     853.54      29.22
 69.27     824.00      28.71
 69.37     727.00      26.96
 69.47     716.00      26.76
 69.57     595.67      24.41
 69.67     630.68      25.11
 69.77     584.00      24.17
 69.87     624.00      24.98
 69.97     537.98      23.19
 70.07     576.00      24.00
 70.17     611.00      24.72
 70.27     593.00      24.35
 70.37     598.00      24.45
 70.47     571.00      23.90
 70.57     571.57      23.91
 70.67     562.88      23.73
 70.77     613.25      24.76
 70.87     584.00      24.17
 70.97     635.00      25.20
 71.07     619.77      24.90
 71.17     609.52      24.69
 71.27     729.23      27.00
 71.37     719.00      26.81
 71.47     814.00      28.53
 71.57     961.00      31.00
 71.67    1066.00      32.65
 71.77    1239.46      35.21
 71.87    1300.00      36.06
 71.97    1487.78      38.57
 72.07    1639.58      40.49
 72.17    1730.00      41.59
 72.27    1851.00      43.02
 72.37    1831.00      42.79
 72.47    1769.00      42.06
 72.57    1601.77      40.02
 72.67    1587.00      39.84
 72.77    1316.00      36.28
 72.87    1195.00      34.57
 72.97    1021.00      31.95
 73.07     941.98      30.69
 73.17     850.00      29.15
 73.27     725.95      26.94
 73.37     696.59      26.39
 73.47     655.10      25.59
 73.57     645.00      25.40
 73.67     606.00      24.62
 73.77     606.00      24.62
 73.87     630.00      25.10
 73.97     602.00      24.54
 74.07     599.00      24.47
 74.17     538.35      23.20
 74.27     511.41      22.61
 74.37     526.73      22.95
 74.47     503.56      22.44
 74.57     585.00      24.19
 74.67     647.00      25.44
 74.77     529.12      23.00
 74.87     670.00      25.88
 74.97     631.00      25.12
 75.07     681.00      26.10
 75.17     572.00      23.92
 75.27     615.00      24.80
 75.37     620.00      24.90
 75.47     590.00      24.29
 75.57     522.73      22.86
 75.67     581.11      24.11
 75.77     564.00      23.75
 75.87     509.54      22.57
 75.97     567.00      23.81
 76.07     559.00      23.64
 76.17     608.00      24.66
 76.27     626.00      25.02
 76.37     626.35      25.03
 76.47     682.00      26.12
 76.57     674.00      25.96
 76.67     710.00      26.65
 76.77     721.00      26.85
 76.87     660.00      25.69
 76.97     715.00      26.74
 77.07     630.82      25.12
 77.17     635.00      25.20
 77.27     610.23      24.70
 77.37     594.00      24.37
 77.47     591.00      24.31
 77.57     551.00      23.47
 77.67     584.42      24.17
 77.77     567.00      23.81
 77.87     491.00      22.16
 77.97     531.00      23.04
 78.07     525.00      22.91
 78.17     529.00      23.00
 78.27     544.00      23.32
 78.37     551.00      23.47
 78.47     493.00      22.20
 78.57     509.00      22.56
 78.67     533.00      23.09
 78.77     545.24      23.35
 78.87     546.70      23.38
 78.97     497.24      22.30
 79.07     510.00      22.58
 79.17     548.20      23.41
 79.27     487.00      22.07
 79.37     542.72      23.30
 79.47     542.04      23.28
 79.57     508.00      22.54
 79.67     482.00      21.95
 79.77     532.00      23.07
 79.87     571.00      23.90
 79.97     529.00      23.00
 80.07     539.00      23.22
 80.17     541.09      23.26
 80.27     530.00      23.02
 80.37     545.00      23.35
 80.47     603.82      24.57
 80.57     585.00      24.19
 80.67     568.00      23.83
 80.77     570.75      23.89
 80.87     664.61      25.78
 80.97     590.15      24.29
 81.07     637.00      25.24
 81.17     617.00      24.84
 81.27     686.00      26.19
 81.37     701.20      26.48
 81.47     722.13      26.87
 81.57     726.00      26.94
 81.67     732.00      27.06
 81.77     802.00      28.32
 81.87     789.08      28.09
 81.97     754.00      27.46
 82.07     734.02      27.09
 82.17     761.50      27.60
 82.27     698.00      26.42
 82.37     723.40      26.90
 82.47     652.00      25.53
 82.57     625.00      25.00
 82.67     606.09      24.62
 82.77     570.00      23.87
 82.87     566.63      23.80
 82.97     591.40      24.32
 83.07     581.10      24.11
 83.17     540.00      23.24
 83.27     512.00      22.63
 83.37     532.00      23.07
 83.47     515.00      22.69
 83.57     536.00      23.15
 83.67     569.22      23.86
 83.77     527.00      22.96
 83.87     540.62      23.25
 83.97     545.31      23.35
 84.07     565.20      23.77
 84.17     531.00      23.04
 84.27     548.00      23.41
 84.37     556.00      23.58
 84.47     567.00      23.81
 84.57     552.58      23.51
 84.67     516.91      22.74
 84.77     556.00      23.58
 84.87     518.00      22.76
 84.97     571.00      23.90
 85.07     541.00      23.26
 85.17     504.00      22.45
 85.27     540.11      23.24
 85.37     547.62      23.40
 85.47     505.87      22.49
 85.57     520.00      22.80
 85.67     495.00      22.25
 85.77     476.04      21.82
 85.87     539.15      23.22
 85.97     519.00      22.78
 86.07     492.00      22.18
 86.17     538.00      23.19
 86.27     513.00      22.65
 86.37     502.00      22.41
 86.47     552.00      23.49
 86.57     486.62      22.06
 86.67     561.15      23.69
 86.77     545.91      23.36
 86.87     506.51      22.51
 86.97     519.77      22.80
 87.07     519.00      22.78
 87.17     602.00      24.54
 87.27     626.69      25.03
 87.37     614.00      24.78
 87.47     615.55      24.81
 87.57     584.00      24.17
 87.67     617.00      24.84
 87.77     631.87      25.14
 87.87     612.00      24.74
 87.97     564.00      23.75
 88.07     592.00      24.33
 88.17     573.00      23.94
 88.27     549.09      23.43
 88.37     625.08      25.00
 88.47     536.00      23.15
 88.57     582.50      24.14
 88.67     616.00      24.82
 88.77     575.00      23.98
 88.87     541.00      23.26
 88.97     561.69      23.70
 89.07     593.14      24.35
 89.17     535.09      23.13
 89.27     546.88      23.39
 89.37     570.00      23.87
 89.47     638.00      25.26
 89.57     569.02      23.85
 89.67     583.00      24.15
 89.77     582.00      24.12
 89.87     587.00      24.23
 89.97     561.00      23.69
 90.07     568.00      23.83
 90.17     558.00      23.62
 90.27     541.00      23.26
 90.37     513.30      22.66
 90.47     526.00      22.93
 90.57     519.48      22.79
 90.67     545.67      23.36
 90.77     507.00      22.52
 90.87     539.00      23.22
 90.97     482.00      21.95
 91.07     510.00      22.58
 91.17     482.69      21.97
 91.27     489.00      22.11
 91.37     514.00      22.67
 91.47     462.00      21.49
 91.57     494.70      22.24
 91.67     523.00      22.87
 91.77     480.40      21.92
 91.87     507.00      22.52
 91.97     539.64      23.23
 92.07     528.77      23.00
 92.17     526.26      22.94
 92.27     516.97      22.74
 92.37     503.06      22.43
 92.47     538.00      23.19
 92.57     593.00      24.35
 92.67     573.00      23.94
 92.77     575.00      23.98
 92.87     626.36      25.03
 92.97     620.00      24.90
 93.07     625.00      25.00
 93.17     660.00      25.69
 93.27     640.10      25.30
 93.37     721.00      26.85
 93.47     688.93      26.25
 93.57     709.92      26.64
 93.67     747.00      27.33
 93.77     770.02      27.75
 93.87     757.00      27.51
 93.97     735.97      27.13
 94.07     863.69      29.39
 94.17     855.00      29.24
 94.27     808.00      28.43
 94.37     806.43      28.40
 94.47     824.00      28.71
 94.57     864.00      29.39
 94.67     876.00      29.60
 94.77     901.00      30.02
 94.87     908.28      30.14
 94.97     925.86      30.43
 95.07     895.48      29.92
 95.17     946.00      30.76
 95.27     904.00      30.07
 95.37     920.00      30.33
 95.47     840.00      28.98
 95.57     862.00      29.36
 95.67     837.00      28.93
 95.77     786.00      28.04
 95.87     748.92      27.37
 95.97     749.00      27.37
 96.07     726.63      26.96
 96.17     660.92      25.71
 96.27     752.50      27.43
 96.37     680.00      26.08
 96.47     694.00      26.34
 96.57     698.00      26.42
 96.67     795.00      28.20
 96.77     832.00      28.84
 96.87     927.00      30.45
 96.97     943.00      30.71
 97.07     953.00      30.87
 97.17    1049.00      32.39
 97.27    1058.00      32.53
 97.37    1172.00      34.23
 97.47    1187.15      34.45
 97.57    1255.62      35.43
 97.67    1394.93      37.35
 97.77    1349.00      36.73
 97.87    1370.58      37.02
 97.97    1463.00      38.25
 98.07    1485.00      38.54
 98.17    1368.37      36.99
 98.27    1360.00      36.88
 98.37    1329.28      36.46
 98.47    1309.78      36.19
 98.57    1149.00      33.90
 98.67    1171.85      34.23
 98.77    1030.00      32.09
 98.87     988.00      31.43
 98.97     942.00      30.69
 99.07     856.00      29.26
 99.17     857.33      29.28
 99.27     907.00      30.12
 99.37     918.00      30.30
 99.47     884.97      29.75
 99.57     967.00      31.10
 99.67     944.00      30.72
 99.77    1049.00      32.39
 99.87    1066.00      32.65
 99.97    1213.12      34.83
100.07    1201.00      34.66
100.17    1259.99      35.50
100.27    1372.00      37.04
100.37    1565.20      39.56
100.47    1564.00      39.55
100.57    1735.00      41.65
100.67    1740.00      41.71
100.77    1892.17      43.50
100.87    1962.46      44.30
100.97    1917.00      43.78
101.07    1959.00      44.26
101.17    1966.00      44.34
101.27    1984.15      44.54
101.37    1871.00      43.26
101.47    1906.00      43.66
101.57    1812.00      42.57
101.67    1804.00      42.47
101.77    1721.00      41.48
101.87    1602.00      40.02
101.97    1624.00      40.30
102.07    1431.00      37.83
102.17    1418.00      37.66
102.27    1411.00      37.56
102.37    1243.00      35.26
102.47    1332.43      36.50
102.57    1273.00      35.68
102.67    1161.00      34.07
102.77    1232.13      35.10
102.87    1195.09      34.57
102.97    1061.98      32.59
103.07    1158.12      34.03
103.17    1095.00      33.09
103.27    1100.73      33.18
103.37    1011.00      31.80
103.47     917.96      30.30
103.57     927.42      30.45
103.67     882.00      29.70
103.77     900.00      30.00
103.87     858.88      29.31
103.97     788.00      28.07
104.07     779.00      27.91
104.17     730.00      27.02
104.27     691.51      26.30
104.37     628.72      25.07
104.47     627.00      25.04
104.57     626.18      25.02
104.67     570.00      23.87
104.77     632.00      25.14
104.87     594.00      24.37
104.97     547.22      23.39
105.07     544.00      23.32
105.17     568.00      23.83
105.27     513.00      22.65
105.37     576.00      24.00
105.47     577.00      24.02
105.57     587.00      24.23
105.67     558.00      23.62
105.77     546.00      23.37
105.87     527.21      22.96
105.97     567.00      23.81
106.07     526.00      22.93
106.17     534.00      23.11
106.27     577.00      24.02
106.37     525.81      22.93
106.47     565.21      23.77
106.57     563.58      23.74
106.67     585.75      24.20
106.77     657.17      25.64
106.87     574.00      23.96
106.97     639.00      25.28
107.07     643.00      25.36
107.17     650.00      25.50
107.27     639.00      25.28
107.37     650.00      25.50
107.47     610.00      24.70
107.57     661.00      25.71
107.67     657.00      25.63
107.77     678.00      26.04
107.87     710.00      26.65
107.97     729.87      27.02
108.07     673.00      25.94
108.17     682.00      26.12
108.27     659.00      25.67
108.37     658.00      25.65
108.47     668.00      25.85
108.57     644.00      25.38
108.67     669.27      25.87
108.77     686.00      26.19
108.87     685.00      26.17
108.97     675.00      25.98
109.07     653.69      25.57
109.17     659.11      25.67
109.27     681.00      26.10
109.37     680.00      26.08
109.47     681.98      26.11
109.57     644.00      25.38
109.67     669.00      25.87
109.77     701.00      26.48
109.87     657.00      25.63
109.97     633.00      25.16
110.07     674.00      25.96
110.17     651.00      25.51
110.27     615.00      24.80
110.37     621.00      24.92
110.47     591.15      24.31
110.57     605.13      24.60
110.67     593.00      24.35
110.77     606.00      24.62
110.87     615.96      24.82
110.97     630.00      25.10
111.07     557.84      23.62
111.17     578.31      24.05
111.27     555.00      23.56
111.37     527.09      22.96
111.47     570.09      23.88
111.57     490.11      22.14
111.67     497.00      22.29
111.77     548.00      23.41
111.87     561.00      23.69
111.97     547.00      23.39
112.07     546.00      23.37
112.17     590.00      24.29
112.27     574.00      23.96
112.37     551.21      23.48
112.47     521.85      22.84
112.57     548.00      23.41
112.67     570.00      23.87
112.77     572.00      23.92
112.87     511.73      22.62
112.97     586.00      24.21
113.07     596.28      24.42
113.17     567.00      23.81
113.27     565.00      23.77
113.37     597.00      24.43
113.47     616.00      24.82
113.57     654.29      25.58
113.67     633.00      25.16
113.77     671.00      25.90
113.87     632.00      25.14
113.97     640.00      25.30
114.07     633.25      25.16
114.17     691.00      26.29
114.27     741.00      27.22
114.37     784.38      28.01
114.47     800.00      28.28
114.57     907.90      30.13
114.67     889.33      29.82
114.77    1037.00      32.20
114.87    1172.00      34.23
114.97    1253.00      35.40
115.07    1357.00      36.84
115.17    1574.00      39.67
115.27    1843.00      42.93
115.37    2113.00      45.97
115.47    2202.90      46.94
115.57    2313.35      48.10
115.67    2756.00      52.50
115.77    3049.00      55.22
115.87    3337.00      57.77
115.97    3619.11      60.16
116.07    4122.00      64.20
116.17    4384.00      66.21
116.27    4748.00      68.91
116.37    5285.27      72.70
116.47    5474.00      73.99
116.57    5853.00      76.50
116.67    6288.52      79.30
116.77    6399.00      79.99
116.87    6617.13      81.35
116.97    6984.10      83.57
117.07    7064.81      84.05
117.17    7051.00      83.97
117.27    6831.00      82.65
117.37    6646.00      81.52
117.47    6834.07      82.67
117.57    6463.82      80.40
117.67    6171.02      78.56
117.77    5689.00      75.43
117.87    5286.00      72.70
117.97    5223.06      72.27
118.07    4810.75      69.36
118.17    4536.71      67.36
118.27    4182.00      64.67
118.37    3840.43      61.97
118.47    3473.00      58.93
118.57    3085.00      55.54
118.67    2786.90      52.79
118.77    2495.00      49.95
118.87    2229.81      47.22
118.97    1921.00      43.83
119.07    1753.00      41.87
119.17    1728.05      41.57
119.27    1447.12      38.04
119.37    1323.00      36.37
119.47    1170.00      34.21
119.57    1081.23      32.88
119.67    1039.00      32.23
119.77    1050.01      32.40
119.87     895.41      29.92
119.97     870.00      29.50
120.07     763.35      27.63
120.17     754.00      27.46
120.27     714.05      26.72
120.37     704.00      26.53
120.47     703.00      26.51
120.57     686.00      26.19
120.67     637.00      25.24
120.77     645.00      25.40
120.87     609.00      24.68
120.97     616.00      24.82
121.07     666.02      25.81
121.17     640.88      25.32
121.27     610.94      24.72
121.37     638.45      25.27
121.47     615.27      24.80
121.57     588.00      24.25
121.67     617.30      24.85
121.77     648.00      25.46
121.87     602.13      24.54
121.97     605.00      24.60
122.07     562.00      23.71
122.17     620.08      24.90
122.27     575.52      23.99
122.37     568.00      23.83
122.47     621.48      24.93
122.57     584.58      24.18
122.67     652.10      25.54
122.77     631.00      25.12
122.87     601.63      24.53
122.97     646.00      25.42
123.07     647.59      25.45
123.17     631.74      25.13
123.27     575.00      23.98
123.37     581.21      24.11
123.47     647.57      25.45
123.57     671.09      25.91
123.67     680.68      26.09
123.77     667.00      25.83
123.87     659.00      25.67
123.97     620.61      24.91
124.07     655.00      25.59
124.17     576.98      24.02
124.27     643.00      25.36
124.37     606.00      24.62
124.47     581.48      24.11
124.57     577.00      24.02
124.67     588.00      24.25
124.77     694.00      26.34
124.87     589.99      24.29
124.97     569.71      23.87
