  9.97     524.52      22.90
 10.07     594.00      24.37
 10.17     522.99      22.87
 10.27     604.84      24.59
 10.37     563.00      23.73
 10.47     539.28      23.22
 10.57     602.00      24.54
 10.67     606.74      24.63
 10.77     601.52      24.53
 10.87     573.00      23.94
 10.97     610.00      24.70
 11.07     601.31      24.52
 11.17     593.00      24.35
 11.27     594.57      24.38
 11.37     625.00      25.00
 11.47     618.51      24.87
 11.57     623.09      24.96
 11.67     615.00      24.80
 11.77     568.00      23.83
 11.87     643.00      25.36
 11.97     669.00      25.87
 12.07     692.00      26.31
 12.17     673.00      25.94
 12.27     671.00      25.90
 12.37     691.89      26.30
 12.47     634.00      25.18
 12.57     632.00      25.14
 12.67     552.00      23.49
 12.77     554.22      23.54
 12.87     579.00      24.06
 12.97     593.00      24.35
 13.07     580.00      24.08
 13.17     601.00      24.52
 13.27     533.96      23.11
 13.37     497.00      22.29
 13.47     614.11      24.78
 13.57     588.62      24.26
 13.67     599.86      24.49
 13.77     545.00      23.35
 13.87     557.00      23.60
 13.97     544.98      23.34
 14.07     613.18      24.76
 14.17     564.12      23.75
 14.27     549.00      23.43
 14.37     598.30      24.46
 14.47     600.00      24.49
 14.57     548.00      23.41
 14.67     554.00      23.54
 14.77     560.00      23.66
 14.87     576.00      24.00
 14.97     510.00      22.58
 15.07     533.27      23.09
 15.17     563.24      23.73
 15.27     554.00      23.54
 15.37     585.00      24.19
 15.47     518.00      22.76
 15.57     597.00      24.43
 15.67     574.11      23.96
 15.77     540.16      23.24
 15.87     544.00      23.32
 15.97     550.00      23.45
 16.07     590.00      24.29
 16.17     570.05      23.88
 16.27     591.50      24.32
 16.37     556.36      23.59
 16.47     586.00      24.21
 16.57     559.00      23.64
 16.67     583.93      24.16
 16.77     573.00      23.94
 16.87     534.42      23.12
 16.97     567.23      23.82
 17.07     564.00      23.75
 17.17     556.59      23.59
 17.27     555.00      23.56
 17.37     527.00      22.96
 17.47     543.00      23.30
 17.57     597.83      24.45
 17.67     566.00      23.79
 17.77     528.43      22.99
 17.87     542.33      23.29
 17.97     543.00      23.30
 18.07     533.00      23.09
 18.17     572.00      23.92
 18.27     557.00      23.60
 18.37     546.00      23.37
 18.47     539.00      23.22
 18.57     568.00      23.83
 18.67     539.00      23.22
 18.77     591.00      24.31
 18.87     564.48      23.76
 18.97     545.00      23.35
 19.07     550.00      23.45
 19.17     552.00      23.49
 19.27     599.95      24.49
 19.37     561.00      23.69
 19.47     539.00      23.22
 19.57     576.00      24.00
 19.67     562.00      23.71
 19.77     520.88      22.82
 19.87     592.57      24.34
 19.97     548.00      23.41
 20.07     575.00      23.98
 20.17     544.00      23.32
 20.27     544.83      23.34
 20.37     574.32      23.96
 20.47     579.85      24.08
 20.57     537.00      23.17
 20.67     564.00      23.75
 20.77     513.00      22.65
 20.87     569.74      23.87
 20.97     536.00      23.15
 21.07     565.29      23.78
 21.17     581.09      24.11
 21.27     564.00      23.75
 21.37     595.00      24.39
 21.47     628.00      25.06
 21.57     551.00      23.47
 21.67     555.00      23.56
 21.77     521.00      22.83
 21.87     523.31      22.88
 21.97     531.00      23.04
 22.07     563.00      23.73
 22.17     527.00      22.96
 22.27     545.82      23.36
 22.37     517.00      22.74
 22.47     564.00      23.75
 22.57     562.00      23.71
 22.67     564.05      23.75
 22.77     566.00      23.79
 22.87     570.00      23.87
 22.97     566.72      23.81
 23.07     546.00      23.37
 23.17     522.38      22.86
 23.27     562.00      23.71
 23.37     547.00      23.39
 23.47     546.00      23.37
 23.57     556.00      23.58
 23.67     565.00      23.77
 23.77     586.00      24.21
 23.87     557.00      23.60
 23.97     515.06      22.69
 24.07     585.00      24.19
 24.17     583.00      24.15
 24.27     510.80      22.60
 24.37     588.00      24.25
 24.47     617.83      24.86
 24.57     553.00      23.52
 24.67     649.00      25.48
 24.77     602.41      24.54
 24.87     645.00      25.40
 24.97     587.66      24.24
 25.07     563.00      23.73
 25.17     557.00      23.60
 25.27     563.00      23.73
 25.37     541.11      23.26
 25.47     585.00      24.19
 25.57     521.00      22.83
 25.67     523.91      22.89
 25.77     550.00      23.45
 25.87     547.00      23.39
 25.97     555.00      23.56
 26.07     528.24      22.98
 26.17     546.00      23.37
 26.27     519.00      22.78
 26.37     580.00      24.08
 26.47     504.73      22.47
 26.57     538.00      23.19
 26.67     517.00      22.74
 26.77     566.00      23.79
 26.87     581.00      24.10
 26.97     585.77      24.20
 27.07     541.00      23.26
 27.17     576.72      24.02
 27.27     519.00      22.78
 27.37     584.00      24.17
 27.47     543.22      23.31
 27.57     611.00      24.72
 27.67     557.40      23.61
 27.77     579.45      24.07
 27.87     621.87      24.94
 27.97     687.00      26.21
 28.07     739.00      27.18
 28.17     864.00      29.39
 28.27     966.00      31.08
 28.37     885.00      29.75
 28.47     822.00      28.67
 28.57     679.21      26.06
 28.67     707.00      26.59
 28.77     736.90      27.15
 28.87     815.00      28.55
 28.97     819.00      28.62
 29.07     743.00      27.26
 29.17     719.17      26.82
 29.27     631.00      25.12
 29.37     578.00      24.04
 29.47     599.00      24.47
 29.57     611.00      24.72
 29.67     629.00      25.08
 29.77     551.00      23.47
 29.87     528.39      22.99
 29.97     525.74      22.93
 30.07     520.00      22.80
 30.17     620.00      24.90
 30.27     543.00      23.30
 30.37     561.00      23.69
 30.47     593.00      24.35
 30.57     587.00      24.23
 30.67     569.00      23.85
 30.77     558.42      23.63
 30.87     623.00      24.96
 30.97     634.38      25.19
 31.07     603.00      24.56
 31.17     560.00      23.66
 31.27     533.00      23.09
 31.37     549.00      23.43
 31.47     551.00      23.47
 31.57     546.00      23.37
 31.67     585.00      24.19
 31.77     531.00      23.04
 31.87     539.00      23.22
 31.97     532.00      23.07
 32.07     502.85      22.42
 32.17     538.60      23.21
 32.27     570.00      23.87
 32.37     549.00      23.43
 32.47     573.48      23.95
 32.57     540.13      23.24
 32.67     592.00      24.33
 32.77     576.00      24.00
 32.87     558.00      23.62
 32.97     533.00      23.09
 33.07     540.00      23.24
 33.17     567.00      23.81
 33.27     502.55      22.42
 33.37     549.00      23.43
 33.47     543.41      23.31
 33.57     588.74      24.26
 33.67     613.00      24.76
 33.77     791.00      28.12
 33.87     869.03      29.48
 33.97    1027.00      32.05
 34.07    1062.00      32.59
 34.17     982.00      31.34
 34.27     897.88      29.96
 34.37     761.78      27.60
 34.47     623.00      24.96
 34.57     558.29      23.63
 34.67     534.00      23.11
 34.77     520.00      22.80
 34.87     574.00      23.96
 34.97     539.45      23.23
 35.07     533.00      23.09
 35.17     515.00      22.69
 35.27     546.00      23.37
 35.37     494.00      22.23
 35.47     523.00      22.87
 35.57     521.19      22.83
 35.67     500.59      22.37
 35.77     543.00      23.30
 35.87     532.00      23.07
 35.97     545.25      23.35
 36.07     557.12      23.60
 36.17     540.11      23.24
 36.27     555.00      23.56
 36.37     529.00      23.00
 36.47     502.00      22.41
 36.57     518.00      22.76
 36.67     502.80      22.42
 36.77     505.00      22.47
 36.87     523.00      22.87
 36.97     494.81      22.24
 37.07     490.00      22.14
 37.17     498.00      22.32
 37.27     482.39      21.96
 37.37     504.39      22.46
 37.47     500.00      22.36
 37.57     543.42      23.31
 37.67     554.00      23.54
 37.77     513.86      22.67
 37.87     534.00      23.11
 37.97     489.00      22.11
 38.07     498.47      22.33
 38.17     514.00      22.67
 38.27     496.47      22.28
 38.37     468.49      21.64
 38.47     540.28      23.24
 38.57     510.00      22.58
 38.67     526.00      22.93
 38.77     522.00      22.85
 38.87     464.00      21.54
 38.97     534.90      23.13
 39.07     504.00      22.45
 39.17     515.17      22.70
 39.27     526.00      22.93
 39.37     491.00      22.16
 39.47     512.00      22.63
 39.57     536.01      23.15
 39.67     513.00      22.65
 39.77     536.42      23.16
 39.87     504.00      22.45
 39.97     505.78      22.49
 40.07     534.00      23.11
 40.17     494.00      22.23
 40.27     482.00      21.95
 40.37     476.00      21.82
 40.47     510.51      22.59
 40.57     509.00      22.56
 40.67     488.00      22.09
 40.77     529.05      23.00
 40.87     502.55      22.42
 40.97     509.00      22.56
 41.07     546.00      23.37
 41.17     472.00      21.73
 41.27     515.30      22.70
 41.37     484.00      22.00
 41.47     482.00      21.95
 41.57     466.50      21.60
 41.67     473.27      21.75
 41.77     513.00      22.65
 41.87     500.00      22.36
 41.97     510.00      22.58
 42.07     503.00      22.43
 42.17     501.55      22.40
 42.27     521.00      22.83
 42.37     557.00      23.60
 42.47     567.00      23.81
 42.57     564.00      23.75
 42.67     599.00      24.47
 42.77     637.45      25.25
 42.87     544.00      23.32
 42.97     594.52      24.38
 43.07     553.00      23.52
 43.17     571.53      23.91
 43.27     516.00      22.72
 43.37     521.82      22.84
 43.47     527.00      22.96
 43.57     488.97      22.11
 43.67     529.00      23.00
 43.77     518.12      22.76
 43.87     535.66      23.14
 43.97     548.00      23.41
 44.07     513.00      22.65
 44.17     488.00      22.09
 44.27     528.00      22.98
 44.37     526.69      22.95
 44.47     489.70      22.13
 44.57     518.00      22.76
 44.67     488.00      22.09
 44.77     512.00      22.63
 44.87     495.00      22.25
 44.97     540.76      23.25
 45.07     521.00      22.83
 45.17     516.00      22.72
 45.27     468.71      21.65
 45.37     473.00      21.75
 45.47     477.43      21.85
 45.57     555.00      23.56
 45.67     480.48      21.92
 45.77     491.00      22.16
 45.87     509.00      22.56
 45.97     452.00      21.26
 46.07     498.00      22.32
 46.17     511.49      22.62
 46.27     539.99      23.24
 46.37     485.20      22.03
 46.47     516.68      22.73
 46.57     466.02      21.59
 46.67     491.00      22.16
 46.77     564.00      23.75
 46.87     492.00      22.18
 46.97     547.16      23.39
 47.07     490.00      22.14
 47.17     488.67      22.11
 47.27     486.00      22.05
 47.37     499.62      22.35
 47.47     525.00      22.91
 47.57     569.00      23.85
 47.67     584.00      24.17
 47.77     559.00      23.64
 47.87     616.00      24.82
 47.97     606.00      24.62
 48.07     587.00      24.23
 48.17     533.50      23.10
 48.27     578.00      24.04
 48.37     514.87      22.69
 48.47     582.00      24.12
 48.57     539.00      23.22
 48.67     490.00      22.14
 48.77     558.72      23.64
 48.87     522.00      22.85
 48.97     574.00      23.96
 49.07     567.00      23.81
 49.17     600.00      24.49
 49.27     589.00      24.27
 49.37     672.71      25.94
 49.47     695.26      26.37
 49.57     854.00      29.22
 49.67     921.00      30.35
 49.77    1156.00      34.00
 49.87    1452.00      38.11
 49.97    1853.68      43.05
 50.07    2143.41      46.30
 50.17    2467.00      49.67
 50.27    2466.00      49.66
 50.37    2282.00      47.77
 50.47    1884.00      43.41
 50.57    1448.00      38.05
 50.67    1066.00      32.65
 50.77     794.00      28.18
 50.87     736.57      27.14
 50.97     642.00      25.34
 51.07     620.00      24.90
 51.17     614.00      24.78
 51.27     574.02      23.96
 51.37     570.37      23.88
 51.47     563.31      23.73
 51.57     530.12      23.02
 51.67     506.89      22.51
 51.77     552.14      23.50
 51.87     569.30      23.86
 51.97     501.70      22.40
 52.07     576.00      24.00
 52.17     555.00      23.56
 52.27     544.51      23.33
 52.37     571.00      23.90
 52.47     586.35      24.21
 52.57     559.00      23.64
 52.67     578.00      24.04
 52.77     566.00      23.79
 52.87     584.10      24.17
 52.97     741.00      27.22
 53.07     806.00      28.39
 53.17     929.00      30.48
 53.27    1027.28      32.05
 53.37    1175.00      34.28
 53.47    1234.00      35.13
 53.57    1183.97      34.41
 53.67    1062.00      32.59
 53.77    1006.00      31.72
 53.87     851.00      29.17
 53.97     756.00      27.50
 54.07     719.00      26.81
 54.17     604.00      24.58
 54.27     595.00      24.39
 54.37     579.00      24.06
 54.47     555.00      23.56
 54.57     592.70      24.35
 54.67     578.00      24.04
 54.77     622.00      24.94
 54.87     531.82      23.06
 54.97     555.00      23.56
 55.07     589.00      24.27
 55.17     551.90      23.49
 55.27     546.87      23.39
 55.37     567.00      23.81
 55.47     570.00      23.87
 55.57     590.67      24.30
 55.67     584.50      24.18
 55.77     587.00      24.23
 55.87     610.00      24.70
 55.97     619.00      24.88
 56.07     636.95      25.24
 56.17     721.00      26.85
 56.27     964.00      31.05
 56.37    1147.00      33.87
 56.47    1384.00      37.20
 56.57    1804.28      42.48
 56.67    2134.00      46.20
 56.77    2498.35      49.98
 56.87    2745.89      52.40
 56.97    2555.00      50.55
 57.07    2446.22      49.46
 57.17    1983.00      44.53
 57.27    1624.83      40.31
 57.37    1291.00      35.93
 57.47    1081.39      32.88
 57.57     806.67      28.40
 57.67     767.00      27.69
 57.77     696.00      26.38
 57.87     679.00      26.06
 57.97     708.00      26.61
 58.07     646.50      25.43
 58.17     725.00      26.93
 58.27     816.00      28.57
 58.37     868.66      29.47
 58.47     964.95      31.06
 58.57    1067.70      32.68
 58.67    1223.31      34.98
 58.77    1443.00      37.99
 58.87    1556.00      39.45
 58.97    1512.02      38.88
 59.07    1547.96      39.34
 59.17    1581.00      39.76
 59.27    1444.00      38.00
 59.37    1303.89      36.11
 59.47    1274.00      35.69
 59.57    1198.00      34.61
 59.67    1079.31      32.85
 59.77    1090.70      33.03
 59.87    1245.00      35.28
 59.97    1310.00      36.19
 60.07    1421.00      37.70
 60.17    1558.00      39.47
 60.27    1639.00      40.48
 60.37    1578.73      39.73
 60.47    1388.17      37.26
 60.57    1250.00      35.36
 60.67    1077.00      32.82
 60.77     916.00      30.27
 60.87     826.20      28.74
 60.97     726.36      26.95
 61.07     683.00      26.13
 61.17     642.00      25.34
 61.27     626.00      25.02
 61.37     611.00      24.72
 61.47     727.68      26.98
 61.57     793.83      28.18
 61.67     844.00      29.05
 61.77     914.15      30.23
 61.87    1108.28      33.29
 61.97    1268.00      35.61
 62.07    1338.00      36.58
 62.17    1400.00      37.42
 62.27    1390.00      37.28
 62.37    1298.00      36.03
 62.47    1191.00      34.51
 62.57    1080.00      32.86
 62.67     856.24      29.26
 62.77     821.47      28.66
 62.87     689.98      26.27
 62.97     621.00      24.92
 63.07     602.00      24.54
 63.17     559.35      23.65
 63.27     544.00      23.32
 63.37     520.00      22.80
 63.47     555.00      23.56
 63.57     568.00      23.83
 63.67     574.22      23.96
 63.77     595.63      24.41
 63.87     647.76      25.45
 63.97     658.00      25.65
 64.07     719.00      26.81
 64.17     814.00      28.53
 64.27     849.00      29.14
 64.37     930.00      30.50
 64.47    1033.00      32.14
 64.57    1023.00      31.98
 64.67    1084.00      32.92
 64.77    1029.00      32.08
 64.87     943.00      30.71
 64.97     925.00      30.41
 65.07     838.00      28.95
 65.17     796.40      28.22
 65.27     756.11      27.50
 65.37     673.00      25.94
 65.47     632.00      25.14
 65.57     623.44      24.97
 65.67     645.86      25.41
 65.77     555.00      23.56
 65.87     599.00      24.47
 65.97     563.84      23.75
 66.07     560.00      23.66
 66.17     570.00      23.87
 66.27     538.00      23.19
 66.37     524.24      22.90
 66.47     586.58      24.22
 66.57     539.00      23.22
 66.67     581.00      24.10
 66.77     556.00      23.58
 66.87     598.00      24.45
 66.97     616.50      24.83
 67.07     660.06      25.69
 67.17     673.92      25.96
 67.27     805.41      28.38
 67.37     879.00      29.65
 67.47    1009.00      31.76
 67.57    1250.00      35.36
 67.67    1519.00      38.97
 67.77    1785.00      42.25
 67.87    2140.49      46.27
 67.97    2301.00      47.97
 68.07    2367.00      48.65
 68.17    2386.00      48.85
 68.27    2367.00      48.65
 68.37    2036.00      45.12
 68.47    1856.00      43.08
 68.57    1509.51      38.85
 68.67    1253.00      35.40
 68.77    1043.00      32.30
 68.87     833.55      28.87
 68.97     761.00      27.59
 69.07     686.69      26.20
 69.17     678.00      26.04
 69.27     633.38      25.17
 69.37     617.47      24.85
 69.47     614.79      24.79
 69.57     549.00      23.43
 69.67     604.00      24.58
 69.77     611.68      24.73
 69.87     535.00      23.13
 69.97     564.64      23.76
 70.07     592.68      24.35
 70.17     520.61      22.82
 70.27     531.41      23.05
 70.37     528.08      22.98
 70.47     555.00      23.56
 70.57     590.46      24.30
 70.67     587.00      24.23
 70.77     610.63      24.71
 70.87     602.01      24.54
 70.97     671.08      25.91
 71.07     648.00      25.46
 71.17     749.00      27.37
 71.27     857.06      29.28
 71.37     890.00      29.83
 71.47    1051.00      32.42
 71.57    1197.00      34.60
 71.67    1348.00      36.72
 71.77    1644.21      40.55
 71.87    1715.50      41.42
 71.97    1963.00      44.31
 72.07    1917.00      43.78
 72.17    1836.00      42.85
 72.27    1831.00      42.79
 72.37    1703.19      41.27
 72.47    1407.61      37.52
 72.57    1368.00      36.99
 72.67    1190.19      34.50
 72.77    1063.60      32.61
 72.87     950.00      30.82
 72.97     840.00      28.98
 73.07     779.00      27.91
 73.17     790.00      28.11
 73.27     801.21      28.31
 73.37     730.93      27.04
 73.47     606.00      24.62
 73.57     673.46      25.95
 73.67     597.00      24.43
 73.77     575.78      24.00
 73.87     631.00      25.12
 73.97     543.93      23.32
 74.07     611.75      24.73
 74.17     553.09      23.52
 74.27     647.00      25.44
 74.37     551.57      23.49
 74.47     620.00      24.90
 74.57     603.53      24.57
 74.67     602.19      24.54
 74.77     617.00      24.84
 74.87     631.00      25.12
 74.97     589.40      24.28
 75.07     542.00      23.28
 75.17     542.00      23.28
 75.27     550.00      23.45
 75.37     552.00      23.49
 75.47     567.00      23.81
 75.57     569.00      23.85
 75.67     564.73      23.76
 75.77     600.00      24.49
 75.87     620.00      24.90
 75.97     621.00      24.92
 76.07     597.56      24.44
 76.17     649.98      25.49
 76.27     657.00      25.63
 76.37     709.00      26.63
 76.47     679.80      26.07
 76.57     708.00      26.61
 76.67     715.60      26.75
 76.77     680.00      26.08
 76.87     620.00      24.90
 76.97     672.00      25.92
 77.07     635.00      25.20
 77.17     606.00      24.62
 77.27     577.24      24.03
 77.37     537.80      23.19
 77.47     560.00      23.66
 77.57     504.00      22.45
 77.67     513.00      22.65
 77.77     496.00      22.27
 77.87     509.22      22.57
 77.97     527.49      22.97
 78.07     548.27      23.42
 78.17     570.38      23.88
 78.27     555.00      23.56
 78.37     562.57      23.72
 78.47     558.00      23.62
 78.57     511.00      22.61
 78.67     533.60      23.10
 78.77     523.00      22.87
 78.87     564.00      23.75
 78.97     510.00      22.58
 79.07     501.00      22.38
 79.17     522.00      22.85
 79.27     542.00      23.28
 79.37     579.00      24.06
 79.47     489.00      22.11
 79.57     526.00      22.93
 79.67     505.00      22.47
 79.77     548.27      23.42
 79.87     532.00      23.07
 79.97     529.96      23.02
 80.07     581.33      24.11
 80.17     591.69      24.32
 80.27     535.84      23.15
 80.37     587.09      24.23
 80.47     604.00      24.58
 80.57     575.00      23.98
 80.67     625.65      25.01
 80.77     652.00      25.53
 80.87     706.57      26.58
 80.97     678.00      26.04
 81.07     719.00      26.81
 81.17     739.40      27.19
 81.27     742.00      27.24
 81.37     757.00      27.51
 81.47     771.28      27.77
 81.57     748.62      27.36
 81.67     760.47      27.58
 81.77     761.00      27.59
 81.87     689.95      26.27
 81.97     698.92      26.44
 82.07     670.00      25.88
 82.17     661.00      25.71
 82.27     662.53      25.74
 82.37     642.44      25.35
 82.47     621.00      24.92
 82.57     537.00      23.17
 82.67     589.54      24.28
 82.77     545.93      23.37
 82.87     585.04      24.19
 82.97     536.00      23.15
 83.07     535.00      23.13
 83.17     552.00      23.49
 83.27     560.75      23.68
 83.37     572.88      23.93
 83.47     596.93      24.43
 83.57     550.00      23.45
 83.67     521.86      22.84
 83.77     596.00      24.41
 83.87     560.00      23.66
 83.97     544.00      23.32
 84.07     544.22      23.33
 84.17     589.00      24.27
 84.27     543.00      23.30
 84.37     615.49      24.81
 84.47     546.00      23.37
 84.57     560.00      23.66
 84.67     571.00      23.90
 84.77     521.00      22.83
 84.87     534.00      23.11
 84.97     509.36      22.57
 85.07     557.00      23.60
 85.17     515.00      22.69
 85.27     516.57      22.73
 85.37     515.77      22.71
 85.47     495.00      22.25
 85.57     554.00      23.54
 85.67     524.00      22.89
 85.77     539.52      23.23
 85.87     533.00      23.09
 85.97     501.83      22.40
 86.07     500.00      22.36
 86.17     534.00      23.11
 86.27     551.28      23.48
 86.37     506.54      22.51
 86.47     550.00      23.45
 86.57     520.00      22.80
 86.67     594.00      24.37
 86.77     579.00      24.06
 86.87     549.66      23.44
 86.97     607.00      24.64
 87.07     643.00      25.36
 87.17     632.00      25.14
 87.27     605.85      24.61
 87.37     625.00      25.00
 87.47     603.00      24.56
 87.57     681.00      26.10
 87.67     613.00      24.76
 87.77     658.00      25.65
 87.87     565.77      23.79
 87.97     565.52      23.78
 88.07     631.00      25.12
 88.17     588.72      24.26
 88.27     602.00      24.54
 88.37     584.00      24.17
 88.47     565.17      23.77
 88.57     552.46      23.50
 88.67     569.00      23.85
 88.77     585.00      24.19
 88.87     592.00      24.33
 88.97     617.66      24.85
 89.07     580.00      24.08
 89.17     623.00      24.96
 89.27     605.00      24.60
 89.37     643.00      25.36
 89.47     598.00      24.45
 89.57     562.00      23.71
 89.67     621.35      24.93
 89.77     596.00      24.41
 89.87     576.00      24.00
 89.97     544.66      23.34
 90.07     526.10      22.94
 90.17     552.52      23.51
 90.27     506.00      22.49
 90.37     548.00      23.41
 90.47     559.00      23.64
 90.57     537.00      23.17
 90.67     551.11      23.48
 90.77     489.05      22.11
 90.87     554.00      23.54
 90.97     527.00      22.96
 91.07     535.92      23.15
 91.17     513.00      22.65
 91.27     517.00      22.74
 91.37     509.00      22.56
 91.47     498.00      22.32
 91.57     515.00      22.69
 91.67     516.00      22.72
 91.77     545.00      23.35
 91.87     540.26      23.24
 91.97     526.00      22.93
 92.07     564.00      23.75
 92.17     525.00      22.91
 92.27     588.44      24.26
 92.37     617.94      24.86
 92.47     598.75      24.47
 92.57     626.00      25.02
 92.67     660.00      25.69
 92.77     709.15      26.63
 92.87     728.00      26.98
 92.97     759.93      27.57
 93.07     736.40      27.14
 93.17     717.26      26.78
 93.27     769.56      27.74
 93.37     846.00      29.09
 93.47     858.67      29.30
 93.57     799.00      28.27
 93.67     808.77      28.44
 93.77     850.00      29.15
 93.87     814.00      28.53
 93.97     899.00      29.98
 94.07     872.92      29.55
 94.17     818.23      28.60
 94.27     884.00      29.73
 94.37     874.00      29.56
 94.47     858.00      29.29
 94.57     830.33      28.82
 94.67     913.00      30.22
 94.77     938.00      30.63
 94.87     902.00      30.03
 94.97     953.00      30.87
 95.07     844.00      29.05
 95.17     915.00      30.25
 95.27     767.97      27.71
 95.37     832.66      28.86
 95.47     816.00      28.57
 95.57     720.00      26.83
 95.67     686.00      26.19
 95.77     633.00      25.16
 95.87     706.80      26.59
 95.97     703.00      26.51
 96.07     713.15      26.70
 96.17     693.50      26.33
 96.27     730.21      27.02
 96.37     756.00      27.50
 96.47     807.33      28.41
 96.57     890.00      29.83
 96.67     874.80      29.58
 96.77     952.00      30.85
 96.87    1069.22      32.70
 96.97    1094.00      33.08
 97.07    1177.00      34.31
 97.17    1225.00      35.00
 97.27    1343.00      36.65
 97.37    1346.00      36.69
 97.47    1442.00      37.97
 97.57    1430.00      37.82
 97.67    1483.00      38.51
 97.77    1386.77      37.24
 97.87    1342.00      36.63
 97.97    1311.00      36.21
 98.07    1260.68      35.51
 98.17    1102.00      33.20
 98.27    1107.00      33.27
 98.37    1021.00      31.95
 98.47     926.38      30.44
 98.57     854.30      29.23
 98.67     865.00      29.41
 98.77     786.25      28.04
 98.87     815.43      28.56
 98.97     784.00      28.00
 99.07     836.00      28.91
 99.17     834.00      28.88
 99.27     927.00      30.45
 99.37     989.87      31.46
 99.47    1016.00      31.87
 99.57    1064.00      32.62
 99.67    1115.76      33.40
 99.77    1322.79      36.37
 99.87    1434.75      37.88
 99.97    1491.00      38.61
100.07    1556.87      39.46
100.17    1763.00      41.99
100.27    1879.91      43.36
100.37    1863.00      43.16
100.47    1967.00      44.35
100.57    2115.00      45.99
100.67    2068.00      45.48
100.77    2072.00      45.52
100.87    2088.00      45.69
100.97    2078.33      45.59
101.07    2000.00      44.72
101.17    1886.00      43.43
101.27    1844.05      42.94
101.37    1749.00      41.82
101.47    1582.38      39.78
101.57    1637.00      40.46
101.67    1420.00      37.68
101.77    1383.00      37.19
101.87    1280.45      35.78
101.97    1248.00      35.33
102.07    1156.00      34.00
102.17    1177.91      34.32
102.27    1156.00      34.00
102.37    1163.00      34.10
102.47    1063.00      32.60
102.57    1154.00      33.97
102.67    1056.29      32.50
102.77    1059.00      32.54
102.87     992.24      31.50
102.97     926.00      30.43
103.07     956.71      30.93
103.17     935.43      30.58
103.27     832.00      28.84
103.37     850.58      29.16
103.47     758.00      27.53
103.57     762.00      27.60
103.67     727.00      26.96
103.77     671.00      25.90
103.87     628.75      25.07
103.97     570.00      23.87
104.07     631.00      25.12
104.17     592.00      24.33
104.27     590.00      24.29
104.37     559.00      23.64
104.47     583.00      24.15
104.57     576.00      24.00
104.67     573.00      23.94
104.77     489.57      22.13
104.87     500.00      22.36
104.97     528.26      22.98
105.07     543.00      23.30
105.17     536.00      23.15
105.27     543.00      23.30
105.37     541.23      23.26
105.47     571.00      23.90
105.57     530.00      23.02
105.67     529.42      23.01
105.77     561.00      23.69
105.87     530.33      23.03
105.97     581.01      24.10
106.07     530.00      23.02
106.17     567.59      23.82
106.27     562.94      23.73
106.37     602.00      24.54
106.47     595.00      24.39
106.57     638.03      25.26
106.67     641.00      25.32
106.77     660.00      25.69
106.87     700.00      26.46
106.97     683.13      26.14
107.07     643.00      25.36
107.17     649.00      25.48
107.27     653.00      25.55
107.37     673.00      25.94
107.47     714.06      26.72
107.57     750.20      27.39
107.67     709.10      26.63
107.77     701.77      26.49
107.87     671.00      25.90
107.97     716.00      26.76
108.07     644.00      25.38
108.17     713.71      26.72
108.27     698.04      26.42
108.37     662.65      25.74
108.47     717.00      26.78
108.57     685.11      26.17
108.67     684.00      26.15
108.77     685.51      26.18
108.87     669.91      25.88
108.97     723.46      26.90
109.07     655.00      25.59
109.17     655.00      25.59
109.27     623.88      24.98
109.37     676.57      26.01
109.47     615.00      24.80
109.57     617.00      24.84
109.67     587.15      24.23
109.77     598.41      24.46
109.87     623.00      24.96
109.97     566.04      23.79
110.07     550.95      23.47
110.17     554.00      23.54
110.27     581.00      24.10
110.37     540.00      23.24
110.47     539.00      23.22
110.57     554.00      23.54
110.67     602.00      24.54
110.77     509.11      22.56
110.87     570.00      23.87
110.97     514.00      22.67
111.07     505.09      22.47
111.17     531.00      23.04
111.27     552.00      23.49
111.37     541.00      23.26
111.47     518.00      22.76
111.57     561.00      23.69
111.67     564.86      23.77
111.77     568.27      23.84
111.87     543.00      23.30
111.97     585.00      24.19
112.07     599.10      24.48
112.17     508.00      22.54
112.27     560.00      23.66
112.37     563.00      23.73
112.47     649.00      25.48
112.57     615.00      24.80
112.67     615.00      24.80
112.77     610.00      24.70
112.87     709.00      26.63
112.97     697.00      26.40
113.07     706.00      26.57
113.17     732.00      27.06
113.27     736.00      27.13
113.37     769.72      27.74
113.47     783.00      27.98
113.57     855.92      29.26
113.67     887.00      29.78
113.77     935.00      30.58
113.87     938.99      30.64
113.97    1044.92      32.33
114.07    1049.38      32.39
114.17    1073.00      32.76
114.27    1181.85      34.38
114.37    1224.23      34.99
114.47    1258.00      35.47
114.57    1469.00      38.33
114.67    1613.00      40.16
114.77    1747.00      41.80
114.87    1964.47      44.32
114.97    2085.00      45.66
115.07    2403.00      49.02
115.17    2636.00      51.34
115.27    2810.25      53.01
115.37    3125.00      55.90
115.47    3522.36      59.35
115.57    3764.00      61.35
115.67    4034.00      63.51
115.77    4425.00      66.52
115.87    4913.01      70.09
115.97    5425.42      73.66
116.07    5634.31      75.06
116.17    6059.00      77.84
116.27    6247.00      79.04
116.37    6684.00      81.76
116.47    6716.00      81.95
116.57    7010.00      83.73
116.67    6952.00      83.38
116.77    6857.00      82.81
116.87    6824.00      82.61
116.97    6544.19      80.90
117.07    6417.00      80.11
117.17    6238.41      78.98
117.27    5785.00      76.06
117.37    5232.00      72.33
117.47    4952.33      70.37
117.57    4718.00      68.69
117.67    4283.00      65.44
117.77    3993.00      63.19
117.87    3634.00      60.28
117.97    3306.00      57.50
118.07    2795.19      52.87
118.17    2578.00      50.77
118.27    2228.00      47.20
118.37    1977.74      44.47
118.47    1767.00      42.04
118.57    1545.00      39.31
118.67    1352.00      36.77
118.77    1242.00      35.24
118.87    1114.00      33.38
118.97    1018.00      31.91
119.07     905.73      30.10
119.17     867.98      29.46
119.27     869.00      29.48
119.37     756.27      27.50
119.47     729.00      27.00
119.57     689.87      26.27
119.67     673.70      25.96
119.77     624.00      24.98
119.87     620.00      24.90
119.97     582.42      24.13
120.07     657.84      25.65
120.17     572.00      23.92
120.27     633.00      25.16
120.37     603.00      24.56
120.47     570.00      23.87
120.57     587.05      24.23
120.67     597.95      24.45
120.77     644.00      25.38
120.87     598.90      24.47
120.97     555.18      23.56
121.07     590.15      24.29
121.17     572.55      23.93
121.27     566.39      23.80
121.37     569.00      23.85
121.47     558.00      23.62
121.57     603.00      24.56
121.67     608.00      24.66
121.77     580.00      24.08
121.87     591.00      24.31
121.97     565.00      23.77
122.07     614.00      24.78
122.17     610.59      24.71
122.27     582.50      24.13
122.37     599.21      24.48
122.47     674.14      25.96
122.57     592.00      24.33
122.67     647.00      25.44
122.77     614.00      24.78
122.87     664.00      25.77
122.97     679.00      26.06
123.07     629.63      25.09
123.17     682.31      26.12
123.27     652.00      25.53
123.37     661.08      25.71
123.47     642.35      25.34
123.57     646.00      25.42
123.67     681.01      26.10
123.77     647.17      25.44
123.87     602.00      24.54
123.97     611.00      24.72
124.07     621.00      24.92
124.17     576.00      24.00
124.27     596.00      24.41
124.37     645.00      25.40
124.47     625.00      25.00
124.57     621.00      24.92
124.67     551.39      23.48
124.77     590.18      24.29
124.87     579.00      24.06
124.97     550.34      23.46
