  9.97     635.00      25.20
 10.07     654.00      25.57
 10.17     570.00      23.87
 10.27     516.58      22.73
 10.37     582.15      24.13
 10.47     603.00      24.56
 10.57     563.31      23.73
 10.67     579.00      24.06
 10.77     575.00      23.98
 10.87     540.95      23.26
 10.97     574.00      23.96
 11.07     581.00      24.10
 11.17     564.00      23.75
 11.27     576.00      24.00
 11.37     532.00      23.07
 11.47     585.00      24.19
 11.57     626.00      25.02
 11.67     576.00      24.00
 11.77     585.00      24.19
 11.87     615.00      24.80
 11.97     663.20      25.75
 12.07     648.00      25.46
 12.17     646.70      25.43
 12.27     687.00      26.21
 12.37     636.00      25.22
 12.47     605.00      24.60
 12.57     616.00      24.82
 12.67     588.00      24.25
 12.77     554.00      23.54
 12.87     565.00      23.77
 12.97     532.00      23.07
 13.07     555.00      23.56
 13.17     536.00      23.15
 13.27     522.04      22.85
 13.37     520.00      22.80
 13.47     526.00      22.93
 13.57     548.34      23.42
 13.67     524.00      22.89
 13.77     582.61      24.14
 13.87     554.00      23.54
 13.97     580.00      24.08
 14.07     582.00      24.12
 14.17     587.00      24.23
 14.27     530.57      23.03
 14.37     524.72      22.91
 14.47     563.00      23.73
 14.57     535.00      23.13
 14.67     576.00      24.00
 14.77     545.00      23.35
 14.87     512.00      22.63
 14.97     542.00      23.28
 15.07     535.00      23.13
 15.17     573.00      23.94
 15.27     547.00      23.39
 15.37     509.00      22.56
 15.47     517.00      22.74
 15.57     519.00      22.78
 15.67     567.00      23.81
 15.77     554.00      23.54
 15.87     543.00      23.30
 15.97     522.44      22.86
 16.07     594.35      24.38
 16.17     519.43      22.79
 16.27     600.17      24.50
 16.37     584.00      24.17
 16.47     563.00      23.73
 16.57     585.00      24.19
 16.67     558.00      23.62
 16.77     523.72      22.88
 16.87     582.00      24.12
 16.97     609.00      24.68
 17.07     574.00      23.96
 17.17     541.00      23.26
 17.27     569.38      23.86
 17.37     566.38      23.80
 17.47     548.00      23.41
 17.57     519.00      22.78
 17.67     588.00      24.25
 17.77     556.00      23.58
 17.87     511.00      22.61
 17.97     568.00      23.83
 18.07     536.05      23.15
 18.17     558.99      23.64
 18.27     565.00      23.77
 18.37     582.23      24.13
 18.47     548.00      23.41
 18.57     509.00      22.56
 18.67     553.00      23.52
 18.77     493.00      22.20
 18.87     519.00      22.78
 18.97     558.00      23.62
 19.07     541.41      23.27
 19.17     577.00      24.02
 19.27     549.00      23.43
 19.37     580.02      24.08
 19.47     591.00      24.31
 19.57     574.00      23.96
 19.67     540.00      23.24
 19.77     530.00      23.02
 19.87     521.00      22.83
 19.97     516.99      22.74
 20.07     525.00      22.91
 20.17     556.99      23.60
 20.27     522.00      22.85
 20.37     558.00      23.62
 20.47     542.00      23.28
 20.57     558.00      23.62
 20.67     530.00      23.02
 20.77     557.67      23.62
 20.87     517.27      22.74
 20.97     568.95      23.85
 21.07     516.96      22.74
 21.17     512.00      22.63
 21.27     559.00      23.64
 21.37     555.00      23.56
 21.47     522.69      22.86
 21.57     543.00      23.30
 21.67     573.99      23.96
 21.77     546.00      23.37
 21.87     550.58      23.46
 21.97     519.00      22.78
 22.07     594.79      24.39
 22.17     556.00      23.58
 22.27     584.00      24.17
 22.37     578.30      24.05
 22.47     585.73      24.20
 22.57     586.00      24.21
 22.67     525.00      22.91
 22.77     559.46      23.65
 22.87     519.10      22.78
 22.97     560.00      23.66
 23.07     531.00      23.04
 23.17     574.00      23.96
 23.27     560.00      23.66
 23.37     586.00      24.21
 23.47     535.00      23.13
 23.57     584.49      24.18
 23.67     557.00      23.60
 23.77     588.76      24.26
 23.87     567.00      23.81
 23.97     550.00      23.45
 24.07     557.00      23.60
 24.17     569.00      23.85
 24.27     580.00      24.08
 24.37     592.00      24.33
 24.47     587.00      24.23
 24.57     559.02      23.64
 24.67     628.00      25.06
 24.77     659.00      25.67
 24.87     674.85      25.98
 24.97     577.70      24.04
 25.07     604.29      24.58
 25.17     616.32      24.83
 25.27     553.64      23.53
 25.37     587.02      24.23
 25.47     588.00      24.25
 25.57     525.82      22.93
 25.67     596.00      24.41
 25.77     590.00      24.29
 25.87     590.00      24.29
 25.97     548.00      23.41
 26.07     617.00      24.84
 26.17     577.00      24.02
 26.27     522.38      22.86
 26.37     572.78      23.93
 26.47     548.00      23.41
 26.57     525.00      22.91
 26.67     543.00      23.30
 26.77     512.85      22.65
 26.87     547.35      23.40
 26.97     563.00      23.73
 27.07     577.00      24.02
 27.17     592.73      24.35
 27.27     579.00      24.06
 27.37     573.00      23.94
 27.47     512.79      22.64
 27.57     514.35      22.68
 27.67     584.00      24.17
 27.77     606.00      24.62
 27.87     577.28      24.03
 27.97     596.79      24.43
 28.07     717.00      26.78
 28.17     838.01      28.95
 28.27     896.00      29.93
 28.37     921.14      30.35
 28.47     903.00      30.05
 28.57     789.00      28.09
 28.67     750.00      27.39
 28.77     734.00      27.09
 28.87     784.00      28.00
 28.97     815.00      28.55
 29.07     809.00      28.44
 29.17     730.55      27.03
 29.27     709.00      26.63
 29.37     642.90      25.36
 29.47     583.00      24.15
 29.57     600.00      24.49
 29.67     577.00      24.02
 29.77     571.96      23.92
 29.87     569.00      23.85
 29.97     600.00      24.49
 30.07     513.80      22.67
 30.17     555.00      23.56
 30.27     607.00      24.64
 30.37     554.00      23.54
 30.47     583.00      24.15
 30.57     601.00      24.52
 30.67     637.00      25.24
 30.77     567.00      23.81
 30.87     585.00      24.19
 30.97     580.00      24.08
 31.07     574.48      23.97
 31.17     608.00      24.66
 31.27     554.00      23.54
 31.37     546.24      23.37
 31.47     528.00      22.98
 31.57     537.45      23.18
 31.67     592.00      24.33
 31.77     514.99      22.69
 31.87     545.00      23.35
 31.97     587.00      24.23
 32.07     536.88      23.17
 32.17     507.61      22.53
 32.27     496.10      22.27
 32.37     575.00      23.98
 32.47     503.81      22.45
 32.57     497.56      22.31
 32.67     483.56      21.99
 32.77     548.00      23.41
 32.87     505.74      22.49
 32.97     528.00      22.98
 33.07     555.00      23.56
 33.17     518.98      22.78
 33.27     515.91      22.71
 33.37     571.00      23.90
 33.47     551.00      23.47
 33.57     596.00      24.41
 33.67     596.00      24.41
 33.77     665.00      25.79
 33.87     798.45      28.26
 33.97     884.00      29.73
 34.07    1025.00      32.02
 34.17     950.96      30.84
 34.27     950.00      30.82
 34.37     830.43      28.82
 34.47     705.00      26.55
 34.57     617.00      24.84
 34.67     601.00      24.52
 34.77     594.00      24.37
 34.87     549.00      23.43
 34.97     497.86      22.31
 35.07     517.82      22.76
 35.17     538.00      23.19
 35.27     468.00      21.63
 35.37     488.16      22.09
 35.47     483.00      21.98
 35.57     492.00      22.18
 35.67     476.00      21.82
 35.77     490.00      22.14
 35.87     511.00      22.61
 35.97     476.00      21.82
 36.07     524.00      22.89
 36.17     501.00      22.38
 36.27     528.00      22.98
 36.37     477.00      21.84
 36.47     504.00      22.45
 36.57     485.05      22.02
 36.67     505.00      22.47
 36.77     469.35      21.66
 36.87     522.00      22.85
 36.97     499.51      22.35
 37.07     528.00      22.98
 37.17     523.88      22.89
 37.27     481.00      21.93
 37.37     471.00      21.70
 37.47     526.00      22.93
 37.57     517.00      22.74
 37.67     491.00      22.16
 37.77     521.73      22.84
 37.87     513.79      22.67
 37.97     508.00      22.54
 38.07     531.00      23.04
 38.17     494.00      22.23
 38.27     482.00      21.95
 38.37     482.00      21.95
 38.47     499.80      22.36
 38.57     515.00      22.69
 38.67     477.00      21.84
 38.77     537.43      23.18
 38.87     487.44      22.08
 38.97     511.00      22.61
 39.07     478.00      21.86
 39.17     507.46      22.53
 39.27     453.67      21.30
 39.37     550.00      23.45
 39.47     478.00      21.86
 39.57     494.00      22.23
 39.67     523.00      22.87
 39.77     493.00      22.20
 39.87     473.00      21.75
 39.97     488.27      22.10
 40.07     485.00      22.02
 40.17     462.00      21.49
 40.27     521.08      22.83
 40.37     459.89      21.44
 40.47     474.98      21.79
 40.57     472.00      21.73
 40.67     522.63      22.86
 40.77     495.00      22.25
 40.87     470.70      21.70
 40.97     454.00      21.31
 41.07     502.00      22.41
 41.17     486.00      22.05
 41.27     480.78      21.93
 41.37     480.00      21.91
 41.47     513.43      22.66
 41.57     491.00      22.16
 41.67     482.00      21.95
 41.77     490.00      22.14
 41.87     437.00      20.90
 41.97     455.34      21.34
 42.07     466.92      21.61
 42.17     427.00      20.66
 42.27     489.00      22.11
 42.37     493.94      22.22
 42.47     528.00      22.98
 42.57     529.00      23.00
 42.67     560.00      23.66
 42.77     602.00      24.54
 42.87     567.00      23.81
 42.97     542.02      23.28
 43.07     560.04      23.67
 43.17     512.00      22.63
 43.27     502.00      22.41
 43.37     471.00      21.70
 43.47     497.10      22.30
 43.57     496.00      22.27
 43.67     469.11      21.66
 43.77     491.00      22.16
 43.87     474.38      21.78
 43.97     495.00      22.25
 44.07     494.13      22.23
 44.17     512.00      22.63
 44.27     487.17      22.07
 44.37     477.00      21.84
 44.47     496.00      22.27
 44.57     522.92      22.87
 44.67     474.00      21.77
 44.77     472.00      21.73
 44.87     511.33      22.61
 44.97     503.00      22.43
 45.07     519.64      22.80
 45.17     471.79      21.72
 45.27     506.00      22.49
 45.37     462.00      21.49
 45.47     503.00      22.43
 45.57     458.79      21.42
 45.67     513.01      22.65
 45.77     470.45      21.69
 45.87     524.56      22.90
 45.97     495.00      22.25
 46.07     505.00      22.47
 46.17     488.00      22.09
 46.27     529.94      23.02
 46.37     454.23      21.31
 46.47     492.00      22.18
 46.57     475.15      21.80
 46.67     515.84      22.71
 46.77     477.09      21.84
 46.87     509.00      22.56
 46.97     512.00      22.63
 47.07     456.01      21.35
 47.17     491.37      22.17
 47.27     504.00      22.45
 47.37     479.00      21.89
 47.47     522.00      22.85
 47.57     537.64      23.19
 47.67     531.39      23.05
 47.77     535.95      23.15
 47.87     570.00      23.87
 47.97     567.76      23.83
 48.07     600.00      24.49
 48.17     565.00      23.77
 48.27     615.00      24.80
 48.37     513.00      22.65
 48.47     537.00      23.17
 48.57     532.00      23.07
 48.67     560.00      23.66
 48.77     539.00      23.22
 48.87     514.00      22.67
 48.97     539.00      23.22
 49.07     512.99      22.65
 49.17     546.41      23.38
 49.27     563.00      23.73
 49.37     548.00      23.41
 49.47     634.34      25.19
 49.57     661.00      25.71
 49.67     730.63      27.03
 49.77     853.00      29.21
 49.87    1115.09      33.39
 49.97    1335.00      36.54
 50.07    1839.40      42.89
 50.17    2084.00      45.65
 50.27    2378.91      48.77
 50.37    2323.00      48.20
 50.47    2157.00      46.44
 50.57    1844.00      42.94
 50.67    1449.00      38.07
 50.77    1123.00      33.51
 50.87     904.00      30.07
 50.97     723.00      26.89
 51.07     661.00      25.71
 51.17     658.42      25.66
 51.27     571.15      23.90
 51.37     644.00      25.38
 51.47     569.82      23.87
 51.57     555.00      23.56
 51.67     599.00      24.47
 51.77     546.23      23.37
 51.87     532.21      23.07
 51.97     577.00      24.02
 52.07     496.21      22.28
 52.17     542.45      23.29
 52.27     558.00      23.62
 52.37     531.00      23.04
 52.47     526.47      22.95
 52.57     520.02      22.80
 52.67     541.35      23.27
 52.77     548.37      23.42
 52.87     593.90      24.37
 52.97     667.38      25.83
 53.07     708.00      26.61
 53.17     778.00      27.89
 53.27     793.89      28.18
 53.37     940.00      30.66
 53.47    1073.67      32.77
 53.57    1208.00      34.76
 53.67    1162.00      34.09
 53.77    1096.44      33.11
 53.87    1023.00      31.98
 53.97     893.00      29.88
 54.07     837.10      28.93
 54.17     738.00      27.17
 54.27     662.49      25.74
 54.37     645.86      25.41
 54.47     651.00      25.51
 54.57     556.00      23.58
 54.67     507.50      22.53
 54.77     563.00      23.73
 54.87     545.00      23.35
 54.97     571.62      23.91
 55.07     565.14      23.77
 55.17     562.00      23.71
 55.27     520.00      22.80
 55.37     566.00      23.79
 55.47     570.00      23.87
 55.57     551.58      23.49
 55.67     610.56      24.71
 55.77     561.53      23.70
 55.87     610.82      24.71
 55.97     568.08      23.83
 56.07     662.03      25.73
 56.17     683.00      26.13
 56.27     820.34      28.64
 56.37     876.00      29.60
 56.47    1115.22      33.39
 56.57    1368.00      36.99
 56.67    1611.00      40.14
 56.77    1878.00      43.34
 56.87    2314.00      48.10
 56.97    2473.66      49.74
 57.07    2445.69      49.45
 57.17    2418.00      49.17
 57.27    2146.00      46.32
 57.37    1813.68      42.59
 57.47    1364.00      36.93
 57.57    1128.00      33.59
 57.67     953.00      30.87
 57.77     814.09      28.53
 57.87     796.00      28.21
 57.97     697.08      26.40
 58.07     722.00      26.87
 58.17     706.00      26.57
 58.27     710.00      26.65
 58.37     736.38      27.14
 58.47     771.00      27.77
 58.57     788.00      28.07
 58.67     950.61      30.83
 58.77    1002.88      31.67
 58.87    1089.00      33.00
 58.97    1213.51      34.84
 59.07    1237.47      35.18
 59.17    1396.00      37.36
 59.27    1343.00      36.65
 59.37    1277.90      35.75
 59.47    1262.00      35.52
 59.57    1257.00      35.45
 59.67    1175.00      34.28
 59.77    1131.22      33.63
 59.87    1146.00      33.85
 59.97    1236.00      35.16
 60.07    1386.00      37.23
 60.17    1404.00      37.47
 60.27    1528.00      39.09
 60.37    1573.00      39.66
 60.47    1483.00      38.51
 60.57    1479.00      38.46
 60.67    1317.00      36.29
 60.77    1117.00      33.42
 60.87     950.00      30.82
 60.97     863.44      29.38
 61.07     773.94      27.82
 61.17     772.00      27.78
 61.27     697.00      26.40
 61.37     680.00      26.08
 61.47     685.43      26.18
 61.57     693.00      26.32
 61.67     709.28      26.63
 61.77     849.23      29.14
 61.87     881.09      29.68
 61.97    1054.00      32.47
 62.07    1199.77      34.64
 62.17    1261.00      35.51
 62.27    1302.00      36.08
 62.37    1317.15      36.29
 62.47    1367.89      36.99
 62.57    1180.00      34.35
 62.67    1049.00      32.39
 62.77     964.78      31.06
 62.87     874.00      29.56
 62.97     757.95      27.53
 63.07     731.52      27.05
 63.17     646.00      25.42
 63.27     594.00      24.37
 63.37     587.00      24.23
 63.47     563.55      23.74
 63.57     555.64      23.57
 63.67     612.00      24.74
 63.77     565.00      23.77
 63.87     611.00      24.72
 63.97     653.00      25.55
 64.07     663.00      25.75
 64.17     677.00      26.02
 64.27     755.00      27.48
 64.37     804.00      28.35
 64.47     857.00      29.27
 64.57     877.04      29.61
 64.67     909.00      30.15
 64.77     975.00      31.22
 64.87    1028.87      32.08
 64.97     967.00      31.10
 65.07     961.69      31.01
 65.17     835.00      28.90
 65.27     812.00      28.50
 65.37     765.00      27.66
 65.47     745.70      27.31
 65.57     664.00      25.77
 65.67     635.96      25.22
 65.77     594.00      24.37
 65.87     593.00      24.35
 65.97     567.00      23.81
 66.07     631.00      25.12
 66.17     535.00      23.13
 66.27     554.85      23.56
 66.37     544.00      23.32
 66.47     578.00      24.04
 66.57     518.03      22.76
 66.67     596.51      24.42
 66.77     571.49      23.91
 66.87     581.00      24.10
 66.97     598.11      24.46
 67.07     641.00      25.32
 67.17     623.10      24.96
 67.27     683.00      26.13
 67.37     748.67      27.36
 67.47     933.85      30.56
 67.57    1082.30      32.90
 67.67    1266.65      35.59
 67.77    1460.48      38.22
 67.87    1600.46      40.01
 67.97    1901.00      43.60
 68.07    2149.29      46.36
 68.17    2302.00      47.98
 68.27    2397.00      48.96
 68.37    2304.74      48.01
 68.47    2244.00      47.37
 68.57    1891.55      43.49
 68.67    1643.88      40.54
 68.77    1397.91      37.39
 68.87    1238.00      35.19
 68.97    1163.00      34.10
 69.07     891.04      29.85
 69.17     824.00      28.71
 69.27     775.00      27.84
 69.37     641.63      25.33
 69.47     635.00      25.20
 69.57     625.00      25.00
 69.67     589.00      24.27
 69.77     620.21      24.90
 69.87     583.16      24.15
 69.97     606.00      24.62
 70.07     565.00      23.77
 70.17     534.00      23.11
 70.27     540.73      23.25
 70.37     543.00      23.30
 70.47     551.00      23.47
 70.57     559.36      23.65
 70.67     577.00      24.02
 70.77     610.24      24.70
 70.87     595.00      24.39
 70.97     595.00      24.39
 71.07     673.00      25.94
 71.17     652.00      25.53
 71.27     723.00      26.89
 71.37     717.00      26.78
 71.47     863.66      29.39
 71.57     974.00      31.21
 71.67    1158.00      34.03
 71.77    1248.00      35.33
 71.87    1516.28      38.94
 71.97    1649.00      40.61
 72.07    1780.28      42.19
 72.17    1873.00      43.28
 72.27    1858.00      43.10
 72.37    1769.63      42.07
 72.47    1656.00      40.69
 72.57    1571.00      39.64
 72.67    1411.00      37.56
 72.77    1232.00      35.10
 72.87    1075.48      32.79
 72.97     894.00      29.90
 73.07     881.00      29.68
 73.17     763.00      27.62
 73.27     763.81      27.64
 73.37     708.00      26.61
 73.47     657.00      25.63
 73.57     655.86      25.61
 73.67     577.00      24.02
 73.77     620.00      24.90
 73.87     555.00      23.56
 73.97     576.00      24.00
 74.07     599.99      24.49
 74.17     553.31      23.52
 74.27     603.00      24.56
 74.37     581.00      24.10
 74.47     599.24      24.48
 74.57     573.00      23.94
 74.67     526.64      22.95
 74.77     670.00      25.88
 74.87     626.00      25.02
 74.97     550.26      23.46
 75.07     590.00      24.29
 75.17     586.00      24.21
 75.27     577.00      24.02
 75.37     564.03      23.75
 75.47     577.00      24.02
 75.57     575.00      23.98
 75.67     515.39      22.70
 75.77     562.00      23.71
 75.87     513.99      22.67
 75.97     546.09      23.37
 76.07     617.00      24.84
 76.17     588.84      24.27
 76.27     621.00      24.92
 76.37     691.00      26.29
 76.47     661.00      25.71
 76.57     666.00      25.81
 76.67     715.00      26.74
 76.77     697.38      26.41
 76.87     688.00      26.23
 76.97     666.86      25.82
 77.07     645.00      25.40
 77.17     606.00      24.62
 77.27     589.00      24.27
 77.37     568.00      23.83
 77.47     544.00      23.32
 77.57     536.00      23.15
 77.67     548.00      23.41
 77.77     509.00      22.56
 77.87     569.13      23.86
 77.97     495.00      22.25
 78.07     508.00      22.54
 78.17     513.00      22.65
 78.27     543.98      23.32
 78.37     470.28      21.69
 78.47     486.28      22.05
 78.57     499.00      22.34
 78.67     483.00      21.98
 78.77     526.00      22.93
 78.87     525.20      22.92
 78.97     506.19      22.50
 79.07     474.00      21.77
 79.17     506.00      22.49
 79.27     490.00      22.14
 79.37     509.00      22.56
 79.47     489.00      22.11
 79.57     495.00      22.25
 79.67     482.00      21.95
 79.77     528.00      22.98
 79.87     493.00      22.20
 79.97     486.60      22.06
 80.07     511.00      22.61
 80.17     544.00      23.32
 80.27     576.00      24.00
 80.37     496.00      22.27
 80.47     552.00      23.49
 80.57     604.58      24.59
 80.67     575.46      23.99
 80.77     600.00      24.49
 80.87     595.00      24.39
 80.97     635.00      25.20
 81.07     632.00      25.14
 81.17     732.34      27.06
 81.27     659.00      25.67
 81.37     732.00      27.06
 81.47     691.53      26.30
 81.57     733.00      27.07
 81.67     733.00      27.07
 81.77     687.85      26.23
 81.87     738.00      27.17
 81.97     734.73      27.11
 82.07     689.00      26.25
 82.17     660.00      25.69
 82.27     637.28      25.24
 82.37     670.00      25.88
 82.47     663.20      25.75
 82.57     586.00      24.21
 82.67     589.00      24.27
 82.77     528.00      22.98
 82.87     521.00      22.83
 82.97     518.00      22.76
 83.07     550.00      23.45
 83.17     524.55      22.90
 83.27     538.68      23.21
 83.37     581.84      24.12
 83.47     526.00      22.93
 83.57     524.00      22.89
 83.67     502.31      22.41
 83.77     552.64      23.51
 83.87     549.00      23.43
 83.97     561.75      23.70
 84.07     539.00      23.22
 84.17     551.00      23.47
 84.27     529.00      23.00
 84.37     602.13      24.54
 84.47     587.00      24.23
 84.57     557.00      23.60
 84.67     528.00      22.98
 84.77     564.47      23.76
 84.87     564.36      23.76
 84.97     525.00      22.91
 85.07     532.00      23.07
 85.17     476.00      21.82
 85.27     512.00      22.63
 85.37     517.96      22.76
 85.47     508.37      22.55
 85.57     505.00      22.47
 85.67     460.43      21.46
 85.77     479.31      21.89
 85.87     493.00      22.20
 85.97     481.00      21.93
 86.07     538.00      23.19
 86.17     510.00      22.58
 86.27     514.00      22.67
 86.37     522.00      22.85
 86.47     547.63      23.40
 86.57     526.00      22.93
 86.67     505.00      22.47
 86.77     506.00      22.49
 86.87     552.00      23.49
 86.97     577.00      24.02
 87.07     569.00      23.85
 87.17     568.00      23.83
 87.27     560.77      23.68
 87.37     564.06      23.75
 87.47     568.96      23.85
 87.57     648.00      25.46
 87.67     601.00      24.52
 87.77     633.55      25.17
 87.87     563.54      23.74
 87.97     610.00      24.70
 88.07     645.00      25.40
 88.17     564.89      23.77
 88.27     589.00      24.27
 88.37     552.00      23.49
 88.47     588.00      24.25
 88.57     516.76      22.73
 88.67     548.00      23.41
 88.77     575.00      23.98
 88.87     554.00      23.54
 88.97     520.00      22.80
 89.07     584.51      24.18
 89.17     599.00      24.47
 89.27     595.48      24.40
 89.37     576.00      24.00
 89.47     573.00      23.94
 89.57     565.00      23.77
 89.67     561.68      23.70
 89.77     583.00      24.15
 89.87     536.23      23.16
 89.97     518.00      22.76
 90.07     609.00      24.68
 90.17     588.00      24.25
 90.27     561.00      23.69
 90.37     564.00      23.75
 90.47     516.33      22.72
 90.57     556.52      23.59
 90.67     541.30      23.27
 90.77     503.00      22.43
 90.87     475.12      21.80
 90.97     514.00      22.67
 91.07     490.32      22.14
 91.17     478.59      21.88
 91.27     529.00      23.00
 91.37     509.00      22.56
 91.47     509.01      22.56
 91.57     488.74      22.11
 91.67     533.00      23.09
 91.77     521.00      22.83
 91.87     508.00      22.54
 91.97     563.98      23.75
 92.07     530.00      23.02
 92.17     518.75      22.78
 92.27     501.78      22.40
 92.37     518.00      22.76
 92.47     502.00      22.41
 92.57     571.00      23.90
 92.67     583.00      24.15
 92.77     603.40      24.56
 92.87     626.92      25.04
 92.97     669.00      25.87
 93.07     627.00      25.04
 93.17     650.00      25.50
 93.27     703.00      26.51
 93.37     710.00      26.65
 93.47     740.00      27.20
 93.57     784.00      28.00
 93.67     738.00      27.17
 93.77     748.00      27.35
 93.87     804.31      28.36
 93.97     781.55      27.96
 94.07     778.72      27.91
 94.17     772.00      27.78
 94.27     791.00      28.12
 94.37     814.00      28.53
 94.47     806.00      28.39
 94.57     824.00      28.71
 94.67     854.00      29.22
 94.77     806.17      28.39
 94.87     902.00      30.03
 94.97     949.00      30.81
 95.07     872.89      29.54
 95.17     836.67      28.93
 95.27     877.92      29.63
 95.37     886.00      29.77
 95.47     872.00      29.53
 95.57     860.00      29.33
 95.67     792.24      28.15
 95.77     782.02      27.96
 95.87     735.00      27.11
 95.97     724.00      26.91
 96.07     720.57      26.84
 96.17     730.05      27.02
 96.27     690.00      26.27
 96.37     737.00      27.15
 96.47     741.00      27.22
 96.57     793.00      28.16
 96.67     772.00      27.78
 96.77     840.53      28.99
 96.87     855.76      29.25
 96.97     982.00      31.34
 97.07    1013.00      31.83
 97.17    1100.00      33.17
 97.27    1159.00      34.04
 97.37    1250.75      35.37
 97.47    1270.00      35.64
 97.57    1354.00      36.80
 97.67    1401.00      37.43
 97.77    1343.34      36.65
 97.87    1374.00      37.07
 97.97    1395.71      37.36
 98.07    1320.20      36.33
 98.17    1307.68      36.16
 98.27    1252.99      35.40
 98.37    1197.00      34.60
 98.47    1140.00      33.76
 98.57    1084.00      32.92
 98.67    1041.40      32.27
 98.77    1039.61      32.24
 98.87     884.06      29.73
 98.97     895.56      29.93
 99.07     898.00      29.97
 99.17     851.00      29.17
 99.27     815.00      28.55
 99.37     855.30      29.25
 99.47     927.00      30.45
 99.57     967.00      31.10
 99.67     972.00      31.18
 99.77    1053.00      32.45
 99.87    1123.63      33.52
 99.97    1149.00      33.90
100.07    1303.00      36.10
100.17    1332.12      36.50
100.27    1497.00      38.69
100.37    1629.00      40.36
100.47    1630.48      40.38
100.57    1804.00      42.47
100.67    1839.00      42.88
100.77    1853.00      43.05
100.87    1972.00      44.41
100.97    1934.00      43.98
101.07    1959.00      44.26
101.17    1880.05      43.36
101.27    1933.00      43.97
101.37    1890.00      43.47
101.47    1908.00      43.68
101.57    1773.00      42.11
101.67    1653.80      40.67
101.77    1564.00      39.55
101.87    1530.00      39.12
101.97    1434.09      37.87
102.07    1446.76      38.04
102.17    1374.00      37.07
102.27    1285.00      35.85
102.37    1248.00      35.33
102.47    1225.75      35.01
102.57    1194.87      34.57
102.67    1145.66      33.85
102.77    1196.00      34.58
102.87    1118.00      33.44
102.97    1080.11      32.86
103.07     962.00      31.02
103.17     973.00      31.19
103.27     964.40      31.05
103.37     955.00      30.90
103.47     962.74      31.03
103.57     940.00      30.66
103.67     851.00      29.17
103.77     812.00      28.50
103.87     725.62      26.94
103.97     740.12      27.21
104.07     673.20      25.95
104.17     698.00      26.42
104.27     588.61      24.26
104.37     647.00      25.44
104.47     593.94      24.37
104.57     604.00      24.58
104.67     613.00      24.76
104.77     591.76      24.33
104.87     564.00      23.75
104.97     526.00      22.93
105.07     495.08      22.25
105.17     532.12      23.07
105.27     511.00      22.61
105.37     575.00      23.98
105.47     559.33      23.65
105.57     497.00      22.29
105.67     553.00      23.52
105.77     497.36      22.30
105.87     499.00      22.34
105.97     543.00      23.30
106.07     551.00      23.47
106.17     526.00      22.93
106.27     540.38      23.25
106.37     552.06      23.50
106.47     592.00      24.33
106.57     543.00      23.30
106.67     579.00      24.06
106.77     598.00      24.45
106.87     572.00      23.92
106.97     620.00      24.90
107.07     634.00      25.18
107.17     614.33      24.79
107.27     660.00      25.69
107.37     637.43      25.25
107.47     672.29      25.93
107.57     654.00      25.57
107.67     702.00      26.50
107.77     690.28      26.27
107.87     685.93      26.19
107.97     668.34      25.85
108.07     697.00      26.40
108.17     655.56      25.60
108.27     680.00      26.08
108.37     725.90      26.94
108.47     661.00      25.71
108.57     650.96      25.51
108.67     692.63      26.32
108.77     626.00      25.02
108.87     723.18      26.89
108.97     659.59      25.68
109.07     724.04      26.91
109.17     652.26      25.54
109.27     638.00      25.26
109.37     694.59      26.35
109.47     660.48      25.70
109.57     648.00      25.46
109.67     664.00      25.77
109.77     640.00      25.30
109.87     627.86      25.06
109.97     638.00      25.26
110.07     646.00      25.42
110.17     616.00      24.82
110.27     630.90      25.12
110.37     567.16      23.82
110.47     571.00      23.90
110.57     545.13      23.35
110.67     578.00      24.04
110.77     558.00      23.62
110.87     515.00      22.69
110.97     530.84      23.04
111.07     560.00      23.66
111.17     561.00      23.69
111.27     540.00      23.24
111.37     539.00      23.22
111.47     520.85      22.82
111.57     561.00      23.69
111.67     559.00      23.64
111.77     572.97      23.94
111.87     567.12      23.81
111.97     545.00      23.35
112.07     526.75      22.95
112.17     559.00      23.64
112.27     558.00      23.62
112.37     519.00      22.78
112.47     578.00      24.04
112.57     595.00      24.39
112.67     563.00      23.73
112.77     553.00      23.52
112.87     601.38      24.52
112.97     570.00      23.87
113.07     578.00      24.04
113.17     585.00      24.19
113.27     573.02      23.94
113.37     606.59      24.63
113.47     588.00      24.25
113.57     613.00      24.76
113.67     649.00      25.48
113.77     676.51      26.01
113.87     674.00      25.96
113.97     694.00      26.34
114.07     703.00      26.51
114.17     793.00      28.16
114.27     781.92      27.96
114.37     828.02      28.78
114.47     851.00      29.17
114.57     994.79      31.54
114.67    1058.00      32.53
114.77    1106.74      33.27
114.87    1277.00      35.74
114.97    1399.72      37.41
115.07    1674.00      40.91
115.17    1753.32      41.87
115.27    2007.20      44.80
115.37    2263.62      47.58
115.47    2535.00      50.35
115.57    2828.00      53.18
115.67    3149.00      56.12
115.77    3459.00      58.81
115.87    3769.54      61.40
115.97    4178.00      64.64
116.07    4350.23      65.96
116.17    4724.00      68.73
116.27    5333.98      73.03
116.37    5488.27      74.08
116.47    5810.26      76.23
116.57    6252.00      79.07
116.67    6315.38      79.47
116.77    6559.00      80.99
116.87    6635.00      81.46
116.97    6837.93      82.69
117.07    6883.00      82.96
117.17    6901.00      83.07
117.27    6752.95      82.18
117.37    6461.00      80.38
117.47    6236.00      78.97
117.57    5992.00      77.41
117.67    5555.00      74.53
117.77    5213.00      72.20
117.87    4927.00      70.19
117.97    4636.00      68.09
118.07    4362.00      66.05
118.17    3941.00      62.78
118.27    3577.12      59.81
118.37    3187.40      56.46
118.47    2984.00      54.63
118.57    2513.07      50.13
118.67    2391.08      48.90
118.77    2155.28      46.43
118.87    1856.16      43.08
118.97    1763.52      41.99
119.07    1548.91      39.36
119.17    1331.00      36.48
119.27    1304.89      36.12
119.37    1128.00      33.59
119.47    1080.00      32.86
119.57    1003.96      31.69
119.67     913.00      30.22
119.77     864.00      29.39
119.87     848.77      29.13
119.97     791.00      28.12
120.07     786.00      28.04
120.17     737.18      27.15
120.27     671.00      25.90
120.37     675.00      25.98
120.47     666.00      25.81
120.57     612.00      24.74
120.67     621.00      24.92
120.77     603.00      24.56
120.87     617.00      24.84
120.97     603.74      24.57
121.07     559.00      23.64
121.17     590.11      24.29
121.27     564.97      23.77
121.37     550.00      23.45
121.47     554.77      23.55
121.57     570.00      23.87
121.67     607.00      24.64
121.77     572.61      23.93
121.87     593.00      24.35
121.97     572.00      23.92
122.07     624.89      25.00
122.17     553.26      23.52
122.27     594.61      24.38
122.37     631.92      25.14
122.47     621.00      24.92
122.57     645.12      25.40
122.67     584.75      24.18
122.77     590.00      24.29
122.87     680.00      26.08
122.97     583.86      24.16
123.07     598.25      24.46
123.17     627.00      25.04
123.27     650.00      25.50
123.37     676.00      26.00
123.47     614.80      24.80
123.57     623.00      24.96
123.67     589.31      24.28
123.77     615.00      24.80
123.87     603.00      24.56
123.97     663.87      25.77
124.07     619.00      24.88
124.17     623.88      24.98
124.27     639.00      25.28
124.37     594.00      24.37
124.47     618.39      24.87
124.57     607.00      24.64
124.67     615.00      24.80
124.77     633.41      25.17
124.87     549.00      23.43
124.97     566.00      23.79
