  9.97     685.00      26.17
 10.07     667.00      25.83
 10.17     573.76      23.95
 10.27     689.00      26.25
 10.37     684.00      26.15
 10.47     683.00      26.13
 10.57     676.00      26.00
 10.67     649.50      25.49
 10.77     662.00      25.73
 10.87     591.55      24.32
 10.97     662.00      25.73
 11.07     625.00      25.00
 11.17     684.00      26.15
 11.27     678.00      26.04
 11.37     640.62      25.31
 11.47     649.00      25.48
 11.57     659.00      25.67
 11.67     713.00      26.70
 11.77     653.09      25.56
 11.87     719.00      26.81
 11.97     652.94      25.55
 12.07     693.22      26.33
 12.17     757.00      27.51
 12.27     752.00      27.42
 12.37     755.00      27.48
 12.47     697.00      26.40
 12.57     634.00      25.18
 12.67     703.17      26.52
 12.77     626.00      25.02
 12.87     650.77      25.51
 12.97     621.39      24.93
 13.07     659.00      25.67
 13.17     623.00      24.96
 13.27     636.00      25.22
 13.37     654.64      25.59
 13.47     620.00      24.90
 13.57     631.00      25.12
 13.67     619.25      24.88
 13.77     600.13      24.50
 13.87     614.20      24.78
 13.97     626.30      25.03
 14.07     639.00      25.28
 14.17     675.58      25.99
 14.27     627.00      25.04
 14.37     659.18      25.67
 14.47     608.08      24.66
 14.57     680.99      26.10
 14.67     624.32      24.99
 14.77     625.31      25.01
 14.87     588.08      24.25
 14.97     628.00      25.06
 15.07     576.86      24.02
 15.17     633.00      25.16
 15.27     655.74      25.61
 15.37     616.00      24.82
 15.47     619.00      24.88
 15.57     692.38      26.31
 15.67     615.00      24.80
 15.77     612.00      24.74
 15.87     594.00      24.37
 15.97     627.00      25.04
 16.07     633.52      25.17
 16.17     652.00      25.53
 16.27     622.30      24.95
 16.37     588.80      24.27
 16.47     691.45      26.30
 16.57     619.00      24.88
 16.67     654.00      25.57
 16.77     595.00      24.39
 16.87     681.04      26.10
 16.97     617.97      24.86
 17.07     614.00      24.78
 17.17     633.00      25.16
 17.27     584.00      24.17
 17.37     658.88      25.67
 17.47     626.01      25.02
 17.57     620.92      24.92
 17.67     663.42      25.76
 17.77     617.00      24.84
 17.87     606.00      24.62
 17.97     579.00      24.06
 18.07     621.00      24.92
 18.17     681.12      26.10
 18.27     588.21      24.25
 18.37     642.00      25.34
 18.47     658.75      25.67
 18.57     627.00      25.04
 18.67     592.72      24.35
 18.77     615.00      24.80
 18.87     597.33      24.44
 18.97     636.00      25.22
 19.07     571.00      23.90
 19.17     570.00      23.87
 19.27     611.00      24.72
 19.37     610.09      24.70
 19.47     570.00      23.87
 19.57     617.00      24.84
 19.67     615.94      24.82
 19.77     627.00      25.04
 19.87     595.00      24.39
 19.97     673.68      25.96
 20.07     616.26      24.82
 20.17     582.00      24.12
 20.27     574.00      23.96
 20.37     632.00      25.14
 20.47     583.00      24.15
 20.57     614.00      24.78
 20.67     613.00      24.76
 20.77     632.67      25.15
 20.87     589.00      24.27
 20.97     607.00      24.64
 21.07     630.69      25.11
 21.17     597.78      24.45
 21.27     625.00      25.00
 21.37     603.00      24.56
 21.47     600.00      24.49
 21.57     615.00      24.80
 21.67     596.87      24.43
 21.77     612.00      24.74
 21.87     671.28      25.91
 21.97     623.00      24.96
 22.07     618.00      24.86
 22.17     629.00      25.08
 22.27     601.00      24.52
 22.37     637.89      25.26
 22.47     602.71      24.55
 22.57     565.00      23.77
 22.67     590.00      24.29
 22.77     631.00      25.12
 22.87     581.86      24.12
 22.97     630.00      25.10
 23.07     573.20      23.94
 23.17     639.03      25.28
 23.27     614.07      24.78
 23.37     659.68      25.68
 23.47     627.00      25.04
 23.57     598.00      24.45
 23.67     613.00      24.76
 23.77     671.00      25.90
 23.87     683.00      26.13
 23.97     658.00      25.65
 24.07     626.88      25.04
 24.17     625.00      25.00
 24.27     656.60      25.62
 24.37     642.00      25.34
 24.47     649.31      25.48
 24.57     672.00      25.92
 24.67     678.00      26.04
 24.77     726.00      26.94
 24.87     749.14      27.37
 24.97     722.00      26.87
 25.07     696.00      26.38
 25.17     676.93      26.02
 25.27     616.99      24.84
 25.37     629.00      25.08
 25.47     666.00      25.81
 25.57     613.00      24.76
 25.67     666.00      25.81
 25.77     601.58      24.53
 25.87     607.92      24.66
 25.97     679.35      26.06
 26.07     668.00      25.85
 26.17     677.35      26.03
 26.27     725.00      26.93
 26.37     681.00      26.10
 26.47     659.00      25.67
 26.57     567.39      23.82
 26.67     697.00      26.40
 26.77     591.42      24.32
 26.87     677.00      26.02
 26.97     698.00      26.42
 27.07     725.00      26.93
 27.17     624.81      25.00
 27.27     741.00      27.22
 27.37     715.00      26.74
 27.47     747.00      27.33
 27.57     770.00      27.75
 27.67     768.00      27.71
 27.77     836.00      28.91
 27.87     783.00      27.98
 27.97     813.00      28.51
 28.07    1005.00      31.70
 28.17     999.25      31.61
 28.27    1161.15      34.08
 28.37    1353.38      36.79
 28.47    1299.35      36.05
 28.57    1183.00      34.39
 28.67    1014.00      31.84
 28.77     986.00      31.40
 28.87    1001.49      31.65
 28.97    1108.00      33.29
 29.07    1144.00      33.82
 29.17    1132.00      33.65
 29.27     942.44      30.70
 29.37     901.00      30.02
 29.47     905.00      30.08
 29.57     774.00      27.82
 29.67     795.00      28.20
 29.77     640.81      25.31
 29.87     756.00      27.50
 29.97     633.97      25.18
 30.07     729.00      27.00
 30.17     613.21      24.76
 30.27     695.00      26.36
 30.37     728.00      26.98
 30.47     608.08      24.66
 30.57     704.00      26.53
 30.67     666.00      25.81
 30.77     706.00      26.57
 30.87     651.01      25.51
 30.97     759.00      27.55
 31.07     715.92      26.76
 31.17     648.04      25.46
 31.27     688.00      26.23
 31.37     601.75      24.53
 31.47     709.00      26.63
 31.57     651.00      25.51
 31.67     657.00      25.63
 31.77     604.00      24.58
 31.87     637.43      25.25
 31.97     627.00      25.04
 32.07     654.35      25.58
 32.17     595.00      24.39
 32.27     550.06      23.45
 32.37     556.61      23.59
 32.47     678.00      26.04
 32.57     605.00      24.60
 32.67     575.00      23.98
 32.77     602.00      24.54
 32.87     610.00      24.70
 32.97     561.00      23.69
 33.07     658.74      25.67
 33.17     638.00      25.26
 33.27     629.00      25.08
 33.37     636.00      25.22
 33.47     647.73      25.45
 33.57     602.00      24.54
 33.67     663.00      25.75
 33.77     705.91      26.57
 33.87     745.88      27.31
 33.97     836.00      28.91
 34.07     961.48      31.01
 34.17    1039.22      32.24
 34.27    1043.00      32.30
 34.37     994.00      31.53
 34.47     836.82      28.93
 34.57     763.00      27.62
 34.67     716.00      26.76
 34.77     668.00      25.85
 34.87     622.00      24.94
 34.97     586.84      24.22
 35.07     625.33      25.01
 35.17     643.54      25.37
 35.27     598.16      24.46
 35.37     613.19      24.76
 35.47     573.79      23.95
 35.57     640.17      25.30
 35.67     587.66      24.24
 35.77     534.00      23.11
 35.87     600.20      24.50
 35.97     572.00      23.92
 36.07     617.00      24.84
 36.17     532.00      23.07
 36.27     493.00      22.20
 36.37     573.00      23.94
 36.47     569.00      23.85
 36.57     548.47      23.42
 36.67     509.40      22.57
 36.77     558.00      23.62
 36.87     585.29      24.19
 36.97     521.47      22.84
 37.07     538.68      23.21
 37.17     542.00      23.28
 37.27     592.00      24.33
 37.37     540.32      23.24
 37.47     575.00      23.98
 37.57     564.00      23.75
 37.67     549.89      23.45
 37.77     533.90      23.11
 37.87     595.00      24.39
 37.97     553.00      23.52
 38.07     532.00      23.07
 38.17     553.00      23.52
 38.27     503.00      22.43
 38.37     588.03      24.25
 38.47     546.00      23.37
 38.57     599.98      24.49
 38.67     550.00      23.45
 38.77     537.00      23.17
 38.87     539.64      23.23
 38.97     575.83      24.00
 39.07     552.95      23.51
 39.17     577.00      24.02
 39.27     575.00      23.98
 39.37     556.00      23.58
 39.47     523.73      22.89
 39.57     514.00      22.67
 39.67     548.00      23.41
 39.77     500.00      22.36
 39.87     531.00      23.04
 39.97     540.42      23.25
 40.07     521.00      22.83
 40.17     554.00      23.54
 40.27     495.00      22.25
 40.37     504.45      22.46
 40.47     519.00      22.78
 40.57     507.00      22.52
 40.67     601.53      24.53
 40.77     505.87      22.49
 40.87     550.73      23.47
 40.97     513.80      22.67
 41.07     529.00      23.00
 41.17     532.00      23.07
 41.27     514.00      22.67
 41.37     581.36      24.11
 41.47     507.00      22.52
 41.57     518.00      22.76
 41.67     536.00      23.15
 41.77     502.77      22.42
 41.87     522.00      22.85
 41.97     555.00      23.56
 42.07     569.00      23.85
 42.17     573.04      23.94
 42.27     531.00      23.04
 42.37     592.35      24.34
 42.47     564.00      23.75
 42.57     560.00      23.66
 42.67     584.00      24.17
 42.77     606.10      24.62
 42.87     679.74      26.07
 42.97     666.03      25.81
 43.07     601.00      24.52
 43.17     651.00      25.51
 43.27     543.00      23.30
 43.37     577.00      24.02
 43.47     569.78      23.87
 43.57     565.00      23.77
 43.67     550.59      23.46
 43.77     511.82      22.62
 43.87     521.00      22.83
 43.97     548.00      23.41
 44.07     594.95      24.39
 44.17     525.77      22.93
 44.27     572.35      23.92
 44.37     572.00      23.92
 44.47     559.00      23.64
 44.57     531.00      23.04
 44.67     486.97      22.07
 44.77     515.18      22.70
 44.87     512.00      22.63
 44.97     493.61      22.22
 45.07     500.87      22.38
 45.17     520.00      22.80
 45.27     480.43      21.92
 45.37     548.00      23.41
 45.47     518.00      22.76
 45.57     565.16      23.77
 45.67     531.00      23.04
 45.77     560.00      23.66
 45.87     584.13      24.17
 45.97     575.34      23.99
 46.07     580.02      24.08
 46.17     484.42      22.01
 46.27     575.90      24.00
 46.37     498.76      22.33
 46.47     543.00      23.30
 46.57     489.00      22.11
 46.67     541.00      23.26
 46.77     549.00      23.43
 46.87     562.00      23.71
 46.97     506.16      22.50
 47.07     602.00      24.54
 47.17     599.00      24.47
 47.27     525.00      22.91
 47.37     580.00      24.08
 47.47     553.78      23.53
 47.57     588.64      24.26
 47.67     562.00      23.71
 47.77     620.36      24.91
 47.87     656.00      25.61
 47.97     629.00      25.08
 48.07     639.00      25.28
 48.17     662.00      25.73
 48.27     606.34      24.62
 48.37     563.76      23.74
 48.47     582.00      24.12
 48.57     574.00      23.96
 48.67     584.00      24.17
 48.77     542.00      23.28
 48.87     597.00      24.43
 48.97     555.00      23.56
 49.07     616.58      24.83
 49.17     578.00      24.04
 49.27     635.00      25.20
 49.37     579.00      24.06
 49.47     584.00      24.17
 49.57     699.55      26.45
 49.67     685.00      26.17
 49.77     801.00      28.30
 49.87     934.00      30.56
 49.97    1129.51      33.61
 50.07    1389.77      37.28
 50.17    1770.00      42.07
 50.27    1971.90      44.41
 50.37    2302.93      47.99
 50.47    2384.00      48.83
 50.57    2218.00      47.10
 50.67    1806.00      42.50
 50.77    1489.00      38.59
 50.87    1159.00      34.04
 50.97    1033.91      32.15
 51.07     801.00      28.30
 51.17     813.49      28.52
 51.27     816.24      28.57
 51.37     698.00      26.42
 51.47     629.00      25.08
 51.57     648.00      25.46
 51.67     656.00      25.61
 51.77     600.63      24.51
 51.87     570.55      23.89
 51.97     644.18      25.38
 52.07     633.21      25.16
 52.17     557.10      23.60
 52.27     669.00      25.87
 52.37     582.00      24.12
 52.47     562.00      23.71
 52.57     579.00      24.06
 52.67     609.00      24.68
 52.77     649.00      25.48
 52.87     649.00      25.48
 52.97     671.00      25.90
 53.07     651.00      25.51
 53.17     752.00      27.42
 53.27     837.92      28.95
 53.37     889.00      29.82
 53.47    1031.00      32.11
 53.57    1161.00      34.07
 53.67    1237.00      35.17
 53.77    1216.00      34.87
 53.87    1234.00      35.13
 53.97    1163.55      34.11
 54.07    1027.00      32.05
 54.17     931.36      30.52
 54.27     761.00      27.59
 54.37     723.00      26.89
 54.47     650.52      25.51
 54.57     684.00      26.15
 54.67     596.65      24.43
 54.77     642.00      25.34
 54.87     664.00      25.77
 54.97     639.28      25.28
 55.07     571.06      23.90
 55.17     624.00      24.98
 55.27     645.00      25.40
 55.37     572.43      23.93
 55.47     562.00      23.71
 55.57     643.00      25.36
 55.67     586.00      24.21
 55.77     658.00      25.65
 55.87     679.95      26.08
 55.97     662.00      25.73
 56.07     685.71      26.19
 56.17     673.00      25.94
 56.27     773.37      27.81
 56.37     893.03      29.88
 56.47    1008.45      31.76
 56.57    1116.25      33.41
 56.67    1384.00      37.20
 56.77    1605.12      40.06
 56.87    2023.05      44.98
 56.97    2265.00      47.59
 57.07    2476.00      49.76
 57.17    2545.41      50.45
 57.27    2453.29      49.53
 57.37    2164.00      46.52
 57.47    1865.00      43.19
 57.57    1489.00      38.59
 57.67    1286.00      35.86
 57.77    1044.00      32.31
 57.87     887.00      29.78
 57.97     830.57      28.82
 58.07     734.40      27.10
 58.17     820.59      28.65
 58.27     711.17      26.67
 58.37     738.59      27.18
 58.47     782.00      27.96
 58.57     844.87      29.07
 58.67     858.00      29.29
 58.77     964.00      31.05
 58.87     971.00      31.16
 58.97    1074.00      32.77
 59.07    1157.00      34.01
 59.17    1222.00      34.96
 59.27    1159.07      34.05
 59.37    1225.06      35.00
 59.47    1247.22      35.32
 59.57    1308.00      36.17
 59.67    1143.42      33.81
 59.77    1222.00      34.96
 59.87    1203.00      34.68
 59.97    1227.00      35.03
 60.07    1198.16      34.61
 60.17    1344.00      36.66
 60.27    1523.00      39.03
 60.37    1534.59      39.17
 60.47    1668.00      40.84
 60.57    1589.00      39.86
 60.67    1504.00      38.78
 60.77    1335.00      36.54
 60.87    1239.00      35.20
 60.97    1046.00      32.34
 61.07     924.00      30.40
 61.17     850.00      29.15
 61.27     826.00      28.74
 61.37     768.20      27.72
 61.47     762.00      27.60
 61.57     712.46      26.69
 61.67     731.00      27.04
 61.77     833.00      28.86
 61.87     846.00      29.09
 61.97     967.79      31.11
 62.07    1035.00      32.17
 62.17    1136.00      33.70
 62.27    1343.00      36.65
 62.37    1360.00      36.88
 62.47    1311.00      36.21
 62.57    1370.37      37.02
 62.67    1230.00      35.07
 62.77    1149.22      33.90
 62.87    1039.00      32.23
 62.97    1023.49      31.99
 63.07     859.55      29.32
 63.17     740.00      27.20
 63.27     690.00      26.27
 63.37     672.32      25.93
 63.47     639.19      25.28
 63.57     666.00      25.81
 63.67     664.00      25.77
 63.77     680.67      26.09
 63.87     673.49      25.95
 63.97     665.00      25.79
 64.07     680.00      26.08
 64.17     712.00      26.68
 64.27     701.00      26.48
 64.37     759.27      27.55
 64.47     865.00      29.41
 64.57     842.00      29.02
 64.67     958.00      30.95
 64.77    1035.40      32.18
 64.87    1165.00      34.13
 64.97    1065.62      32.64
 65.07    1088.00      32.98
 65.17     944.38      30.73
 65.27     977.00      31.26
 65.37     904.75      30.08
 65.47     898.45      29.97
 65.57     807.75      28.42
 65.67     776.48      27.87
 65.77     723.00      26.89
 65.87     698.00      26.42
 65.97     675.00      25.98
 66.07     697.25      26.41
 66.17     627.00      25.04
 66.27     679.23      26.06
 66.37     605.00      24.60
 66.47     614.00      24.78
 66.57     608.84      24.67
 66.67     607.00      24.64
 66.77     581.00      24.10
 66.87     624.00      24.98
 66.97     677.00      26.02
 67.07     590.23      24.29
 67.17     628.00      25.06
 67.27     732.00      27.06
 67.37     693.00      26.32
 67.47     818.00      28.60
 67.57     835.00      28.90
 67.67    1037.90      32.22
 67.77    1133.94      33.67
 67.87    1293.00      35.96
 67.97    1602.00      40.02
 68.07    1811.00      42.56
 68.17    2002.00      44.74
 68.27    2257.00      47.51
 68.37    2256.35      47.50
 68.47    2391.42      48.90
 68.57    2284.00      47.79
 68.67    2124.00      46.09
 68.77    2021.33      44.96
 68.87    1634.07      40.42
 68.97    1419.00      37.67
 69.07    1216.00      34.87
 69.17    1048.00      32.37
 69.27    1013.74      31.84
 69.37     829.00      28.79
 69.47     827.00      28.76
 69.57     705.00      26.55
 69.67     680.00      26.08
 69.77     688.00      26.23
 69.87     697.00      26.40
 69.97     648.00      25.46
 70.07     614.00      24.78
 70.17     609.00      24.68
 70.27     641.00      25.32
 70.37     635.61      25.21
 70.47     594.00      24.37
 70.57     601.00      24.52
 70.67     561.24      23.69
 70.77     599.00      24.47
 70.87     636.72      25.23
 70.97     661.00      25.71
 71.07     661.00      25.71
 71.17     714.00      26.72
 71.27     738.60      27.18
 71.37     740.00      27.20
 71.47     793.00      28.16
 71.57     936.36      30.60
 71.67     946.16      30.76
 71.77    1120.00      33.47
 71.87    1265.00      35.57
 71.97    1469.31      38.33
 72.07    1561.33      39.51
 72.17    1664.00      40.79
 72.27    1887.68      43.45
 72.37    1863.00      43.16
 72.47    1867.00      43.21
 72.57    1810.00      42.54
 72.67    1737.00      41.68
 72.77    1512.00      38.88
 72.87    1413.21      37.59
 72.97    1188.00      34.47
 73.07    1036.00      32.19
 73.17    1003.00      31.67
 73.27     860.67      29.34
 73.37     790.00      28.11
 73.47     654.84      25.59
 73.57     617.09      24.84
 73.67     634.95      25.20
 73.77     681.88      26.11
 73.87     610.59      24.71
 73.97     656.00      25.61
 74.07     581.70      24.12
 74.17     641.00      25.32
 74.27     619.00      24.88
 74.37     619.00      24.88
 74.47     542.04      23.28
 74.57     704.00      26.53
 74.67     669.00      25.87
 74.77     586.15      24.21
 74.87     673.00      25.94
 74.97     600.86      24.51
 75.07     536.65      23.17
 75.17     560.86      23.68
 75.27     666.00      25.81
 75.37     650.00      25.50
 75.47     668.00      25.85
 75.57     663.00      25.75
 75.67     587.00      24.23
 75.77     683.00      26.13
 75.87     618.00      24.86
 75.97     602.00      24.54
 76.07     589.00      24.27
 76.17     603.00      24.56
 76.27     678.00      26.04
 76.37     621.02      24.92
 76.47     617.17      24.84
 76.57     745.93      27.31
 76.67     747.77      27.35
 76.77     737.00      27.15
 76.87     687.09      26.21
 76.97     761.23      27.59
 77.07     772.12      27.79
 77.17     704.00      26.53
 77.27     723.00      26.89
 77.37     704.00      26.53
 77.47     680.74      26.09
 77.57     658.05      25.65
 77.67     664.60      25.78
 77.77     637.16      25.24
 77.87     636.12      25.22
 77.97     618.08      24.86
 78.07     586.00      24.21
 78.17     556.00      23.58
 78.27     538.00      23.19
 78.37     577.00      24.02
 78.47     539.42      23.23
 78.57     566.00      23.79
 78.67     579.00      24.06
 78.77     544.00      23.32
 78.87     514.51      22.68
 78.97     563.00      23.73
 79.07     557.00      23.60
 79.17     542.56      23.29
 79.27     547.49      23.40
 79.37     562.00      23.71
 79.47     577.25      24.03
 79.57     553.00      23.52
 79.67     547.00      23.39
 79.77     552.79      23.51
 79.87     596.00      24.41
 79.97     554.75      23.55
 80.07     610.43      24.71
 80.17     564.00      23.75
 80.27     577.00      24.02
 80.37     589.00      24.27
 80.47     600.00      24.49
 80.57     549.27      23.44
 80.67     643.12      25.36
 80.77     586.69      24.22
 80.87     667.00      25.83
 80.97     687.00      26.21
 81.07     650.49      25.50
 81.17     739.00      27.18
 81.27     689.00      26.25
 81.37     715.00      26.74
 81.47     835.10      28.90
 81.57     829.00      28.79
 81.67     848.74      29.13
 81.77     756.00      27.50
 81.87     780.00      27.93
 81.97     776.00      27.86
 82.07     773.00      27.80
 82.17     821.39      28.66
 82.27     693.68      26.34
 82.37     678.45      26.05
 82.47     694.00      26.34
 82.57     709.00      26.63
 82.67     669.00      25.87
 82.77     608.91      24.68
 82.87     641.00      25.32
 82.97     583.00      24.15
 83.07     657.72      25.65
 83.17     531.00      23.04
 83.27     514.00      22.67
 83.37     596.00      24.41
 83.47     588.00      24.25
 83.57     611.26      24.72
 83.67     636.95      25.24
 83.77     597.13      24.44
 83.87     538.52      23.21
 83.97     591.07      24.31
 84.07     650.25      25.50
 84.17     656.76      25.63
 84.27     641.43      25.33
 84.37     594.00      24.37
 84.47     589.00      24.27
 84.57     571.41      23.90
 84.67     594.00      24.37
 84.77     571.00      23.90
 84.87     574.00      23.96
 84.97     640.66      25.31
 85.07     625.26      25.01
 85.17     595.84      24.41
 85.27     518.00      22.76
 85.37     573.00      23.94
 85.47     521.00      22.83
 85.57     521.00      22.83
 85.67     560.00      23.66
 85.77     569.00      23.85
 85.87     500.28      22.37
 85.97     592.21      24.34
 86.07     552.60      23.51
 86.17     526.00      22.93
 86.27     526.00      22.93
 86.37     578.00      24.04
 86.47     504.00      22.45
 86.57     582.77      24.14
 86.67     553.00      23.52
 86.77     566.00      23.79
 86.87     569.76      23.87
 86.97     583.00      24.15
 87.07     600.00      24.49
 87.17     610.00      24.70
 87.27     653.70      25.57
 87.37     582.50      24.13
 87.47     617.00      24.84
 87.57     664.53      25.78
 87.67     612.00      24.74
 87.77     654.00      25.57
 87.87     694.00      26.34
 87.97     671.00      25.90
 88.07     675.00      25.98
 88.17     656.00      25.61
 88.27     673.25      25.95
 88.37     632.00      25.14
 88.47     642.00      25.34
 88.57     624.97      25.00
 88.67     629.00      25.08
 88.77     647.00      25.44
 88.87     548.79      23.43
 88.97     556.00      23.58
 89.07     651.12      25.52
 89.17     572.99      23.94
 89.27     624.00      24.98
 89.37     604.00      24.58
 89.47     591.00      24.31
 89.57     545.00      23.35
 89.67     639.98      25.30
 89.77     632.00      25.14
 89.87     606.00      24.62
 89.97     564.43      23.76
 90.07     636.00      25.22
 90.17     630.00      25.10
 90.27     625.38      25.01
 90.37     566.00      23.79
 90.47     594.00      24.37
 90.57     575.00      23.98
 90.67     568.73      23.85
 90.77     534.26      23.11
 90.87     567.00      23.81
 90.97     561.00      23.69
 91.07     537.00      23.17
 91.17     580.00      24.08
 91.27     575.00      23.98
 91.37     510.00      22.58
 91.47     606.29      24.62
 91.57     528.00      22.98
 91.67     502.00      22.41
 91.77     501.59      22.40
 91.87     498.49      22.33
 91.97     522.00      22.85
 92.07     555.00      23.56
 92.17     592.36      24.34
 92.27     545.00      23.35
 92.37     547.01      23.39
 92.47     573.00      23.94
 92.57     567.31      23.82
 92.67     610.08      24.70
 92.77     589.00      24.27
 92.87     592.67      24.34
 92.97     619.00      24.88
 93.07     620.00      24.90
 93.17     668.00      25.85
 93.27     698.00      26.42
 93.37     733.00      27.07
 93.47     696.00      26.38
 93.57     696.00      26.38
 93.67     713.92      26.72
 93.77     783.13      27.98
 93.87     824.00      28.71
 93.97     817.00      28.58
 94.07     841.83      29.01
 94.17     788.83      28.09
 94.27     872.00      29.53
 94.37     831.00      28.83
 94.47     874.00      29.56
 94.57     896.00      29.93
 94.67     925.00      30.41
 94.77     878.17      29.63
 94.87     868.00      29.46
 94.97     935.00      30.58
 95.07     904.00      30.07
 95.17     977.00      31.26
 95.27     940.00      30.66
 95.37     915.07      30.25
 95.47     878.31      29.64
 95.57     921.00      30.35
 95.67     918.00      30.30
 95.77     808.12      28.43
 95.87     779.25      27.92
 95.97     821.00      28.65
 96.07     800.00      28.28
 96.17     803.00      28.34
 96.27     781.00      27.95
 96.37     802.73      28.33
 96.47     775.00      27.84
 96.57     703.93      26.53
 96.67     766.00      27.68
 96.77     800.00      28.28
 96.87     885.94      29.76
 96.97     827.27      28.76
 97.07     941.00      30.68
 97.17     951.00      30.84
 97.27    1022.00      31.97
 97.37    1147.00      33.87
 97.47    1193.00      34.54
 97.57    1286.63      35.87
 97.67    1284.00      35.83
 97.77    1443.00      37.99
 97.87    1427.00      37.78
 97.97    1466.00      38.29
 98.07    1412.53      37.58
 98.17    1486.00      38.55
 98.27    1475.00      38.41
 98.37    1487.87      38.57
 98.47    1439.99      37.95
 98.57    1316.00      36.28
 98.67    1255.00      35.43
 98.77    1184.00      34.41
 98.87    1148.00      33.88
 98.97    1089.04      33.00
 99.07    1026.00      32.03
 99.17     964.92      31.06
 99.27     989.78      31.46
 99.37     943.87      30.72
 99.47     977.00      31.26
 99.57    1013.00      31.83
 99.67     889.00      29.82
 99.77    1016.00      31.87
 99.87    1031.60      32.12
 99.97    1092.00      33.05
100.07    1125.00      33.54
100.17    1197.33      34.60
100.27    1347.47      36.71
100.37    1423.00      37.72
100.47    1418.52      37.66
100.57    1595.00      39.94
100.67    1558.14      39.47
100.77    1743.00      41.75
100.87    1864.00      43.17
100.97    1930.00      43.93
101.07    1985.00      44.55
101.17    1937.00      44.01
101.27    2011.00      44.84
101.37    2022.58      44.97
101.47    1976.00      44.45
101.57    1999.00      44.71
101.67    1870.87      43.25
101.77    1905.00      43.65
101.87    1815.00      42.60
101.97    1745.00      41.77
102.07    1587.00      39.84
102.17    1585.58      39.82
102.27    1492.55      38.63
102.37    1454.00      38.13
102.47    1436.47      37.90
102.57    1277.00      35.74
102.67    1279.00      35.76
102.77    1238.00      35.19
102.87    1216.46      34.88
102.97    1273.59      35.69
103.07    1148.00      33.88
103.17    1101.00      33.18
103.27    1133.88      33.67
103.37    1101.00      33.18
103.47    1083.00      32.91
103.57    1043.00      32.30
103.67    1003.00      31.67
103.77     931.00      30.51
103.87     913.00      30.22
103.97     878.00      29.63
104.07     821.74      28.67
104.17     835.00      28.90
104.27     770.00      27.75
104.37     727.00      26.96
104.47     699.00      26.44
104.57     661.00      25.71
104.67     661.98      25.73
104.77     644.00      25.38
104.87     612.00      24.74
104.97     653.00      25.55
105.07     636.64      25.23
105.17     643.00      25.36
105.27     630.00      25.10
105.37     605.00      24.60
105.47     601.00      24.52
105.57     573.93      23.96
105.67     595.00      24.39
105.77     528.43      22.99
105.87     585.00      24.19
105.97     586.00      24.21
106.07     549.34      23.44
106.17     621.00      24.92
106.27     553.00      23.52
106.37     646.00      25.42
106.47     588.00      24.25
106.57     602.73      24.55
106.67     660.02      25.69
106.77     594.00      24.37
106.87     657.63      25.64
106.97     663.91      25.77
107.07     696.73      26.40
107.17     640.00      25.30
107.27     677.00      26.02
107.37     722.81      26.89
107.47     680.78      26.09
107.57     697.78      26.42
107.67     731.00      27.04
107.77     697.00      26.40
107.87     706.00      26.57
107.97     711.00      26.66
108.07     724.00      26.91
108.17     706.00      26.57
108.27     787.42      28.06
108.37     760.81      27.58
108.47     711.00      26.66
108.57     670.00      25.88
108.67     724.06      26.91
108.77     733.00      27.07
108.87     741.24      27.23
108.97     778.50      27.90
109.07     719.60      26.83
109.17     696.52      26.39
109.27     727.00      26.96
109.37     750.00      27.39
109.47     706.00      26.57
109.57     721.49      26.86
109.67     714.00      26.72
109.77     725.00      26.93
109.87     658.01      25.65
109.97     759.00      27.55
110.07     642.25      25.34
110.17     642.31      25.34
110.27     665.00      25.79
110.37     678.00      26.04
110.47     659.00      25.67
110.57     633.05      25.16
110.67     630.00      25.10
110.77     668.00      25.85
110.87     668.69      25.86
110.97     588.00      24.25
111.07     645.00      25.40
111.17     601.70      24.53
111.27     616.00      24.82
111.37     586.00      24.21
111.47     607.00      24.64
111.57     559.00      23.64
111.67     578.00      24.04
111.77     602.00      24.54
111.87     576.00      24.00
111.97     522.00      22.85
112.07     573.00      23.94
112.17     574.00      23.96
112.27     527.00      22.96
112.37     570.00      23.87
112.47     597.00      24.43
112.57     598.00      24.45
112.67     577.00      24.02
112.77     569.00      23.85
112.87     582.00      24.12
112.97     623.67      24.97
113.07     557.12      23.60
113.17     606.00      24.62
113.27     609.24      24.68
113.37     551.00      23.47
113.47     644.00      25.38
113.57     613.00      24.76
113.67     620.00      24.90
113.77     657.00      25.63
113.87     682.77      26.13
113.97     625.00      25.00
114.07     630.00      25.10
114.17     697.76      26.42
114.27     691.00      26.29
114.37     691.27      26.29
114.47     786.00      28.04
114.57     751.00      27.40
114.67     896.00      29.93
114.77     847.34      29.11
114.87     943.00      30.71
114.97    1040.00      32.25
115.07    1110.00      33.32
115.17    1305.00      36.12
115.27    1453.00      38.12
115.37    1573.00      39.66
115.47    1754.00      41.88
115.57    2041.00      45.18
115.67    2264.00      47.58
115.77    2551.00      50.51
115.87    2563.03      50.63
115.97    3078.00      55.48
116.07    3331.00      57.71
116.17    3674.00      60.61
116.27    4201.00      64.82
116.37    4333.42      65.83
116.47    4692.00      68.50
116.57    4939.52      70.28
116.67    5371.32      73.29
116.77    5872.00      76.63
116.87    6330.00      79.56
116.97    6415.00      80.09
117.07    6602.78      81.26
117.17    7025.00      83.82
117.27    6966.40      83.46
117.37    7199.22      84.85
117.47    6911.00      83.13
117.57    7027.00      83.83
117.67    6785.40      82.37
117.77    6825.20      82.61
117.87    6184.00      78.64
117.97    6205.00      78.77
118.07    5521.00      74.30
118.17    5424.44      73.65
118.27    4864.00      69.74
118.37    4689.00      68.48
118.47    4335.00      65.84
118.57    3914.00      62.56
118.67    3611.00      60.09
118.77    3254.00      57.04
118.87    3003.00      54.80
118.97    2656.00      51.54
119.07    2470.06      49.70
119.17    2151.00      46.38
119.27    1924.00      43.86
119.37    1800.00      42.43
119.47    1626.00      40.32
119.57    1512.00      38.88
119.67    1353.50      36.79
119.77    1178.00      34.32
119.87    1183.13      34.40
119.97    1114.00      33.38
120.07    1001.00      31.64
120.17     978.83      31.29
120.27     916.00      30.27
120.37     875.00      29.58
120.47     820.28      28.64
120.57     835.63      28.91
120.67     724.98      26.93
120.77     724.54      26.92
120.87     752.59      27.43
120.97     750.36      27.39
121.07     674.00      25.96
121.17     654.00      25.57
121.27     623.00      24.96
121.37     664.07      25.77
121.47     650.33      25.50
121.57     631.00      25.12
121.67     645.00      25.40
121.77     686.31      26.20
121.87     614.00      24.78
121.97     648.00      25.46
122.07     666.00      25.81
122.17     610.00      24.70
122.27     624.00      24.98
122.37     641.00      25.32
122.47     671.17      25.91
122.57     650.26      25.50
122.67     631.00      25.12
122.77     636.00      25.22
122.87     650.00      25.50
122.97     602.07      24.54
123.07     674.00      25.96
123.17     685.00      26.17
123.27     653.38      25.56
123.37     692.00      26.31
123.47     675.00      25.98
123.57     623.95      24.98
123.67     690.00      26.27
123.77     710.51      26.66
123.87     689.00      26.25
123.97     637.00      25.24
124.07     663.00      25.75
124.17     724.65      26.92
124.27     685.00      26.17
124.37     689.00      26.25
124.47     612.72      24.75
124.57     676.78      26.01
124.67     707.00      26.59
124.77     632.00      25.14
124.87     618.46      24.87
124.97     624.00      24.98
