  9.97     691.00      26.29
 10.07     650.00      25.50
 10.17     673.48      25.95
 10.27     702.00      26.50
 10.37     649.00      25.48
 10.47     742.00      27.24
 10.57     697.00      26.40
 10.67     648.00      25.46
 10.77     657.00      25.63
 10.87     663.00      25.75
 10.97     665.16      25.79
 11.07     695.00      26.36
 11.17     670.00      25.88
 11.27     641.00      25.32
 11.37     687.00      26.21
 11.47     677.99      26.04
 11.57     735.00      27.11
 11.67     643.27      25.36
 11.77     674.43      25.97
 11.87     638.75      25.27
 11.97     737.00      27.15
 12.07     676.88      26.02
 12.17     773.00      27.80
 12.27     817.89      28.60
 12.37     780.00      27.93
 12.47     693.00      26.32
 12.57     747.73      27.34
 12.67     638.00      25.26
 12.77     673.00      25.94
 12.87     633.00      25.16
 12.97     628.00      25.06
 13.07     638.32      25.26
 13.17     609.18      24.68
 13.27     616.00      24.82
 13.37     612.00      24.74
 13.47     621.35      24.93
 13.57     667.66      25.84
 13.67     588.44      24.26
 13.77     582.00      24.12
 13.87     590.00      24.29
 13.97     653.00      25.55
 14.07     661.00      25.71
 14.17     680.87      26.09
 14.27     605.00      24.60
 14.37     602.00      24.54
 14.47     593.21      24.36
 14.57     604.81      24.59
 14.67     637.00      25.24
 14.77     613.18      24.76
 14.87     596.00      24.41
 14.97     623.00      24.96
 15.07     625.00      25.00
 15.17     644.00      25.38
 15.27     622.00      24.94
 15.37     653.24      25.56
 15.47     685.14      26.18
 15.57     645.00      25.40
 15.67     589.00      24.27
 15.77     586.00      24.21
 15.87     604.03      24.58
 15.97     611.00      24.72
 16.07     645.00      25.40
 16.17     626.00      25.02
 16.27     672.35      25.93
 16.37     636.13      25.22
 16.47     623.00      24.96
 16.57     585.81      24.20
 16.67     647.98      25.46
 16.77     627.37      25.05
 16.87     579.00      24.06
 16.97     581.00      24.10
 17.07     587.83      24.25
 17.17     635.40      25.21
 17.27     587.00      24.23
 17.37     605.00      24.60
 17.47     610.36      24.71
 17.57     616.00      24.82
 17.67     632.00      25.14
 17.77     590.99      24.31
 17.87     609.00      24.68
 17.97     641.00      25.32
 18.07     565.00      23.77
 18.17     593.00      24.35
 18.27     550.00      23.45
 18.37     596.99      24.43
 18.47     601.00      24.52
 18.57     604.00      24.58
 18.67     601.00      24.52
 18.77     605.00      24.60
 18.87     598.80      24.47
 18.97     630.00      25.10
 19.07     592.00      24.33
 19.17     662.93      25.75
 19.27     584.88      24.18
 19.37     607.00      24.64
 19.47     585.00      24.19
 19.57     566.45      23.80
 19.67     584.00      24.17
 19.77     595.00      24.39
 19.87     653.53      25.56
 19.97     578.00      24.04
 20.07     587.45      24.24
 20.17     613.04      24.76
 20.27     588.99      24.27
 20.37     549.00      23.43
 20.47     615.00      24.80
 20.57     613.29      24.76
 20.67     645.47      25.41
 20.77     579.00      24.06
 20.87     657.10      25.63
 20.97     642.51      25.35
 21.07     622.00      24.94
 21.17     612.00      24.74
 21.27     585.62      24.20
 21.37     617.00      24.84
 21.47     577.00      24.02
 21.57     577.29      24.03
 21.67     622.81      24.96
 21.77     621.51      24.93
 21.87     611.58      24.73
 21.97     581.00      24.10
 22.07     595.00      24.39
 22.17     599.02      24.47
 22.27     600.00      24.49
 22.37     617.00      24.84
 22.47     601.00      24.52
 22.57     607.76      24.65
 22.67     653.39      25.56
 22.77     613.00      24.76
 22.87     593.00      24.35
 22.97     644.00      25.38
 23.07     650.00      25.50
 23.17     584.73      24.18
 23.27     586.00      24.21
 23.37     599.00      24.47
 23.47     580.00      24.08
 23.57     612.00      24.74
 23.67     633.00      25.16
 23.77     630.00      25.10
 23.87     637.00      25.24
 23.97     615.00      24.80
 24.07     638.00      25.26
 24.17     647.00      25.44
 24.27     575.54      23.99
 24.37     632.00      25.14
 24.47     663.00      25.75
 24.57     644.14      25.38
 24.67     640.14      25.30
 24.77     697.00      26.40
 24.87     736.00      27.13
 24.97     644.55      25.39
 25.07     723.00      26.89
 25.17     674.00      25.96
 25.27     656.00      25.61
 25.37     617.74      24.85
 25.47     661.00      25.71
 25.57     585.66      24.20
 25.67     631.00      25.12
 25.77     663.00      25.75
 25.87     591.42      24.32
 25.97     643.00      25.36
 26.07     613.00      24.76
 26.17     634.00      25.18
 26.27     595.00      24.39
 26.37     634.89      25.20
 26.47     640.22      25.30
 26.57     667.00      25.83
 26.67     626.00      25.02
 26.77     668.00      25.85
 26.87     635.00      25.20
 26.97     656.00      25.61
 27.07     688.63      26.24
 27.17     676.00      26.00
 27.27     643.00      25.36
 27.37     753.00      27.44
 27.47     686.98      26.21
 27.57     630.93      25.12
 27.67     735.85      27.13
 27.77     845.00      29.07
 27.87     839.38      28.97
 27.97    1127.43      33.58
 28.07    1321.00      36.35
 28.17    1985.57      44.56
 28.27    2574.00      50.73
 28.37    2947.62      54.29
 28.47    2927.00      54.10
 28.57    2352.96      48.51
 28.67    1885.00      43.42
 28.77    1482.00      38.50
 28.87    1645.00      40.56
 28.97    1889.00      43.46
 29.07    1866.89      43.21
 29.17    1823.00      42.70
 29.27    1541.00      39.26
 29.37    1311.00      36.21
 29.47    1028.00      32.06
 29.57     929.00      30.48
 29.67     729.90      27.02
 29.77     758.00      27.53
 29.87     627.88      25.06
 29.97     605.64      24.61
 30.07     683.31      26.14
 30.17     731.00      27.04
 30.27     718.00      26.80
 30.37     660.00      25.69
 30.47     662.00      25.73
 30.57     640.01      25.30
 30.67     636.34      25.23
 30.77     608.35      24.66
 30.87     712.00      26.68
 30.97     654.81      25.59
 31.07     717.00      26.78
 31.17     737.57      27.16
 31.27     749.00      27.37
 31.37     658.00      25.65
 31.47     683.00      26.13
 31.57     672.00      25.92
 31.67     641.00      25.32
 31.77     606.00      24.62
 31.87     585.00      24.19
 31.97     616.00      24.82
 32.07     626.00      25.02
 32.17     589.00      24.27
 32.27     581.00      24.10
 32.37     598.00      24.45
 32.47     606.00      24.62
 32.57     602.55      24.55
 32.67     559.46      23.65
 32.77     556.00      23.58
 32.87     616.14      24.82
 32.97     624.00      24.98
 33.07     562.53      23.72
 33.17     578.00      24.04
 33.27     590.00      24.29
 33.37     604.55      24.59
 33.47     605.00      24.60
 33.57     634.00      25.18
 33.67     646.00      25.42
 33.77     674.00      25.96
 33.87     794.59      28.19
 33.97     907.73      30.13
 34.07    1009.00      31.76
 34.17    1096.90      33.12
 34.27    1144.00      33.82
 34.37    1062.00      32.59
 34.47     857.00      29.27
 34.57     835.13      28.90
 34.67     724.11      26.91
 34.77     634.00      25.18
 34.87     594.67      24.39
 34.97     612.00      24.74
 35.07     580.00      24.08
 35.17     579.00      24.06
 35.27     583.00      24.15
 35.37     566.00      23.79
 35.47     541.70      23.27
 35.57     590.60      24.30
 35.67     577.00      24.02
 35.77     587.00      24.23
 35.87     527.00      22.96
 35.97     541.00      23.26
 36.07     558.28      23.63
 36.17     561.00      23.69
 36.27     569.00      23.85
 36.37     591.30      24.32
 36.47     563.18      23.73
 36.57     588.00      24.25
 36.67     589.00      24.27
 36.77     556.00      23.58
 36.87     536.00      23.15
 36.97     512.33      22.63
 37.07     553.00      23.52
 37.17     523.88      22.89
 37.27     557.00      23.60
 37.37     558.00      23.62
 37.47     594.09      24.37
 37.57     609.00      24.68
 37.67     587.00      24.23
 37.77     556.00      23.58
 37.87     594.00      24.37
 37.97     554.00      23.54
 38.07     607.56      24.65
 38.17     615.00      24.80
 38.27     637.00      25.24
 38.37     591.00      24.31
 38.47     577.40      24.03
 38.57     631.42      25.13
 38.67     552.00      23.49
 38.77     596.89      24.43
 38.87     577.00      24.02
 38.97     569.00      23.85
 39.07     563.11      23.73
 39.17     518.22      22.76
 39.27     582.78      24.14
 39.37     556.00      23.58
 39.47     590.00      24.29
 39.57     596.00      24.41
 39.67     532.00      23.07
 39.77     566.00      23.79
 39.87     580.77      24.10
 39.97     502.00      22.41
 40.07     567.00      23.81
 40.17     572.62      23.93
 40.27     568.00      23.83
 40.37     577.00      24.02
 40.47     516.00      22.72
 40.57     544.00      23.32
 40.67     533.00      23.09
 40.77     523.00      22.87
 40.87     584.00      24.17
 40.97     508.00      22.54
 41.07     559.00      23.64
 41.17     517.46      22.75
 41.27     540.00      23.24
 41.37     538.00      23.19
 41.47     512.00      22.63
 41.57     549.00      23.43
 41.67     473.00      21.75
 41.77     550.00      23.45
 41.87     534.00      23.11
 41.97     566.29      23.80
 42.07     578.12      24.04
 42.17     564.00      23.75
 42.27     564.00      23.75
 42.37     539.00      23.22
 42.47     601.38      24.52
 42.57     608.74      24.67
 42.67     575.16      23.98
 42.77     655.00      25.59
 42.87     613.00      24.76
 42.97     622.00      24.94
 43.07     673.00      25.94
 43.17     605.00      24.60
 43.27     639.99      25.30
 43.37     608.33      24.66
 43.47     556.00      23.58
 43.57     566.00      23.79
 43.67     574.00      23.96
 43.77     541.29      23.27
 43.87     541.01      23.26
 43.97     516.00      22.72
 44.07     533.77      23.10
 44.17     530.05      23.02
 44.27     584.00      24.17
 44.37     539.00      23.22
 44.47     515.00      22.69
 44.57     583.00      24.15
 44.67     556.99      23.60
 44.77     523.54      22.88
 44.87     548.16      23.41
 44.97     576.00      24.00
 45.07     560.01      23.66
 45.17     565.00      23.77
 45.27     535.00      23.13
 45.37     519.00      22.78
 45.47     557.00      23.60
 45.57     598.14      24.46
 45.67     595.00      24.39
 45.77     499.03      22.34
 45.87     532.00      23.07
 45.97     540.00      23.24
 46.07     488.00      22.09
 46.17     535.61      23.14
 46.27     508.12      22.54
 46.37     570.67      23.89
 46.47     572.00      23.92
 46.57     536.07      23.15
 46.67     592.41      24.34
 46.77     521.00      22.83
 46.87     555.00      23.56
 46.97     586.00      24.21
 47.07     596.28      24.42
 47.17     560.00      23.66
 47.27     562.00      23.71
 47.37     561.00      23.69
 47.47     536.45      23.16
 47.57     603.49      24.57
 47.67     559.00      23.64
 47.77     559.43      23.65
 47.87     605.00      24.60
 47.97     655.00      25.59
 48.07     672.00      25.92
 48.17     603.00      24.56
 48.27     686.24      26.20
 48.37     630.00      25.10
 48.47     605.00      24.60
 48.57     594.37      24.38
 48.67     584.00      24.17
 48.77     556.00      23.58
 48.87     577.28      24.03
 48.97     619.00      24.88
 49.07     545.16      23.35
 49.17     629.78      25.10
 49.27     610.00      24.70
 49.37     611.00      24.72
 49.47     669.43      25.87
 49.57     656.56      25.62
 49.67     747.60      27.34
 49.77     865.61      29.42
 49.87     885.00      29.75
 49.97    1241.04      35.23
 50.07    1425.00      37.75
 50.17    1823.00      42.70
 50.27    2253.47      47.47
 50.37    2560.77      50.60
 50.47    2596.00      50.95
 50.57    2416.00      49.15
 50.67    2157.25      46.45
 50.77    1697.00      41.19
 50.87    1329.76      36.47
 50.97    1089.34      33.01
 51.07     840.00      28.98
 51.17     795.00      28.20
 51.27     733.83      27.09
 51.37     771.89      27.78
 51.47     707.45      26.60
 51.57     664.00      25.77
 51.67     648.00      25.46
 51.77     638.00      25.26
 51.87     612.00      24.74
 51.97     643.00      25.36
 52.07     576.00      24.00
 52.17     617.00      24.84
 52.27     655.00      25.59
 52.37     597.00      24.43
 52.47     583.00      24.15
 52.57     637.00      25.24
 52.67     627.00      25.04
 52.77     602.51      24.55
 52.87     575.41      23.99
 52.97     680.44      26.09
 53.07     634.00      25.18
 53.17     649.17      25.48
 53.27     786.01      28.04
 53.37     925.00      30.41
 53.47     964.88      31.06
 53.57    1131.00      33.63
 53.67    1203.00      34.68
 53.77    1248.00      35.33
 53.87    1258.00      35.47
 53.97    1222.00      34.96
 54.07    1114.00      33.38
 54.17    1012.62      31.82
 54.27     817.00      28.58
 54.37     810.11      28.46
 54.47     696.00      26.38
 54.57     704.00      26.53
 54.67     694.44      26.35
 54.77     630.00      25.10
 54.87     637.00      25.24
 54.97     637.00      25.24
 55.07     642.41      25.35
 55.17     611.00      24.72
 55.27     663.00      25.75
 55.37     567.23      23.82
 55.47     629.00      25.08
 55.57     621.00      24.92
 55.67     630.00      25.10
 55.77     665.00      25.79
 55.87     658.00      25.65
 55.97     670.51      25.89
 56.07     650.39      25.50
 56.17     690.00      26.27
 56.27     783.00      27.98
 56.37     834.00      28.88
 56.47     964.65      31.06
 56.57    1068.00      32.68
 56.67    1334.44      36.53
 56.77    1693.18      41.15
 56.87    1990.00      44.61
 56.97    2320.00      48.17
 57.07    2457.07      49.57
 57.17    2672.00      51.69
 57.27    2547.27      50.47
 57.37    2246.40      47.40
 57.47    2039.00      45.16
 57.57    1759.95      41.95
 57.67    1442.78      37.98
 57.77    1211.66      34.81
 57.87     973.49      31.20
 57.97     877.46      29.62
 58.07     801.22      28.31
 58.17     715.00      26.74
 58.27     765.00      27.66
 58.37     763.00      27.62
 58.47     760.65      27.58
 58.57     770.00      27.75
 58.67     879.00      29.65
 58.77     964.00      31.05
 58.87    1028.20      32.07
 58.97    1085.00      32.94
 59.07    1154.27      33.97
 59.17    1243.00      35.26
 59.27    1273.00      35.68
 59.37    1319.00      36.32
 59.47    1273.00      35.68
 59.57    1271.00      35.65
 59.67    1223.00      34.97
 59.77    1215.44      34.86
 59.87    1196.00      34.58
 59.97    1191.00      34.51
 60.07    1148.28      33.89
 60.17    1285.00      35.85
 60.27    1416.00      37.63
 60.37    1514.00      38.91
 60.47    1636.00      40.45
 60.57    1502.45      38.76
 60.67    1629.00      40.36
 60.77    1445.00      38.01
 60.87    1365.00      36.95
 60.97    1185.00      34.42
 61.07     923.61      30.39
 61.17     929.00      30.48
 61.27     838.00      28.95
 61.37     792.18      28.15
 61.47     801.00      28.30
 61.57     698.08      26.42
 61.67     743.00      27.26
 61.77     772.00      27.78
 61.87     912.00      30.20
 61.97     958.00      30.95
 62.07    1084.00      32.92
 62.17    1216.00      34.87
 62.27    1284.00      35.83
 62.37    1466.00      38.29
 62.47    1480.61      38.48
 62.57    1465.36      38.28
 62.67    1417.52      37.65
 62.77    1292.00      35.94
 62.87    1112.00      33.35
 62.97    1037.68      32.21
 63.07     861.00      29.34
 63.17     803.00      28.34
 63.27     737.00      27.15
 63.37     731.11      27.04
 63.47     654.00      25.57
 63.57     675.00      25.98
 63.67     715.00      26.74
 63.77     635.00      25.20
 63.87     631.00      25.12
 63.97     657.00      25.63
 64.07     715.00      26.74
 64.17     707.00      26.59
 64.27     738.22      27.17
 64.37     811.00      28.48
 64.47     840.58      28.99
 64.57     864.16      29.40
 64.67    1054.00      32.47
 64.77     982.60      31.35
 64.87    1145.00      33.84
 64.97    1126.50      33.56
 65.07    1187.32      34.46
 65.17    1174.00      34.26
 65.27    1080.00      32.86
 65.37    1089.00      33.00
 65.47    1041.00      32.26
 65.57     864.00      29.39
 65.67     890.73      29.85
 65.77     808.78      28.44
 65.87     756.49      27.50
 65.97     753.49      27.45
 66.07     687.00      26.21
 66.17     605.00      24.60
 66.27     616.00      24.82
 66.37     691.33      26.29
 66.47     628.00      25.06
 66.57     615.00      24.80
 66.67     631.70      25.13
 66.77     623.00      24.96
 66.87     590.00      24.29
 66.97     668.42      25.85
 67.07     647.00      25.44
 67.17     685.73      26.19
 67.27     656.07      25.61
 67.37     675.21      25.98
 67.47     803.00      28.34
 67.57     817.00      28.58
 67.67     943.00      30.71
 67.77    1120.00      33.47
 67.87    1260.00      35.50
 67.97    1466.00      38.29
 68.07    1663.68      40.79
 68.17    1944.05      44.09
 68.27    2110.90      45.94
 68.37    2365.00      48.63
 68.47    2365.00      48.63
 68.57    2428.24      49.28
 68.67    2285.00      47.80
 68.77    2041.00      45.18
 68.87    1777.00      42.15
 68.97    1596.94      39.96
 69.07    1322.56      36.37
 69.17    1094.00      33.08
 69.27     997.00      31.58
 69.37     815.00      28.55
 69.47     827.00      28.76
 69.57     690.18      26.27
 69.67     719.31      26.82
 69.77     695.73      26.38
 69.87     673.01      25.94
 69.97     626.09      25.02
 70.07     642.00      25.34
 70.17     638.00      25.26
 70.27     673.54      25.95
 70.37     610.63      24.71
 70.47     600.00      24.49
 70.57     629.00      25.08
 70.67     630.00      25.10
 70.77     638.00      25.26
 70.87     665.12      25.79
 70.97     677.86      26.04
 71.07     638.00      25.26
 71.17     639.00      25.28
 71.27     673.00      25.94
 71.37     712.47      26.69
 71.47     834.89      28.89
 71.57     863.92      29.39
 71.67     951.00      30.84
 71.77    1014.34      31.85
 71.87    1204.00      34.70
 71.97    1334.91      36.54
 72.07    1518.69      38.97
 72.17    1724.00      41.52
 72.27    1750.00      41.83
 72.37    1858.00      43.10
 72.47    1990.69      44.62
 72.57    1921.00      43.83
 72.67    1727.00      41.56
 72.77    1571.00      39.64
 72.87    1482.09      38.50
 72.97    1308.00      36.17
 73.07    1228.00      35.04
 73.17     949.98      30.82
 73.27     901.13      30.02
 73.37     808.00      28.43
 73.47     725.44      26.93
 73.57     648.06      25.46
 73.67     722.00      26.87
 73.77     701.00      26.48
 73.87     685.00      26.17
 73.97     639.00      25.28
 74.07     645.82      25.41
 74.17     637.70      25.25
 74.27     651.35      25.52
 74.37     548.24      23.41
 74.47     613.00      24.76
 74.57     665.79      25.80
 74.67     569.72      23.87
 74.77     669.63      25.88
 74.87     631.00      25.12
 74.97     697.00      26.40
 75.07     638.00      25.26
 75.17     680.00      26.08
 75.27     628.32      25.07
 75.37     557.55      23.61
 75.47     658.00      25.65
 75.57     655.00      25.59
 75.67     625.00      25.00
 75.77     664.00      25.77
 75.87     644.60      25.39
 75.97     620.00      24.90
 76.07     627.00      25.04
 76.17     592.72      24.35
 76.27     663.00      25.75
 76.37     687.00      26.21
 76.47     712.00      26.68
 76.57     759.00      27.55
 76.67     759.98      27.57
 76.77     704.91      26.55
 76.87     771.22      27.77
 76.97     815.00      28.55
 77.07     775.00      27.84
 77.17     843.00      29.03
 77.27     735.00      27.11
 77.37     762.07      27.61
 77.47     664.00      25.77
 77.57     633.19      25.16
 77.67     645.00      25.40
 77.77     576.00      24.00
 77.87     554.00      23.54
 77.97     635.89      25.22
 78.07     573.42      23.95
 78.17     597.00      24.43
 78.27     583.00      24.15
 78.37     550.00      23.45
 78.47     573.87      23.96
 78.57     583.89      24.16
 78.67     548.00      23.41
 78.77     519.12      22.78
 78.87     542.08      23.28
 78.97     554.00      23.54
 79.07     592.54      24.34
 79.17     552.00      23.49
 79.27     584.00      24.17
 79.37     588.69      24.26
 79.47     545.00      23.35
 79.57     609.36      24.69
 79.67     599.18      24.48
 79.77     579.00      24.06
 79.87     604.00      24.58
 79.97     553.00      23.52
 80.07     622.43      24.95
 80.17     575.76      23.99
 80.27     579.00      24.06
 80.37     646.32      25.42
 80.47     632.00      25.14
 80.57     715.00      26.74
 80.67     659.05      25.67
 80.77     665.62      25.80
 80.87     717.08      26.78
 80.97     711.00      26.66
 81.07     801.00      28.30
 81.17     772.51      27.79
 81.27     917.53      30.29
 81.37     853.00      29.21
 81.47     853.06      29.21
 81.57     909.00      30.15
 81.67     991.00      31.48
 81.77     932.00      30.53
 81.87     952.90      30.87
 81.97     902.00      30.03
 82.07     914.00      30.23
 82.17     818.88      28.62
 82.27     821.00      28.65
 82.37     814.00      28.53
 82.47     740.00      27.20
 82.57     770.00      27.75
 82.67     693.17      26.33
 82.77     657.00      25.63
 82.87     624.00      24.98
 82.97     679.00      26.06
 83.07     628.00      25.06
 83.17     631.73      25.13
 83.27     604.49      24.59
 83.37     600.00      24.49
 83.47     595.26      24.40
 83.57     570.00      23.87
 83.67     584.00      24.17
 83.77     549.43      23.44
 83.87     585.00      24.19
 83.97     535.00      23.13
 84.07     586.00      24.21
 84.17     560.17      23.67
 84.27     649.00      25.48
 84.37     575.00      23.98
 84.47     573.00      23.94
 84.57     600.00      24.49
 84.67     599.00      24.47
 84.77     593.00      24.35
 84.87     643.48      25.37
 84.97     559.50      23.65
 85.07     606.00      24.62
 85.17     604.00      24.58
 85.27     592.00      24.33
 85.37     598.00      24.45
 85.47     554.00      23.54
 85.57     548.00      23.41
 85.67     570.00      23.87
 85.77     590.25      24.30
 85.87     551.00      23.47
 85.97     589.00      24.27
 86.07     538.00      23.19
 86.17     514.00      22.67
 86.27     570.00      23.87
 86.37     571.00      23.90
 86.47     565.32      23.78
 86.57     571.00      23.90
 86.67     531.00      23.04
 86.77     565.00      23.77
 86.87     586.00      24.21
 86.97     602.57      24.55
 87.07     585.00      24.19
 87.17     617.00      24.84
 87.27     608.00      24.66
 87.37     592.00      24.33
 87.47     638.43      25.27
 87.57     646.00      25.42
 87.67     691.00      26.29
 87.77     710.00      26.65
 87.87     738.00      27.17
 87.97     686.62      26.20
 88.07     635.18      25.20
 88.17     705.00      26.55
 88.27     633.71      25.17
 88.37     710.00      26.65
 88.47     651.00      25.51
 88.57     638.00      25.26
 88.67     588.93      24.27
 88.77     620.00      24.90
 88.87     625.00      25.00
 88.97     651.35      25.52
 89.07     636.00      25.22
 89.17     633.00      25.16
 89.27     640.00      25.30
 89.37     585.00      24.19
 89.47     621.00      24.92
 89.57     656.00      25.61
 89.67     656.00      25.61
 89.77     630.67      25.11
 89.87     606.00      24.62
 89.97     649.62      25.49
 90.07     642.00      25.34
 90.17     652.14      25.54
 90.27     604.10      24.58
 90.37     558.38      23.63
 90.47     598.02      24.45
 90.57     599.00      24.47
 90.67     560.00      23.66
 90.77     603.00      24.56
 90.87     531.00      23.04
 90.97     583.00      24.15
 91.07     558.33      23.63
 91.17     546.00      23.37
 91.27     547.71      23.40
 91.37     590.98      24.31
 91.47     560.00      23.66
 91.57     572.00      23.92
 91.67     528.11      22.98
 91.77     551.00      23.47
 91.87     596.23      24.42
 91.97     539.20      23.22
 92.07     564.87      23.77
 92.17     582.00      24.12
 92.27     527.00      22.96
 92.37     614.52      24.79
 92.47     627.22      25.04
 92.57     579.00      24.06
 92.67     638.22      25.26
 92.77     624.00      24.98
 92.87     590.00      24.29
 92.97     605.00      24.60
 93.07     634.14      25.18
 93.17     668.00      25.85
 93.27     668.61      25.86
 93.37     654.00      25.57
 93.47     712.00      26.68
 93.57     741.00      27.22
 93.67     788.46      28.08
 93.77     754.00      27.46
 93.87     748.17      27.35
 93.97     746.00      27.31
 94.07     838.00      28.95
 94.17     852.00      29.19
 94.27     801.52      28.31
 94.37     870.00      29.50
 94.47     866.28      29.43
 94.57     844.00      29.05
 94.67     875.00      29.58
 94.77     867.75      29.46
 94.87     987.12      31.42
 94.97     947.00      30.77
 95.07     917.00      30.28
 95.17     958.00      30.95
 95.27     940.91      30.67
 95.37     967.35      31.10
 95.47     961.00      31.00
 95.57     982.00      31.34
 95.67     896.00      29.93
 95.77     905.00      30.08
 95.87     861.00      29.34
 95.97     871.99      29.53
 96.07     785.00      28.02
 96.17     732.06      27.06
 96.27     783.00      27.98
 96.37     772.00      27.78
 96.47     728.93      27.00
 96.57     749.00      27.37
 96.67     733.26      27.08
 96.77     805.00      28.37
 96.87     835.02      28.90
 96.97     854.00      29.22
 97.07     912.00      30.20
 97.17     900.00      30.00
 97.27    1012.00      31.81
 97.37    1093.00      33.06
 97.47    1084.74      32.94
 97.57    1183.88      34.41
 97.67    1336.00      36.55
 97.77    1386.00      37.23
 97.87    1463.00      38.25
 97.97    1567.01      39.59
 98.07    1487.17      38.56
 98.17    1507.31      38.82
 98.27    1491.00      38.61
 98.37    1514.00      38.91
 98.47    1453.70      38.13
 98.57    1341.38      36.62
 98.67    1302.00      36.08
 98.77    1264.00      35.55
 98.87    1163.00      34.10
 98.97    1135.82      33.70
 99.07    1054.00      32.47
 99.17    1020.00      31.94
 99.27     955.00      30.90
 99.37     915.00      30.25
 99.47     943.00      30.71
 99.57     999.03      31.61
 99.67     974.00      31.21
 99.77     996.66      31.57
 99.87     983.91      31.37
 99.97    1062.00      32.59
100.07    1114.00      33.38
100.17    1141.00      33.78
100.27    1232.00      35.10
100.37    1365.00      36.95
100.47    1416.57      37.64
100.57    1475.03      38.41
100.67    1637.00      40.46
100.77    1768.00      42.05
100.87    1744.01      41.76
100.97    1966.63      44.35
101.07    1959.24      44.26
101.17    1951.00      44.17
101.27    2022.00      44.97
101.37    2092.00      45.74
101.47    2049.42      45.27
101.57    1992.00      44.63
101.67    1973.00      44.42
101.77    1938.00      44.02
101.87    1897.00      43.55
101.97    1811.00      42.56
102.07    1719.00      41.46
102.17    1633.00      40.41
102.27    1494.00      38.65
102.37    1465.00      38.28
102.47    1407.00      37.51
102.57    1487.55      38.57
102.67    1416.74      37.64
102.77    1320.25      36.34
102.87    1213.00      34.83
102.97    1231.16      35.09
103.07    1274.88      35.71
103.17    1194.37      34.56
103.27    1152.00      33.94
103.37    1120.00      33.47
103.47    1069.00      32.70
103.57    1001.00      31.64
103.67    1030.35      32.10
103.77     948.00      30.79
103.87    1010.00      31.78
103.97     978.00      31.27
104.07     853.64      29.22
104.17     865.72      29.42
104.27     831.00      28.83
104.37     814.00      28.53
104.47     776.00      27.86
104.57     752.62      27.43
104.67     662.19      25.73
104.77     620.13      24.90
104.87     654.00      25.57
104.97     612.00      24.74
105.07     648.02      25.46
105.17     606.00      24.62
105.27     613.00      24.76
105.37     628.49      25.07
105.47     619.00      24.88
105.57     563.00      23.73
105.67     614.03      24.78
105.77     565.65      23.78
105.87     554.69      23.55
105.97     614.00      24.78
106.07     599.00      24.47
106.17     598.00      24.45
106.27     599.00      24.47
106.37     523.47      22.88
106.47     604.89      24.59
106.57     636.00      25.22
106.67     650.00      25.50
106.77     648.00      25.46
106.87     641.00      25.32
106.97     619.58      24.89
107.07     609.71      24.69
107.17     662.00      25.73
107.27     656.00      25.61
107.37     663.00      25.75
107.47     646.05      25.42
107.57     696.00      26.38
107.67     709.76      26.64
107.77     691.70      26.30
107.87     678.00      26.04
107.97     768.30      27.72
108.07     716.54      26.77
108.17     716.00      26.76
108.27     713.00      26.70
108.37     699.17      26.44
108.47     681.00      26.10
108.57     711.45      26.67
108.67     734.00      27.09
108.77     725.00      26.93
108.87     678.00      26.04
108.97     715.00      26.74
109.07     744.00      27.28
109.17     690.00      26.27
109.27     733.00      27.07
109.37     708.00      26.61
109.47     747.00      27.33
109.57     742.00      27.24
109.67     743.00      27.26
109.77     737.00      27.15
109.87     776.05      27.86
109.97     719.00      26.81
110.07     690.00      26.27
110.17     682.66      26.13
110.27     686.00      26.19
110.37     699.89      26.46
110.47     681.00      26.10
110.57     654.00      25.57
110.67     592.37      24.34
110.77     665.00      25.79
110.87     651.00      25.51
110.97     603.56      24.57
111.07     604.37      24.58
111.17     556.05      23.58
111.27     616.00      24.82
111.37     578.00      24.04
111.47     593.00      24.35
111.57     606.89      24.64
111.67     617.00      24.84
111.77     592.00      24.33
111.87     585.29      24.19
111.97     591.00      24.31
112.07     575.00      23.98
112.17     525.86      22.93
112.27     593.00      24.35
112.37     548.00      23.41
112.47     580.54      24.09
112.57     548.00      23.41
112.67     599.00      24.47
112.77     544.00      23.32
112.87     632.00      25.14
112.97     624.99      25.00
113.07     536.00      23.15
113.17     601.00      24.52
113.27     640.00      25.30
113.37     618.72      24.87
113.47     610.00      24.70
113.57     577.00      24.02
113.67     613.00      24.76
113.77     587.88      24.25
113.87     623.00      24.96
113.97     670.24      25.89
114.07     617.00      24.84
114.17     710.88      26.66
114.27     695.00      26.36
114.37     702.00      26.50
114.47     701.62      26.49
114.57     726.30      26.95
114.67     749.31      27.37
114.77     838.27      28.95
114.87     871.40      29.52
114.97     955.32      30.91
115.07    1116.96      33.42
115.17    1208.51      34.76
115.27    1240.00      35.21
115.37    1479.39      38.46
115.47    1611.02      40.14
115.57    1800.92      42.44
115.67    2010.37      44.84
115.77    2258.00      47.52
115.87    2425.37      49.25
115.97    2667.93      51.65
116.07    3030.00      55.05
116.17    3447.00      58.71
116.27    3734.35      61.11
116.37    3996.00      63.21
116.47    4549.00      67.45
116.57    4911.00      70.08
116.67    5241.00      72.39
116.77    5717.77      75.62
116.87    6021.34      77.60
116.97    6276.00      79.22
117.07    6737.00      82.08
117.17    7058.00      84.01
117.27    7046.00      83.94
117.37    7346.19      85.71
117.47    7167.00      84.66
117.57    7226.00      85.01
117.67    7186.78      84.77
117.77    6880.00      82.95
117.87    6723.00      81.99
117.97    6390.00      79.94
118.07    6101.00      78.11
118.17    5721.00      75.64
118.27    5267.00      72.57
118.37    4947.00      70.33
118.47    4691.00      68.49
118.57    4359.35      66.03
118.67    4003.00      63.27
118.77    3763.00      61.34
118.87    3326.00      57.67
118.97    3044.05      55.17
119.07    2739.00      52.34
119.17    2408.00      49.07
119.27    2120.00      46.04
119.37    1986.00      44.56
119.47    1700.00      41.23
119.57    1687.39      41.08
119.67    1520.00      38.99
119.77    1330.00      36.47
119.87    1228.00      35.04
119.97    1160.23      34.06
120.07    1128.00      33.59
120.17     977.00      31.26
120.27     981.00      31.32
120.37     933.00      30.55
120.47     815.00      28.55
120.57     827.00      28.76
120.67     756.20      27.50
120.77     787.00      28.05
120.87     707.00      26.59
120.97     751.72      27.42
121.07     738.02      27.17
121.17     693.27      26.33
121.27     645.99      25.42
121.37     675.00      25.98
121.47     701.89      26.49
121.57     635.00      25.20
121.67     674.00      25.96
121.77     634.00      25.18
121.87     673.00      25.94
121.97     604.00      24.58
122.07     651.00      25.51
122.17     683.00      26.13
122.27     621.00      24.92
122.37     578.00      24.04
122.47     620.00      24.90
122.57     666.00      25.81
122.67     698.04      26.42
122.77     672.00      25.92
122.87     674.51      25.97
122.97     660.00      25.69
123.07     657.49      25.64
123.17     667.00      25.83
123.27     671.62      25.92
123.37     720.00      26.83
123.47     658.83      25.67
123.57     659.00      25.67
123.67     687.00      26.21
123.77     730.00      27.02
123.87     729.64      27.01
123.97     692.00      26.31
124.07     745.00      27.29
124.17     728.77      27.00
124.27     730.93      27.04
124.37     680.45      26.09
124.47     732.26      27.06
124.57     662.00      25.73
124.67     695.00      26.36
124.77     681.13      26.10
124.87     642.00      25.34
124.97     695.00      26.36
