  9.97     573.45      23.95
 10.07     547.00      23.39
 10.17     577.49      24.03
 10.27     589.77      24.29
 10.37     543.20      23.31
 10.47     526.04      22.94
 10.57     570.00      23.87
 10.67     600.00      24.49
 10.77     598.00      24.45
 10.87     569.00      23.85
 10.97     602.00      24.54
 11.07     552.00      23.49
 11.17     551.00      23.47
 11.27     587.00      24.23
 11.37     595.37      24.40
 11.47     559.00      23.64
 11.57     578.96      24.06
 11.67     603.00      24.56
 11.77     583.68      24.16
 11.87     653.00      25.55
 11.97     675.00      25.98
 12.07     705.36      26.56
 12.17     737.00      27.15
 12.27     680.00      26.08
 12.37     676.04      26.00
 12.47     648.65      25.47
 12.57     568.00      23.83
 12.67     640.00      25.30
 12.77     538.90      23.21
 12.87     594.00      24.37
 12.97     502.00      22.41
 13.07     573.00      23.94
 13.17     547.00      23.39
 13.27     550.00      23.45
 13.37     608.33      24.66
 13.47     563.00      23.73
 13.57     536.79      23.17
 13.67     533.00      23.09
 13.77     527.00      22.96
 13.87     612.14      24.74
 13.97     562.00      23.71
 14.07     538.00      23.19
 14.17     542.00      23.28
 14.27     580.00      24.08
 14.37     561.00      23.69
 14.47     562.00      23.71
 14.57     580.07      24.08
 14.67     549.00      23.43
 14.77     562.00      23.71
 14.87     528.43      22.99
 14.97     566.00      23.79
 15.07     570.00      23.87
 15.17     524.72      22.91
 15.27     579.27      24.07
 15.37     543.00      23.30
 15.47     525.07      22.91
 15.57     545.00      23.35
 15.67     564.00      23.75
 15.77     525.16      22.92
 15.87     521.59      22.84
 15.97     570.07      23.88
 16.07     555.73      23.57
 16.17     537.00      23.17
 16.27     569.00      23.85
 16.37     601.00      24.52
 16.47     592.00      24.33
 16.57     525.00      22.91
 16.67     569.00      23.85
 16.77     534.00      23.11
 16.87     531.00      23.04
 16.97     568.00      23.83
 17.07     585.00      24.19
 17.17     529.97      23.02
 17.27     561.00      23.69
 17.37     530.00      23.02
 17.47     555.00      23.56
 17.57     592.29      24.34
 17.67     552.00      23.49
 17.77     591.42      24.32
 17.87     582.00      24.12
 17.97     545.00      23.35
 18.07     592.00      24.33
 18.17     609.00      24.68
 18.27     590.00      24.29
 18.37     535.73      23.15
 18.47     608.00      24.66
 18.57     517.35      22.75
 18.67     516.40      22.72
 18.77     516.00      22.72
 18.87     522.00      22.85
 18.97     551.00      23.47
 19.07     548.23      23.41
 19.17     591.00      24.31
 19.27     573.00      23.94
 19.37     573.33      23.94
 19.47     570.34      23.88
 19.57     575.00      23.98
 19.67     532.00      23.07
 19.77     582.55      24.14
 19.87     563.00      23.73
 19.97     532.56      23.08
 20.07     585.00      24.19
 20.17     564.00      23.75
 20.27     539.00      23.22
 20.37     573.34      23.94
 20.47     525.00      22.91
 20.57     576.00      24.00
 20.67     562.00      23.71
 20.77     574.00      23.96
 20.87     554.00      23.54
 20.97     541.00      23.26
 21.07     555.00      23.56
 21.17     513.71      22.67
 21.27     537.00      23.17
 21.37     543.00      23.30
 21.47     534.04      23.11
 21.57     561.00      23.69
 21.67     594.00      24.37
 21.77     574.24      23.96
 21.87     516.17      22.72
 21.97     556.00      23.58
 22.07     556.00      23.58
 22.17     576.26      24.01
 22.27     553.00      23.52
 22.37     568.00      23.83
 22.47     540.00      23.24
 22.57     574.00      23.96
 22.67     524.00      22.89
 22.77     555.00      23.56
 22.87     515.38      22.70
 22.97     526.78      22.95
 23.07     507.85      22.54
 23.17     547.00      23.39
 23.27     557.00      23.60
 23.37     578.00      24.04
 23.47     577.27      24.03
 23.57     562.00      23.71
 23.67     555.00      23.56
 23.77     530.00      23.02
 23.87     524.00      22.89
 23.97     507.49      22.53
 24.07     589.00      24.27
 24.17     585.00      24.19
 24.27     571.63      23.91
 24.37     546.00      23.37
 24.47     592.00      24.33
 24.57     591.92      24.33
 24.67     598.00      24.45
 24.77     651.59      25.53
 24.87     672.05      25.92
 24.97     661.00      25.71
 25.07     618.00      24.86
 25.17     570.00      23.87
 25.27     549.25      23.44
 25.37     581.00      24.10
 25.47     540.74      23.25
 25.57     611.00      24.72
 25.67     564.47      23.76
 25.77     513.90      22.67
 25.87     545.00      23.35
 25.97     551.75      23.49
 26.07     553.84      23.53
 26.17     604.00      24.58
 26.27     542.00      23.28
 26.37     539.00      23.22
 26.47     534.14      23.11
 26.57     563.00      23.73
 26.67     522.28      22.85
 26.77     551.00      23.47
 26.87     530.00      23.02
 26.97     576.00      24.00
 27.07     509.56      22.57
 27.17     567.06      23.81
 27.27     525.00      22.91
 27.37     575.00      23.98
 27.47     561.00      23.69
 27.57     581.82      24.12
 27.67     550.00      23.45
 27.77     573.00      23.94
 27.87     664.00      25.77
 27.97     664.39      25.78
 28.07     819.00      28.62
 28.17     876.00      29.60
 28.27     990.00      31.46
 28.37     929.14      30.48
 28.47     802.00      28.32
 28.57     703.00      26.51
 28.67     681.06      26.10
 28.77     748.56      27.36
 28.87     796.00      28.21
 28.97     782.00      27.96
 29.07     759.00      27.55
 29.17     681.35      26.10
 29.27     635.00      25.20
 29.37     604.94      24.60
 29.47     600.09      24.50
 29.57     595.00      24.39
 29.67     599.00      24.47
 29.77     569.00      23.85
 29.87     549.09      23.43
 29.97     568.00      23.83
 30.07     548.00      23.41
 30.17     529.00      23.00
 30.27     512.91      22.65
 30.37     545.34      23.35
 30.47     529.51      23.01
 30.57     508.20      22.54
 30.67     566.00      23.79
 30.77     582.00      24.12
 30.87     648.00      25.46
 30.97     589.23      24.27
 31.07     603.00      24.56
 31.17     565.00      23.77
 31.27     564.71      23.76
 31.37     531.85      23.06
 31.47     521.00      22.83
 31.57     531.00      23.04
 31.67     564.00      23.75
 31.77     561.00      23.69
 31.87     528.00      22.98
 31.97     558.68      23.64
 32.07     545.00      23.35
 32.17     563.00      23.73
 32.27     556.00      23.58
 32.37     554.82      23.55
 32.47     568.72      23.85
 32.57     497.73      22.31
 32.67     555.00      23.56
 32.77     557.00      23.60
 32.87     523.92      22.89
 32.97     519.12      22.78
 33.07     571.04      23.90
 33.17     542.87      23.30
 33.27     552.00      23.49
 33.37     541.77      23.28
 33.47     619.00      24.88
 33.57     589.00      24.27
 33.67     631.00      25.12
 33.77     795.00      28.20
 33.87     858.54      29.30
 33.97     999.00      31.61
 34.07    1129.00      33.60
 34.17     976.65      31.25
 34.27     871.00      29.51
 34.37     813.00      28.51
 34.47     612.00      24.74
 34.57     590.00      24.29
 34.67     599.97      24.49
 34.77     559.00      23.64
 34.87     568.00      23.83
 34.97     573.09      23.94
 35.07     510.00      22.58
 35.17     560.14      23.67
 35.27     498.00      22.32
 35.37     495.00      22.25
 35.47     530.00      23.02
 35.57     486.00      22.05
 35.67     535.00      23.13
 35.77     518.00      22.76
 35.87     503.00      22.43
 35.97     496.98      22.29
 36.07     562.32      23.71
 36.17     547.13      23.39
 36.27     516.00      22.72
 36.37     538.00      23.19
 36.47     506.00      22.49
 36.57     536.00      23.15
 36.67     554.89      23.56
 36.77     548.00      23.41
 36.87     536.32      23.16
 36.97     494.00      22.23
 37.07     493.00      22.20
 37.17     564.00      23.75
 37.27     542.00      23.28
 37.37     523.89      22.89
 37.47     544.93      23.34
 37.57     521.00      22.83
 37.67     508.37      22.55
 37.77     537.00      23.17
 37.87     523.00      22.87
 37.97     563.88      23.75
 38.07     513.00      22.65
 38.17     548.95      23.43
 38.27     475.00      21.79
 38.37     517.00      22.74
 38.47     553.00      23.52
 38.57     492.00      22.18
 38.67     553.13      23.52
 38.77     515.32      22.70
 38.87     524.00      22.89
 38.97     535.94      23.15
 39.07     505.00      22.47
 39.17     517.00      22.74
 39.27     526.32      22.94
 39.37     547.67      23.40
 39.47     509.00      22.56
 39.57     499.00      22.34
 39.67     504.00      22.45
 39.77     529.34      23.01
 39.87     531.00      23.04
 39.97     519.07      22.78
 40.07     524.11      22.89
 40.17     535.00      23.13
 40.27     468.03      21.63
 40.37     523.40      22.88
 40.47     521.99      22.85
 40.57     485.00      22.02
 40.67     489.80      22.13
 40.77     533.00      23.09
 40.87     527.41      22.97
 40.97     513.00      22.65
 41.07     468.02      21.63
 41.17     489.37      22.12
 41.27     523.00      22.87
 41.37     469.00      21.66
 41.47     520.00      22.80
 41.57     502.00      22.41
 41.67     484.00      22.00
 41.77     526.85      22.95
 41.87     541.38      23.27
 41.97     499.81      22.36
 42.07     546.00      23.37
 42.17     521.99      22.85
 42.27     543.27      23.31
 42.37     576.00      24.00
 42.47     535.00      23.13
 42.57     604.23      24.58
 42.67     658.84      25.67
 42.77     595.74      24.41
 42.87     567.00      23.81
 42.97     620.28      24.91
 43.07     534.00      23.11
 43.17     524.00      22.89
 43.27     526.00      22.93
 43.37     486.00      22.05
 43.47     499.00      22.34
 43.57     476.49      21.83
 43.67     525.96      22.93
 43.77     500.00      22.36
 43.87     510.00      22.58
 43.97     481.00      21.93
 44.07     532.00      23.07
 44.17     532.12      23.07
 44.27     525.10      22.92
 44.37     509.95      22.58
 44.47     447.00      21.14
 44.57     470.12      21.68
 44.67     548.41      23.42
 44.77     470.99      21.70
 44.87     502.00      22.41
 44.97     518.00      22.76
 45.07     540.00      23.24
 45.17     469.84      21.68
 45.27     479.00      21.89
 45.37     527.00      22.96
 45.47     491.00      22.16
 45.57     484.87      22.02
 45.67     463.37      21.53
 45.77     498.27      22.32
 45.87     507.00      22.52
 45.97     493.88      22.22
 46.07     484.00      22.00
 46.17     501.00      22.38
 46.27     494.00      22.23
 46.37     522.00      22.85
 46.47     526.00      22.93
 46.57     473.74      21.77
 46.67     551.95      23.49
 46.77     474.20      21.78
 46.87     538.83      23.21
 46.97     522.42      22.86
 47.07     519.00      22.78
 47.17     522.00      22.85
 47.27     535.60      23.14
 47.37     504.00      22.45
 47.47     538.00      23.19
 47.57     576.00      24.00
 47.67     577.00      24.02
 47.77     623.00      24.96
 47.87     582.00      24.12
 47.97     594.51      24.38
 48.07     618.00      24.86
 48.17     554.00      23.54
 48.27     541.00      23.26
 48.37     520.00      22.80
 48.47     553.86      23.53
 48.57     494.67      22.24
 48.67     565.35      23.78
 48.77     539.00      23.22
 48.87     559.00      23.64
 48.97     512.82      22.65
 49.07     575.00      23.98
 49.17     606.84      24.63
 49.27     639.00      25.28
 49.37     671.44      25.91
 49.47     672.93      25.94
 49.57     750.00      27.39
 49.67     913.00      30.22
 49.77    1128.00      33.59
 49.87    1454.93      38.14
 49.97    1849.00      43.00
 50.07    2235.70      47.28
 50.17    2543.00      50.43
 50.27    2497.00      49.97
 50.37    2264.00      47.58
 50.47    1811.03      42.56
 50.57    1422.72      37.72
 50.67    1018.00      31.91
 50.77     810.90      28.48
 50.87     751.89      27.42
 50.97     659.41      25.68
 51.07     628.00      25.06
 51.17     624.00      24.98
 51.27     618.00      24.86
 51.37     590.00      24.29
 51.47     524.12      22.89
 51.57     587.00      24.23
 51.67     521.00      22.83
 51.77     556.00      23.58
 51.87     581.34      24.11
 51.97     521.61      22.84
 52.07     534.34      23.12
 52.17     494.05      22.23
 52.27     547.00      23.39
 52.37     562.00      23.71
 52.47     498.07      22.32
 52.57     600.00      24.49
 52.67     578.00      24.04
 52.77     577.00      24.02
 52.87     656.42      25.62
 52.97     723.30      26.89
 53.07     771.70      27.78
 53.17     910.00      30.17
 53.27    1017.34      31.90
 53.37    1148.00      33.88
 53.47    1223.00      34.97
 53.57    1227.00      35.03
 53.67    1046.00      32.34
 53.77    1011.59      31.81
 53.87     862.00      29.36
 53.97     760.00      27.57
 54.07     649.89      25.49
 54.17     616.61      24.83
 54.27     566.00      23.79
 54.37     569.00      23.85
 54.47     564.00      23.75
 54.57     516.55      22.73
 54.67     584.00      24.17
 54.77     576.59      24.01
 54.87     610.00      24.70
 54.97     574.57      23.97
 55.07     579.00      24.06
 55.17     584.24      24.17
 55.27     567.00      23.81
 55.37     591.00      24.31
 55.47     533.00      23.09
 55.57     549.94      23.45
 55.67     585.16      24.19
 55.77     605.79      24.61
 55.87     605.00      24.60
 55.97     599.00      24.47
 56.07     646.00      25.42
 56.17     725.00      26.93
 56.27     893.00      29.88
 56.37    1040.00      32.25
 56.47    1432.00      37.84
 56.57    1834.52      42.83
 56.67    2164.00      46.52
 56.77    2470.48      49.70
 56.87    2570.14      50.70
 56.97    2700.83      51.97
 57.07    2424.00      49.23
 57.17    2095.00      45.77
 57.27    1640.81      40.51
 57.37    1314.00      36.25
 57.47    1061.00      32.57
 57.57     864.03      29.39
 57.67     766.00      27.68
 57.77     732.02      27.06
 57.87     701.00      26.48
 57.97     640.00      25.30
 58.07     675.00      25.98
 58.17     688.00      26.23
 58.27     732.00      27.06
 58.37     819.00      28.62
 58.47     960.00      30.98
 58.57    1122.87      33.51
 58.67    1251.00      35.37
 58.77    1344.00      36.66
 58.87    1511.00      38.87
 58.97    1492.54      38.63
 59.07    1666.00      40.82
 59.17    1674.00      40.91
 59.27    1490.00      38.60
 59.37    1365.00      36.95
 59.47    1296.00      36.00
 59.57    1167.00      34.16
 59.67    1141.00      33.78
 59.77    1106.39      33.26
 59.87    1167.00      34.16
 59.97    1218.86      34.91
 60.07    1492.00      38.63
 60.17    1550.00      39.37
 60.27    1635.00      40.44
 60.37    1519.00      38.97
 60.47    1382.00      37.18
 60.57    1201.00      34.66
 60.67    1044.00      32.31
 60.77     879.24      29.65
 60.87     744.48      27.29
 60.97     680.60      26.09
 61.07     596.00      24.41
 61.17     597.71      24.45
 61.27     621.00      24.92
 61.37     649.00      25.48
 61.47     652.00      25.53
 61.57     776.64      27.87
 61.67     817.88      28.60
 61.77     939.00      30.64
 61.87    1092.15      33.05
 61.97    1142.00      33.79
 62.07    1312.00      36.22
 62.17    1372.54      37.05
 62.27    1431.00      37.83
 62.37    1394.34      37.34
 62.47    1159.97      34.06
 62.57     996.49      31.57
 62.67     929.00      30.48
 62.77     784.45      28.01
 62.87     721.00      26.85
 62.97     640.00      25.30
 63.07     642.04      25.34
 63.17     576.00      24.00
 63.27     575.00      23.98
 63.37     549.00      23.43
 63.47     514.96      22.69
 63.57     585.00      24.19
 63.67     614.95      24.80
 63.77     614.00      24.78
 63.87     625.00      25.00
 63.97     618.00      24.86
 64.07     727.00      26.96
 64.17     701.41      26.48
 64.27     819.00      28.62
 64.37     917.00      30.28
 64.47    1010.00      31.78
 64.57    1033.00      32.14
 64.67    1012.00      31.81
 64.77     991.79      31.49
 64.87     976.66      31.25
 64.97     864.32      29.40
 65.07     863.42      29.38
 65.17     787.00      28.05
 65.27     763.00      27.62
 65.37     655.00      25.59
 65.47     632.00      25.14
 65.57     603.00      24.56
 65.67     588.00      24.25
 65.77     618.00      24.86
 65.87     550.90      23.47
 65.97     613.00      24.76
 66.07     527.00      22.96
 66.17     586.00      24.21
 66.27     564.00      23.75
 66.37     583.70      24.16
 66.47     574.00      23.96
 66.57     581.00      24.10
 66.67     580.00      24.08
 66.77     545.00      23.35
 66.87     616.51      24.83
 66.97     621.00      24.92
 67.07     624.00      24.98
 67.17     680.00      26.08
 67.27     719.00      26.81
 67.37     893.00      29.88
 67.47    1067.00      32.66
 67.57    1256.00      35.44
 67.67    1510.00      38.86
 67.77    1790.57      42.32
 67.87    2094.39      45.76
 67.97    2298.00      47.94
 68.07    2387.00      48.86
 68.17    2471.00      49.71
 68.27    2318.25      48.15
 68.37    2027.00      45.02
 68.47    1863.06      43.16
 68.57    1560.00      39.50
 68.67    1193.74      34.55
 68.77     989.00      31.45
 68.87     912.93      30.21
 68.97     751.00      27.40
 69.07     737.83      27.16
 69.17     710.00      26.65
 69.27     647.00      25.44
 69.37     620.00      24.90
 69.47     593.00      24.35
 69.57     606.00      24.62
 69.67     577.00      24.02
 69.77     607.00      24.64
 69.87     581.77      24.12
 69.97     590.00      24.29
 70.07     606.53      24.63
 70.17     602.25      24.54
 70.27     551.00      23.47
 70.37     602.72      24.55
 70.47     582.00      24.12
 70.57     574.23      23.96
 70.67     558.04      23.62
 70.77     584.55      24.18
 70.87     577.00      24.02
 70.97     603.00      24.56
 71.07     655.83      25.61
 71.17     701.87      26.49
 71.27     803.00      28.34
 71.37     950.00      30.82
 71.47    1086.60      32.96
 71.57    1293.00      35.96
 71.67    1415.00      37.62
 71.77    1640.00      40.50
 71.87    1824.00      42.71
 71.97    1910.00      43.70
 72.07    1908.83      43.69
 72.17    1937.00      44.01
 72.27    1810.53      42.55
 72.37    1616.00      40.20
 72.47    1517.67      38.96
 72.57    1332.00      36.50
 72.67    1197.00      34.60
 72.77    1106.00      33.26
 72.87     972.57      31.19
 72.97     948.57      30.80
 73.07     785.00      28.02
 73.17     714.00      26.72
 73.27     728.00      26.98
 73.37     758.07      27.53
 73.47     564.00      23.75
 73.57     642.00      25.34
 73.67     601.00      24.52
 73.77     638.00      25.26
 73.87     559.44      23.65
 73.97     596.00      24.41
 74.07     546.76      23.38
 74.17     613.00      24.76
 74.27     554.00      23.54
 74.37     540.83      23.26
 74.47     527.06      22.96
 74.57     627.00      25.04
 74.67     610.86      24.72
 74.77     641.00      25.32
 74.87     611.00      24.72
 74.97     625.00      25.00
 75.07     585.00      24.19
 75.17     591.57      24.32
 75.27     606.00      24.62
 75.37     567.00      23.81
 75.47     545.63      23.36
 75.57     578.00      24.04
 75.67     569.00      23.85
 75.77     529.62      23.01
 75.87     547.00      23.39
 75.97     597.00      24.43
 76.07     619.00      24.88
 76.17     662.00      25.73
 76.27     696.00      26.38
 76.37     693.00      26.32
 76.47     723.00      26.89
 76.57     748.11      27.35
 76.67     679.85      26.07
 76.77     722.52      26.88
 76.87     663.00      25.75
 76.97     693.47      26.33
 77.07     600.00      24.49
 77.17     597.00      24.43
 77.27     568.00      23.83
 77.37     525.78      22.93
 77.47     530.00      23.02
 77.57     534.00      23.11
 77.67     573.39      23.95
 77.77     527.00      22.96
 77.87     572.06      23.92
 77.97     522.00      22.85
 78.07     481.00      21.93
 78.17     521.57      22.84
 78.27     503.00      22.43
 78.37     562.80      23.72
 78.47     474.00      21.77
 78.57     478.00      21.86
 78.67     483.52      21.99
 78.77     509.00      22.56
 78.87     546.00      23.37
 78.97     516.00      22.72
 79.07     561.17      23.69
 79.17     525.00      22.91
 79.27     550.00      23.45
 79.37     550.00      23.45
 79.47     512.00      22.63
 79.57     541.00      23.26
 79.67     512.00      22.63
 79.77     509.00      22.56
 79.87     554.50      23.55
 79.97     564.00      23.75
 80.07     523.35      22.88
 80.17     562.00      23.71
 80.27     622.00      24.94
 80.37     555.00      23.56
 80.47     618.00      24.86
 80.57     623.95      24.98
 80.67     593.00      24.35
 80.77     623.00      24.96
 80.87     666.00      25.81
 80.97     678.75      26.05
 81.07     753.00      27.44
 81.17     715.00      26.74
 81.27     716.00      26.76
 81.37     746.00      27.31
 81.47     712.51      26.69
 81.57     705.50      26.56
 81.67     733.59      27.08
 81.77     718.00      26.80
 81.87     763.00      27.62
 81.97     716.00      26.76
 82.07     647.83      25.45
 82.17     676.00      26.00
 82.27     665.00      25.79
 82.37     661.94      25.73
 82.47     608.00      24.66
 82.57     580.00      24.08
 82.67     569.00      23.85
 82.77     545.00      23.35
 82.87     532.00      23.07
 82.97     559.00      23.64
 83.07     533.00      23.09
 83.17     577.00      24.02
 83.27     543.71      23.32
 83.37     539.00      23.22
 83.47     484.00      22.00
 83.57     546.55      23.38
 83.67     589.96      24.29
 83.77     529.72      23.02
 83.87     528.01      22.98
 83.97     573.96      23.96
 84.07     531.00      23.04
 84.17     588.00      24.25
 84.27     629.00      25.08
 84.37     560.00      23.66
 84.47     530.00      23.02
 84.57     562.07      23.71
 84.67     524.10      22.89
 84.77     517.00      22.74
 84.87     519.00      22.78
 84.97     575.00      23.98
 85.07     545.00      23.35
 85.17     522.00      22.85
 85.27     517.00      22.74
 85.37     566.65      23.80
 85.47     501.58      22.40
 85.57     545.00      23.35
 85.67     523.00      22.87
 85.77     530.00      23.02
 85.87     510.00      22.58
 85.97     496.17      22.27
 86.07     471.00      21.70
 86.17     584.00      24.17
 86.27     542.00      23.28
 86.37     580.16      24.09
 86.47     562.68      23.72
 86.57     545.89      23.36
 86.67     584.00      24.17
 86.77     536.63      23.17
 86.87     647.00      25.44
 86.97     598.32      24.46
 87.07     626.00      25.02
 87.17     660.00      25.69
 87.27     610.00      24.70
 87.37     635.74      25.21
 87.47     657.00      25.63
 87.57     641.62      25.33
 87.67     614.00      24.78
 87.77     589.07      24.27
 87.87     649.49      25.49
 87.97     618.00      24.86
 88.07     647.00      25.44
 88.17     583.00      24.15
 88.27     610.00      24.70
 88.37     528.45      22.99
 88.47     582.00      24.12
 88.57     536.28      23.16
 88.67     577.00      24.02
 88.77     608.00      24.66
 88.87     557.24      23.61
 88.97     576.00      24.00
 89.07     598.14      24.46
 89.17     606.71      24.63
 89.27     571.75      23.91
 89.37     635.00      25.20
 89.47     640.00      25.30
 89.57     643.05      25.36
 89.67     575.00      23.98
 89.77     528.00      22.98
 89.87     611.82      24.74
 89.97     543.00      23.30
 90.07     582.48      24.13
 90.17     585.67      24.20
 90.27     541.00      23.26
 90.37     513.00      22.65
 90.47     530.00      23.02
 90.57     512.52      22.64
 90.67     505.00      22.47
 90.77     532.00      23.07
 90.87     502.00      22.41
 90.97     533.00      23.09
 91.07     568.09      23.83
 91.17     493.89      22.22
 91.27     526.00      22.93
 91.37     547.00      23.39
 91.47     528.02      22.98
 91.57     513.00      22.65
 91.67     509.48      22.57
 91.77     546.00      23.37
 91.87     503.00      22.43
 91.97     587.53      24.24
 92.07     578.00      24.04
 92.17     524.00      22.89
 92.27     579.00      24.06
 92.37     576.53      24.01
 92.47     632.35      25.15
 92.57     627.60      25.05
 92.67     627.62      25.05
 92.77     699.00      26.44
 92.87     655.00      25.59
 92.97     764.01      27.64
 93.07     752.00      27.42
 93.17     767.00      27.69
 93.27     788.00      28.07
 93.37     766.45      27.68
 93.47     842.00      29.02
 93.57     806.00      28.39
 93.67     840.19      28.99
 93.77     874.15      29.57
 93.87     870.00      29.50
 93.97     893.00      29.88
 94.07     827.00      28.76
 94.17     823.49      28.70
 94.27     882.00      29.70
 94.37     844.00      29.05
 94.47     809.58      28.45
 94.57     909.00      30.15
 94.67     928.00      30.46
 94.77     846.00      29.09
 94.87     938.00      30.63
 94.97     810.77      28.47
 95.07     909.99      30.17
 95.17     806.96      28.41
 95.27     829.00      28.79
 95.37     820.02      28.64
 95.47     799.00      28.27
 95.57     765.47      27.67
 95.67     699.88      26.46
 95.77     708.00      26.61
 95.87     733.00      27.07
 95.97     662.00      25.73
 96.07     685.00      26.17
 96.17     697.00      26.40
 96.27     705.00      26.55
 96.37     805.29      28.38
 96.47     761.86      27.60
 96.57     860.00      29.33
 96.67     863.43      29.38
 96.77     967.00      31.10
 96.87    1021.00      31.95
 96.97    1110.69      33.33
 97.07    1230.00      35.07
 97.17    1312.00      36.22
 97.27    1311.48      36.21
 97.37    1403.28      37.46
 97.47    1483.54      38.52
 97.57    1388.00      37.26
 97.67    1455.38      38.15
 97.77    1429.75      37.81
 97.87    1362.47      36.91
 97.97    1310.00      36.19
 98.07    1221.79      34.95
 98.17    1145.00      33.84
 98.27    1044.00      32.31
 98.37     957.34      30.94
 98.47     919.00      30.32
 98.57     948.95      30.81
 98.67     828.00      28.77
 98.77     778.35      27.90
 98.87     829.00      28.79
 98.97     756.00      27.50
 99.07     785.00      28.02
 99.17     835.00      28.90
 99.27     909.86      30.16
 99.37     920.00      30.33
 99.47    1011.00      31.80
 99.57    1135.00      33.69
 99.67    1188.00      34.47
 99.77    1220.89      34.94
 99.87    1403.00      37.46
 99.97    1537.00      39.20
100.07    1565.00      39.56
100.17    1690.46      41.12
100.27    1839.00      42.88
100.37    1993.00      44.64
100.47    2066.34      45.46
100.57    2155.00      46.42
100.67    2172.71      46.61
100.77    2103.34      45.86
100.87    2100.00      45.83
100.97    2072.78      45.53
101.07    2056.61      45.35
101.17    1913.00      43.74
101.27    1767.06      42.04
101.37    1733.00      41.63
101.47    1687.81      41.08
101.57    1576.00      39.70
101.67    1454.00      38.13
101.77    1389.29      37.27
101.87    1278.00      35.75
101.97    1236.00      35.16
102.07    1237.00      35.17
102.17    1170.00      34.21
102.27    1183.00      34.39
102.37    1086.00      32.95
102.47    1054.00      32.47
102.57    1075.00      32.79
102.67    1047.00      32.36
102.77    1021.38      31.96
102.87     976.25      31.24
102.97     916.00      30.27
103.07     867.00      29.44
103.17     893.00      29.88
103.27     885.11      29.75
103.37     858.00      29.29
103.47     773.00      27.80
103.57     738.79      27.18
103.67     672.00      25.92
103.77     699.00      26.44
103.87     648.00      25.46
103.97     575.57      23.99
104.07     636.00      25.22
104.17     619.00      24.88
104.27     584.00      24.17
104.37     575.42      23.99
104.47     588.21      24.25
104.57     526.08      22.94
104.67     562.00      23.71
104.77     595.00      24.39
104.87     518.00      22.76
104.97     485.65      22.04
105.07     526.00      22.93
105.17     552.29      23.50
105.27     561.52      23.70
105.37     558.00      23.62
105.47     542.00      23.28
105.57     549.97      23.45
105.67     546.00      23.37
105.77     567.61      23.82
105.87     580.74      24.10
105.97     581.00      24.10
106.07     534.17      23.11
106.17     594.00      24.37
106.27     556.00      23.58
106.37     583.00      24.15
106.47     587.90      24.25
106.57     639.00      25.28
106.67     632.00      25.14
106.77     614.00      24.78
106.87     654.00      25.57
106.97     625.00      25.00
107.07     667.00      25.83
107.17     676.00      26.00
107.27     657.00      25.63
107.37     664.00      25.77
107.47     672.00      25.92
107.57     694.00      26.34
107.67     662.54      25.74
107.77     714.88      26.74
107.87     672.00      25.92
107.97     680.00      26.08
108.07     678.89      26.06
108.17     648.00      25.46
108.27     666.34      25.81
108.37     719.00      26.81
108.47     714.32      26.73
108.57     641.00      25.32
108.67     683.00      26.13
108.77     681.00      26.10
108.87     695.00      26.36
108.97     710.24      26.65
109.07     636.12      25.22
109.17     669.94      25.88
109.27     679.00      26.06
109.37     671.00      25.90
109.47     596.00      24.41
109.57     627.00      25.04
109.67     613.00      24.76
109.77     623.00      24.96
109.87     617.00      24.84
109.97     578.00      24.04
110.07     583.86      24.16
110.17     532.99      23.09
110.27     581.00      24.10
110.37     543.00      23.30
110.47     514.00      22.67
110.57     568.00      23.83
110.67     538.00      23.19
110.77     559.00      23.64
110.87     508.45      22.55
110.97     536.38      23.16
111.07     578.66      24.06
111.17     535.00      23.13
111.27     502.00      22.41
111.37     561.00      23.69
111.47     518.00      22.76
111.57     576.00      24.00
111.67     519.00      22.78
111.77     557.86      23.62
111.87     560.00      23.66
111.97     562.00      23.71
112.07     600.00      24.49
112.17     593.00      24.35
112.27     547.00      23.39
112.37     582.98      24.14
112.47     568.32      23.84
112.57     628.00      25.06
112.67     623.27      24.97
112.77     611.00      24.72
112.87     599.00      24.47
112.97     683.00      26.13
113.07     692.00      26.31
113.17     731.85      27.05
113.27     728.00      26.98
113.37     759.00      27.55
113.47     813.00      28.51
113.57     814.00      28.53
113.67     842.53      29.03
113.77     947.16      30.78
113.87     952.00      30.85
113.97    1002.06      31.66
114.07    1088.00      32.98
114.17    1127.38      33.58
114.27    1177.43      34.31
114.37    1322.00      36.36
114.47    1399.84      37.41
114.57    1458.00      38.18
114.67    1581.00      39.76
114.77    1683.17      41.03
114.87    1927.79      43.91
114.97    2123.00      46.08
115.07    2305.61      48.02
115.17    2466.00      49.66
115.27    2848.00      53.37
115.37    3162.12      56.23
115.47    3370.00      58.05
115.57    3758.00      61.30
115.67    4137.00      64.32
115.77    4482.00      66.95
115.87    4852.13      69.66
115.97    5164.00      71.86
116.07    5794.69      76.12
116.17    6083.00      77.99
116.27    6201.00      78.75
116.37    6467.99      80.42
116.47    6833.00      82.66
116.57    6850.90      82.77
116.67    6898.29      83.06
116.77    6977.00      83.53
116.87    6966.35      83.46
116.97    6790.00      82.40
117.07    6334.00      79.59
117.17    6249.53      79.05
117.27    5730.00      75.70
117.37    5378.00      73.33
117.47    4965.59      70.47
117.57    4616.00      67.94
117.67    4214.49      64.92
117.77    3951.29      62.86
117.87    3695.00      60.79
117.97    3283.00      57.30
118.07    2717.86      52.13
118.17    2577.00      50.76
118.27    2288.30      47.84
118.37    2035.00      45.11
118.47    1792.00      42.33
118.57    1604.00      40.05
118.67    1377.00      37.11
118.77    1272.00      35.67
118.87    1121.00      33.48
118.97    1006.00      31.72
119.07     925.00      30.41
119.17     888.00      29.80
119.27     864.75      29.41
119.37     825.35      28.73
119.47     774.00      27.82
119.57     679.00      26.06
119.67     666.08      25.81
119.77     638.95      25.28
119.87     633.42      25.17
119.97     610.00      24.70
120.07     624.00      24.98
120.17     554.25      23.54
120.27     558.00      23.62
120.37     565.00      23.77
120.47     554.79      23.55
120.57     570.00      23.87
120.67     546.58      23.38
120.77     590.55      24.30
120.87     562.95      23.73
120.97     565.00      23.77
121.07     580.00      24.08
121.17     570.40      23.88
121.27     579.00      24.06
121.37     526.00      22.93
121.47     570.88      23.89
121.57     558.75      23.64
121.67     562.00      23.71
121.77     573.02      23.94
121.87     605.93      24.62
121.97     589.59      24.28
122.07     568.09      23.83
122.17     616.00      24.82
122.27     635.00      25.20
122.37     604.13      24.58
122.47     674.00      25.96
122.57     637.73      25.25
122.67     605.00      24.60
122.77     685.07      26.17
122.87     671.57      25.91
122.97     648.00      25.46
123.07     667.07      25.83
123.17     635.00      25.20
123.27     607.10      24.64
123.37     632.00      25.14
123.47     608.61      24.67
123.57     596.00      24.41
123.67     657.00      25.63
123.77     611.00      24.72
123.87     616.00      24.82
123.97     599.00      24.47
124.07     606.07      24.62
124.17     647.62      25.45
124.27     603.00      24.56
124.37     617.44      24.85
124.47     578.00      24.04
124.57     621.00      24.92
124.67     596.00      24.41
124.77     587.00      24.23
124.87     632.00      25.14
124.97     568.00      23.83
