  9.97     582.00      24.12
 10.07     638.00      25.26
 10.17     593.38      24.36
 10.27     564.00      23.75
 10.37     601.59      24.53
 10.47     661.00      25.71
 10.57     589.32      24.28
 10.67     558.91      23.64
 10.77     552.00      23.49
 10.87     597.00      24.43
 10.97     525.09      22.91
 11.07     582.58      24.14
 11.17     606.00      24.62
 11.27     584.14      24.17
 11.37     569.00      23.85
 11.47     558.21      23.63
 11.57     571.00      23.90
 11.67     563.00      23.73
 11.77     560.89      23.68
 11.87     644.95      25.40
 11.97     663.97      25.77
 12.07     699.00      26.44
 12.17     696.83      26.40
 12.27     681.00      26.10
 12.37     654.00      25.57
 12.47     612.00      24.74
 12.57     625.00      25.00
 12.67     645.00      25.40
 12.77     541.75      23.28
 12.87     627.64      25.05
 12.97     600.00      24.49
 13.07     604.40      24.58
 13.17     568.43      23.84
 13.27     535.00      23.13
 13.37     549.00      23.43
 13.47     578.00      24.04
 13.57     588.00      24.25
 13.67     595.00      24.39
 13.77     557.00      23.60
 13.87     567.00      23.81
 13.97     557.00      23.60
 14.07     548.00      23.41
 14.17     574.84      23.98
 14.27     566.43      23.80
 14.37     581.52      24.11
 14.47     593.00      24.35
 14.57     586.57      24.22
 14.67     617.73      24.85
 14.77     540.00      23.24
 14.87     551.00      23.47
 14.97     569.84      23.87
 15.07     614.70      24.79
 15.17     522.88      22.87
 15.27     551.00      23.47
 15.37     569.00      23.85
 15.47     600.73      24.51
 15.57     586.25      24.21
 15.67     573.00      23.94
 15.77     533.77      23.10
 15.87     550.00      23.45
 15.97     553.00      23.52
 16.07     604.76      24.59
 16.17     558.52      23.63
 16.27     562.00      23.71
 16.37     604.00      24.58
 16.47     577.00      24.02
 16.57     537.00      23.17
 16.67     568.00      23.83
 16.77     552.83      23.51
 16.87     573.28      23.94
 16.97     535.12      23.13
 17.07     600.71      24.51
 17.17     543.94      23.32
 17.27     594.00      24.37
 17.37     527.00      22.96
 17.47     548.00      23.41
 17.57     558.00      23.62
 17.67     531.95      23.06
 17.77     576.04      24.00
 17.87     578.00      24.04
 17.97     542.87      23.30
 18.07     584.65      24.18
 18.17     557.00      23.60
 18.27     520.00      22.80
 18.37     527.00      22.96
 18.47     605.83      24.61
 18.57     536.00      23.15
 18.67     578.00      24.04
 18.77     564.00      23.75
 18.87     563.00      23.73
 18.97     565.00      23.77
 19.07     608.00      24.66
 19.17     591.43      24.32
 19.27     608.00      24.66
 19.37     541.08      23.26
 19.47     553.00      23.52
 19.57     529.13      23.00
 19.67     547.00      23.39
 19.77     602.95      24.56
 19.87     546.00      23.37
 19.97     555.00      23.56
 20.07     531.49      23.05
 20.17     581.00      24.10
 20.27     554.00      23.54
 20.37     539.57      23.23
 20.47     598.06      24.46
 20.57     530.00      23.02
 20.67     554.00      23.54
 20.77     559.13      23.65
 20.87     587.13      24.23
 20.97     559.81      23.66
 21.07     588.00      24.25
 21.17     546.00      23.37
 21.27     545.00      23.35
 21.37     534.54      23.12
 21.47     520.00      22.80
 21.57     536.00      23.15
 21.67     561.00      23.69
 21.77     561.00      23.69
 21.87     579.00      24.06
 21.97     568.00      23.83
 22.07     550.00      23.45
 22.17     618.00      24.86
 22.27     537.63      23.19
 22.37     586.00      24.21
 22.47     509.00      22.56
 22.57     532.00      23.07
 22.67     588.00      24.25
 22.77     550.00      23.45
 22.87     502.00      22.41
 22.97     544.00      23.32
 23.07     562.00      23.71
 23.17     503.00      22.43
 23.27     526.45      22.94
 23.37     536.00      23.15
 23.47     538.28      23.20
 23.57     521.54      22.84
 23.67     558.00      23.62
 23.77     574.99      23.98
 23.87     551.09      23.48
 23.97     578.00      24.04
 24.07     588.00      24.25
 24.17     548.00      23.41
 24.27     580.00      24.08
 24.37     586.53      24.22
 24.47     579.00      24.06
 24.57     573.68      23.95
 24.67     597.00      24.43
 24.77     607.00      24.64
 24.87     623.00      24.96
 24.97     652.00      25.53
 25.07     616.00      24.82
 25.17     600.00      24.49
 25.27     558.00      23.62
 25.37     544.00      23.32
 25.47     543.00      23.30
 25.57     539.89      23.24
 25.67     569.93      23.87
 25.77     549.00      23.43
 25.87     525.00      22.91
 25.97     570.02      23.88
 26.07     499.93      22.36
 26.17     546.00      23.37
 26.27     571.00      23.90
 26.37     570.00      23.87
 26.47     499.76      22.36
 26.57     558.08      23.62
 26.67     587.00      24.23
 26.77     502.96      22.43
 26.87     556.00      23.58
 26.97     522.00      22.85
 27.07     570.00      23.87
 27.17     573.00      23.94
 27.27     504.78      22.47
 27.37     589.00      24.27
 27.47     576.10      24.00
 27.57     575.00      23.98
 27.67     590.07      24.29
 27.77     592.00      24.33
 27.87     628.00      25.06
 27.97     647.29      25.44
 28.07     789.00      28.09
 28.17     849.51      29.15
 28.27     926.00      30.43
 28.37     894.00      29.90
 28.47     764.75      27.65
 28.57     711.00      26.66
 28.67     709.00      26.63
 28.77     760.00      27.57
 28.87     774.00      27.82
 28.97     794.00      28.18
 29.07     766.00      27.68
 29.17     739.00      27.18
 29.27     677.00      26.02
 29.37     589.00      24.27
 29.47     620.00      24.90
 29.57     623.00      24.96
 29.67     575.96      24.00
 29.77     595.00      24.39
 29.87     604.00      24.58
 29.97     526.49      22.95
 30.07     569.00      23.85
 30.17     529.16      23.00
 30.27     532.00      23.07
 30.37     559.00      23.64
 30.47     548.00      23.41
 30.57     500.00      22.36
 30.67     577.00      24.02
 30.77     565.35      23.78
 30.87     611.00      24.72
 30.97     631.00      25.12
 31.07     573.00      23.94
 31.17     579.00      24.06
 31.27     570.38      23.88
 31.37     536.00      23.15
 31.47     547.55      23.40
 31.57     540.00      23.24
 31.67     539.00      23.22
 31.77     503.00      22.43
 31.87     531.22      23.05
 31.97     525.00      22.91
 32.07     534.00      23.11
 32.17     545.00      23.35
 32.27     528.00      22.98
 32.37     544.00      23.32
 32.47     568.88      23.85
 32.57     532.75      23.08
 32.67     533.00      23.09
 32.77     531.59      23.06
 32.87     518.00      22.76
 32.97     550.00      23.45
 33.07     548.00      23.41
 33.17     536.00      23.15
 33.27     543.00      23.30
 33.37     550.62      23.47
 33.47     543.00      23.30
 33.57     617.08      24.84
 33.67     640.00      25.30
 33.77     781.00      27.95
 33.87     955.00      30.90
 33.97    1049.00      32.39
 34.07    1085.55      32.95
 34.17     960.83      31.00
 34.27     888.72      29.81
 34.37     760.00      27.57
 34.47     634.00      25.18
 34.57     583.00      24.15
 34.67     551.44      23.48
 34.77     517.62      22.75
 34.87     518.00      22.76
 34.97     535.00      23.13
 35.07     489.00      22.11
 35.17     503.00      22.43
 35.27     526.00      22.93
 35.37     538.00      23.19
 35.47     537.00      23.17
 35.57     495.00      22.25
 35.67     504.00      22.45
 35.77     510.00      22.58
 35.87     509.00      22.56
 35.97     528.00      22.98
 36.07     521.00      22.83
 36.17     560.00      23.66
 36.27     525.95      22.93
 36.37     507.00      22.52
 36.47     534.00      23.11
 36.57     544.39      23.33
 36.67     536.00      23.15
 36.77     508.43      22.55
 36.87     515.37      22.70
 36.97     501.00      22.38
 37.07     507.00      22.52
 37.17     501.00      22.38
 37.27     552.85      23.51
 37.37     478.82      21.88
 37.47     565.83      23.79
 37.57     569.00      23.85
 37.67     565.00      23.77
 37.77     501.86      22.40
 37.87     496.43      22.28
 37.97     546.84      23.38
 38.07     483.00      21.98
 38.17     488.98      22.11
 38.27     543.92      23.32
 38.37     491.34      22.17
 38.47     503.00      22.43
 38.57     500.00      22.36
 38.67     469.78      21.67
 38.77     501.00      22.38
 38.87     497.00      22.29
 38.97     476.00      21.82
 39.07     532.00      23.07
 39.17     538.00      23.19
 39.27     490.00      22.14
 39.37     505.00      22.47
 39.47     468.29      21.64
 39.57     496.00      22.27
 39.67     512.00      22.63
 39.77     523.00      22.87
 39.87     493.71      22.22
 39.97     518.30      22.77
 40.07     469.00      21.66
 40.17     525.00      22.91
 40.27     467.00      21.61
 40.37     475.05      21.80
 40.47     502.00      22.41
 40.57     486.00      22.05
 40.67     533.00      23.09
 40.77     493.00      22.20
 40.87     522.00      22.85
 40.97     445.00      21.10
 41.07     513.23      22.65
 41.17     531.00      23.04
 41.27     495.00      22.25
 41.37     530.69      23.04
 41.47     497.32      22.30
 41.57     504.00      22.45
 41.67     552.00      23.49
 41.77     489.00      22.11
 41.87     487.00      22.07
 41.97     481.00      21.93
 42.07     483.00      21.98
 42.17     530.47      23.03
 42.27     510.00      22.58
 42.37     525.00      22.91
 42.47     539.00      23.22
 42.57     588.00      24.25
 42.67     604.28      24.58
 42.77     620.00      24.90
 42.87     609.79      24.69
 42.97     543.82      23.32
 43.07     512.00      22.63
 43.17     541.00      23.26
 43.27     471.00      21.70
 43.37     512.00      22.63
 43.47     528.00      22.98
 43.57     501.00      22.38
 43.67     475.00      21.79
 43.77     511.74      22.62
 43.87     517.00      22.74
 43.97     482.72      21.97
 44.07     481.00      21.93
 44.17     501.00      22.38
 44.27     466.32      21.59
 44.37     446.00      21.12
 44.47     491.00      22.16
 44.57     514.00      22.67
 44.67     503.66      22.44
 44.77     538.00      23.19
 44.87     505.99      22.49
 44.97     480.00      21.91
 45.07     521.00      22.83
 45.17     457.00      21.38
 45.27     505.34      22.48
 45.37     476.00      21.82
 45.47     513.00      22.65
 45.57     540.40      23.25
 45.67     534.41      23.12
 45.77     478.00      21.86
 45.87     490.00      22.14
 45.97     472.19      21.73
 46.07     477.00      21.84
 46.17     475.68      21.81
 46.27     515.00      22.69
 46.37     484.00      22.00
 46.47     518.00      22.76
 46.57     520.00      22.80
 46.67     505.00      22.47
 46.77     530.00      23.02
 46.87     539.00      23.22
 46.97     514.00      22.67
 47.07     489.31      22.12
 47.17     502.00      22.41
 47.27     492.00      22.18
 47.37     537.00      23.17
 47.47     544.00      23.32
 47.57     552.00      23.49
 47.67     556.92      23.60
 47.77     584.00      24.17
 47.87     626.83      25.04
 47.97     620.00      24.90
 48.07     601.00      24.52
 48.17     589.00      24.27
 48.27     584.90      24.18
 48.37     557.00      23.60
 48.47     517.00      22.74
 48.57     525.00      22.91
 48.67     540.00      23.24
 48.77     490.14      22.14
 48.87     581.23      24.11
 48.97     565.00      23.77
 49.07     560.48      23.67
 49.17     570.00      23.87
 49.27     639.00      25.28
 49.37     656.00      25.61
 49.47     667.04      25.83
 49.57     724.42      26.91
 49.67     906.28      30.10
 49.77    1168.20      34.18
 49.87    1485.00      38.54
 49.97    1863.00      43.16
 50.07    2219.00      47.11
 50.17    2505.00      50.05
 50.27    2466.76      49.67
 50.37    2309.00      48.05
 50.47    1915.02      43.76
 50.57    1456.68      38.17
 50.67    1145.42      33.84
 50.77     806.00      28.39
 50.87     726.00      26.94
 50.97     653.00      25.55
 51.07     662.00      25.73
 51.17     647.00      25.44
 51.27     640.00      25.30
 51.37     567.55      23.82
 51.47     546.00      23.37
 51.57     585.00      24.19
 51.67     562.00      23.71
 51.77     554.62      23.55
 51.87     554.00      23.54
 51.97     548.00      23.41
 52.07     563.14      23.73
 52.17     544.00      23.32
 52.27     564.00      23.75
 52.37     591.00      24.31
 52.47     592.00      24.33
 52.57     571.26      23.90
 52.67     589.00      24.27
 52.77     552.77      23.51
 52.87     674.00      25.96
 52.97     713.62      26.71
 53.07     723.17      26.89
 53.17     912.00      30.20
 53.27    1042.00      32.28
 53.37    1088.29      32.99
 53.47    1199.00      34.63
 53.57    1168.02      34.18
 53.67    1162.50      34.10
 53.77     992.14      31.50
 53.87     901.99      30.03
 53.97     716.00      26.76
 54.07     684.00      26.15
 54.17     611.00      24.72
 54.27     585.00      24.19
 54.37     596.00      24.41
 54.47     556.15      23.58
 54.57     571.12      23.90
 54.67     538.00      23.19
 54.77     542.00      23.28
 54.87     543.00      23.30
 54.97     594.00      24.37
 55.07     565.00      23.77
 55.17     560.67      23.68
 55.27     584.61      24.18
 55.37     533.00      23.09
 55.47     573.00      23.94
 55.57     592.00      24.33
 55.67     569.82      23.87
 55.77     600.00      24.49
 55.87     621.17      24.92
 55.97     621.00      24.92
 56.07     669.00      25.87
 56.17     737.00      27.15
 56.27     917.93      30.30
 56.37    1064.00      32.62
 56.47    1377.00      37.11
 56.57    1823.00      42.70
 56.67    2138.69      46.25
 56.77    2474.00      49.74
 56.87    2703.89      52.00
 56.97    2718.00      52.13
 57.07    2415.00      49.14
 57.17    1987.00      44.58
 57.27    1667.00      40.83
 57.37    1244.95      35.28
 57.47    1128.00      33.59
 57.57     846.24      29.09
 57.67     745.00      27.29
 57.77     702.00      26.50
 57.87     679.00      26.06
 57.97     641.30      25.32
 58.07     623.54      24.97
 58.17     701.00      26.48
 58.27     750.22      27.39
 58.37     878.84      29.65
 58.47     922.00      30.36
 58.57    1019.35      31.93
 58.67    1195.00      34.57
 58.77    1320.00      36.33
 58.87    1431.04      37.83
 58.97    1543.19      39.28
 59.07    1609.00      40.11
 59.17    1554.31      39.42
 59.27    1431.91      37.84
 59.37    1322.83      36.37
 59.47    1285.00      35.85
 59.57    1180.71      34.36
 59.67    1188.50      34.47
 59.77    1076.85      32.82
 59.87    1283.00      35.82
 59.97    1321.00      36.35
 60.07    1422.92      37.72
 60.17    1575.00      39.69
 60.27    1482.18      38.50
 60.37    1515.00      38.92
 60.47    1374.39      37.07
 60.57    1256.00      35.44
 60.67    1000.22      31.63
 60.77     848.00      29.12
 60.87     794.00      28.18
 60.97     723.00      26.89
 61.07     670.00      25.88
 61.17     586.16      24.21
 61.27     663.78      25.76
 61.37     655.00      25.59
 61.47     633.00      25.16
 61.57     708.03      26.61
 61.67     878.83      29.65
 61.77     987.00      31.42
 61.87    1191.86      34.52
 61.97    1180.00      34.35
 62.07    1312.00      36.22
 62.17    1434.29      37.87
 62.27    1350.00      36.74
 62.37    1286.00      35.86
 62.47    1160.83      34.07
 62.57    1074.81      32.78
 62.67     913.26      30.22
 62.77     802.00      28.32
 62.87     678.00      26.04
 62.97     640.00      25.30
 63.07     611.00      24.72
 63.17     607.34      24.64
 63.27     581.77      24.12
 63.37     571.00      23.90
 63.47     556.51      23.59
 63.57     624.00      24.98
 63.67     565.00      23.77
 63.77     618.00      24.86
 63.87     606.00      24.62
 63.97     658.00      25.65
 64.07     652.46      25.54
 64.17     788.00      28.07
 64.27     849.00      29.14
 64.37     880.00      29.66
 64.47    1017.00      31.89
 64.57     956.75      30.93
 64.67    1024.00      32.00
 64.77     962.00      31.02
 64.87    1004.08      31.69
 64.97     913.00      30.22
 65.07     817.00      28.58
 65.17     807.00      28.41
 65.27     689.75      26.26
 65.37     726.09      26.95
 65.47     635.92      25.22
 65.57     613.00      24.76
 65.67     598.00      24.45
 65.77     573.00      23.94
 65.87     563.00      23.73
 65.97     562.00      23.71
 66.07     518.00      22.76
 66.17     535.00      23.13
 66.27     512.00      22.63
 66.37     538.47      23.20
 66.47     578.00      24.04
 66.57     551.00      23.47
 66.67     572.00      23.92
 66.77     609.22      24.68
 66.87     612.00      24.74
 66.97     642.55      25.35
 67.07     616.70      24.83
 67.17     662.00      25.73
 67.27     741.00      27.22
 67.37     907.54      30.13
 67.47    1065.00      32.63
 67.57    1238.00      35.19
 67.67    1571.00      39.64
 67.77    1820.93      42.67
 67.87    2117.53      46.02
 67.97    2203.18      46.94
 68.07    2461.00      49.61
 68.17    2439.00      49.39
 68.27    2298.00      47.94
 68.37    2133.00      46.18
 68.47    1705.09      41.29
 68.57    1495.00      38.67
 68.67    1320.50      36.34
 68.77    1056.44      32.50
 68.87     911.69      30.19
 68.97     803.81      28.35
 69.07     662.00      25.73
 69.17     619.18      24.88
 69.27     638.28      25.26
 69.37     596.52      24.42
 69.47     532.24      23.07
 69.57     590.00      24.29
 69.67     584.00      24.17
 69.77     565.69      23.78
 69.87     587.00      24.23
 69.97     589.28      24.28
 70.07     588.00      24.25
 70.17     558.29      23.63
 70.27     520.00      22.80
 70.37     548.65      23.42
 70.47     555.00      23.56
 70.57     557.00      23.60
 70.67     571.00      23.90
 70.77     561.00      23.69
 70.87     623.00      24.96
 70.97     600.02      24.50
 71.07     650.00      25.50
 71.17     707.00      26.59
 71.27     845.00      29.07
 71.37     889.00      29.82
 71.47    1021.37      31.96
 71.57    1283.00      35.82
 71.67    1383.00      37.19
 71.77    1706.14      41.31
 71.87    1784.32      42.24
 71.97    1927.00      43.90
 72.07    1895.00      43.53
 72.17    1795.52      42.37
 72.27    1766.27      42.03
 72.37    1569.54      39.62
 72.47    1532.97      39.15
 72.57    1281.00      35.79
 72.67    1230.00      35.07
 72.77    1020.11      31.94
 72.87     945.00      30.74
 72.97     858.00      29.29
 73.07     835.02      28.90
 73.17     738.00      27.17
 73.27     643.00      25.36
 73.37     696.00      26.38
 73.47     618.00      24.86
 73.57     556.00      23.58
 73.67     609.00      24.68
 73.77     610.00      24.70
 73.87     593.39      24.36
 73.97     577.00      24.02
 74.07     599.18      24.48
 74.17     584.90      24.18
 74.27     590.41      24.30
 74.37     625.00      25.00
 74.47     608.00      24.66
 74.57     546.01      23.37
 74.67     515.29      22.70
 74.77     519.40      22.79
 74.87     523.36      22.88
 74.97     628.00      25.06
 75.07     601.00      24.52
 75.17     537.63      23.19
 75.27     516.34      22.72
 75.37     566.83      23.81
 75.47     543.15      23.31
 75.57     590.09      24.29
 75.67     546.53      23.38
 75.77     584.00      24.17
 75.87     622.00      24.94
 75.97     637.02      25.24
 76.07     636.00      25.22
 76.17     656.16      25.62
 76.27     621.00      24.92
 76.37     650.00      25.50
 76.47     729.00      27.00
 76.57     656.22      25.62
 76.67     712.00      26.68
 76.77     715.83      26.76
 76.87     706.27      26.58
 76.97     618.16      24.86
 77.07     658.60      25.66
 77.17     546.00      23.37
 77.27     631.00      25.12
 77.37     589.08      24.27
 77.47     503.00      22.43
 77.57     509.00      22.56
 77.67     523.00      22.87
 77.77     520.00      22.80
 77.87     559.00      23.64
 77.97     503.00      22.43
 78.07     484.00      22.00
 78.17     549.00      23.43
 78.27     511.02      22.61
 78.37     517.00      22.74
 78.47     534.00      23.11
 78.57     570.00      23.87
 78.67     548.00      23.41
 78.77     522.48      22.86
 78.87     521.00      22.83
 78.97     564.02      23.75
 79.07     500.00      22.36
 79.17     559.00      23.64
 79.27     562.00      23.71
 79.37     531.00      23.04
 79.47     540.61      23.25
 79.57     541.00      23.26
 79.67     526.83      22.95
 79.77     502.00      22.41
 79.87     541.00      23.26
 79.97     528.00      22.98
 80.07     544.00      23.32
 80.17     570.08      23.88
 80.27     581.40      24.11
 80.37     581.00      24.10
 80.47     590.00      24.29
 80.57     584.00      24.17
 80.67     634.00      25.18
 80.77     641.00      25.32
 80.87     715.57      26.75
 80.97     690.00      26.27
 81.07     709.26      26.63
 81.17     697.00      26.40
 81.27     754.00      27.46
 81.37     702.43      26.50
 81.47     756.00      27.50
 81.57     745.00      27.29
 81.67     780.00      27.93
 81.77     719.00      26.81
 81.87     666.48      25.82
 81.97     701.00      26.48
 82.07     641.65      25.33
 82.17     651.00      25.51
 82.27     646.00      25.42
 82.37     594.99      24.39
 82.47     578.18      24.05
 82.57     588.00      24.25
 82.67     571.00      23.90
 82.77     572.00      23.92
 82.87     544.00      23.32
 82.97     548.00      23.41
 83.07     509.00      22.56
 83.17     540.00      23.24
 83.27     533.00      23.09
 83.37     541.48      23.27
 83.47     539.01      23.22
 83.57     518.00      22.76
 83.67     558.00      23.62
 83.77     571.00      23.90
 83.87     612.00      24.74
 83.97     564.00      23.75
 84.07     583.00      24.15
 84.17     563.00      23.73
 84.27     607.87      24.66
 84.37     569.00      23.85
 84.47     559.00      23.64
 84.57     544.28      23.33
 84.67     521.89      22.84
 84.77     543.00      23.30
 84.87     515.59      22.71
 84.97     552.90      23.51
 85.07     532.00      23.07
 85.17     527.00      22.96
 85.27     555.00      23.56
 85.37     509.02      22.56
 85.47     566.24      23.80
 85.57     518.00      22.76
 85.67     483.59      21.99
 85.77     526.96      22.96
 85.87     522.00      22.85
 85.97     535.00      23.13
 86.07     543.00      23.30
 86.17     550.00      23.45
 86.27     572.00      23.92
 86.37     564.90      23.77
 86.47     551.63      23.49
 86.57     540.00      23.24
 86.67     567.00      23.81
 86.77     576.00      24.00
 86.87     589.71      24.28
 86.97     557.96      23.62
 87.07     631.00      25.12
 87.17     669.31      25.87
 87.27     621.00      24.92
 87.37     629.00      25.08
 87.47     649.35      25.48
 87.57     669.99      25.88
 87.67     589.04      24.27
 87.77     651.00      25.51
 87.87     616.78      24.84
 87.97     638.00      25.26
 88.07     567.05      23.81
 88.17     597.00      24.43
 88.27     576.00      24.00
 88.37     549.47      23.44
 88.47     536.08      23.15
 88.57     576.00      24.00
 88.67     584.00      24.17
 88.77     609.00      24.68
 88.87     531.47      23.05
 88.97     567.90      23.83
 89.07     569.24      23.86
 89.17     587.00      24.23
 89.27     587.00      24.23
 89.37     639.73      25.29
 89.47     611.00      24.72
 89.57     552.16      23.50
 89.67     546.00      23.37
 89.77     622.00      24.94
 89.87     565.00      23.77
 89.97     555.00      23.56
 90.07     524.68      22.91
 90.17     563.00      23.73
 90.27     571.96      23.92
 90.37     539.77      23.23
 90.47     555.00      23.56
 90.57     540.00      23.24
 90.67     553.00      23.52
 90.77     547.95      23.41
 90.87     550.62      23.47
 90.97     527.00      22.96
 91.07     569.81      23.87
 91.17     532.00      23.07
 91.27     488.00      22.09
 91.37     513.00      22.65
 91.47     488.43      22.10
 91.57     584.15      24.17
 91.67     500.00      22.36
 91.77     532.00      23.07
 91.87     555.00      23.56
 91.97     576.00      24.00
 92.07     571.69      23.91
 92.17     613.26      24.76
 92.27     584.00      24.17
 92.37     583.00      24.15
 92.47     679.00      26.06
 92.57     650.00      25.50
 92.67     689.00      26.25
 92.77     641.79      25.33
 92.87     686.00      26.19
 92.97     761.67      27.60
 93.07     785.69      28.03
 93.17     779.00      27.91
 93.27     842.00      29.02
 93.37     814.18      28.53
 93.47     825.00      28.72
 93.57     830.00      28.81
 93.67     827.00      28.76
 93.77     825.00      28.72
 93.87     806.00      28.39
 93.97     800.00      28.28
 94.07     882.00      29.70
 94.17     839.00      28.97
 94.27     832.00      28.84
 94.37     901.00      30.02
 94.47     894.00      29.90
 94.57     950.00      30.82
 94.67     931.00      30.51
 94.77     921.00      30.35
 94.87     916.00      30.27
 94.97     923.00      30.38
 95.07     809.35      28.45
 95.17     843.00      29.03
 95.27     888.00      29.80
 95.37     844.62      29.06
 95.47     799.61      28.28
 95.57     695.92      26.38
 95.67     710.00      26.65
 95.77     668.02      25.85
 95.87     734.00      27.09
 95.97     729.00      27.00
 96.07     669.00      25.87
 96.17     714.00      26.72
 96.27     663.00      25.75
 96.37     701.00      26.48
 96.47     810.00      28.46
 96.57     861.62      29.35
 96.67     937.00      30.61
 96.77    1018.00      31.91
 96.87    1005.36      31.71
 96.97    1209.58      34.78
 97.07    1271.00      35.65
 97.17    1248.00      35.33
 97.27    1374.14      37.07
 97.37    1460.00      38.21
 97.47    1438.00      37.92
 97.57    1454.67      38.14
 97.67    1372.94      37.05
 97.77    1351.17      36.76
 97.87    1344.00      36.66
 97.97    1353.11      36.78
 98.07    1171.88      34.23
 98.17    1189.00      34.48
 98.27    1059.09      32.54
 98.37    1063.00      32.60
 98.47    1022.00      31.97
 98.57     871.58      29.52
 98.67     820.00      28.64
 98.77     810.00      28.46
 98.87     808.00      28.43
 98.97     801.00      28.30
 99.07     871.43      29.52
 99.17     835.08      28.90
 99.27     895.00      29.92
 99.37     883.88      29.73
 99.47     970.40      31.15
 99.57    1113.28      33.37
 99.67    1220.00      34.93
 99.77    1321.00      36.35
 99.87    1434.00      37.87
 99.97    1483.47      38.52
100.07    1686.00      41.06
100.17    1767.00      42.04
100.27    1777.04      42.15
100.37    2016.36      44.90
100.47    2057.00      45.35
100.57    2050.00      45.28
100.67    2109.00      45.92
100.77    2089.00      45.71
100.87    2151.38      46.38
100.97    1998.26      44.70
101.07    2047.31      45.25
101.17    1946.98      44.12
101.27    1864.05      43.17
101.37    1648.29      40.60
101.47    1576.00      39.70
101.57    1544.38      39.30
101.67    1462.00      38.24
101.77    1353.00      36.78
101.87    1307.00      36.15
101.97    1266.00      35.58
102.07    1155.00      33.99
102.17    1235.58      35.15
102.27    1111.00      33.33
102.37    1077.83      32.83
102.47    1075.00      32.79
102.57    1056.00      32.50
102.67    1019.00      31.92
102.77     969.00      31.13
102.87    1042.47      32.29
102.97     960.00      30.98
103.07     909.22      30.15
103.17     915.52      30.26
103.27     863.00      29.38
103.37     777.50      27.88
103.47     795.00      28.20
103.57     769.00      27.73
103.67     686.00      26.19
103.77     713.00      26.70
103.87     605.14      24.60
103.97     607.00      24.64
104.07     601.89      24.53
104.17     566.76      23.81
104.27     579.00      24.06
104.37     603.09      24.56
104.47     566.39      23.80
104.57     517.41      22.75
104.67     505.16      22.48
104.77     523.92      22.89
104.87     544.47      23.33
104.97     555.00      23.56
105.07     520.38      22.81
105.17     549.00      23.43
105.27     529.00      23.00
105.37     536.00      23.15
105.47     535.36      23.14
105.57     541.00      23.26
105.67     532.02      23.07
105.77     519.48      22.79
105.87     591.99      24.33
105.97     587.00      24.23
106.07     613.37      24.77
106.17     548.00      23.41
106.27     632.32      25.15
106.37     599.00      24.47
106.47     603.00      24.56
106.57     614.00      24.78
106.67     643.00      25.36
106.77     663.00      25.75
106.87     644.00      25.38
106.97     639.91      25.30
107.07     643.00      25.36
107.17     680.57      26.09
107.27     648.91      25.47
107.37     664.00      25.77
107.47     680.87      26.09
107.57     712.25      26.69
107.67     681.00      26.10
107.77     709.00      26.63
107.87     662.00      25.73
107.97     648.00      25.46
108.07     662.14      25.73
108.17     668.00      25.85
108.27     694.00      26.34
108.37     648.00      25.46
108.47     709.00      26.63
108.57     700.00      26.46
108.67     705.00      26.55
108.77     696.00      26.38
108.87     732.98      27.07
108.97     717.00      26.78
109.07     669.00      25.87
109.17     632.42      25.15
109.27     665.00      25.79
109.37     661.89      25.73
109.47     665.00      25.79
109.57     632.00      25.14
109.67     629.00      25.08
109.77     643.15      25.36
109.87     596.00      24.41
109.97     614.99      24.80
110.07     567.01      23.81
110.17     568.02      23.83
110.27     589.92      24.29
110.37     569.73      23.87
110.47     527.14      22.96
110.57     578.00      24.04
110.67     559.00      23.64
110.77     551.00      23.47
110.87     547.00      23.39
110.97     584.39      24.17
111.07     579.62      24.08
111.17     517.05      22.74
111.27     517.59      22.75
111.37     571.14      23.90
111.47     560.00      23.66
111.57     507.00      22.52
111.67     584.35      24.17
111.77     537.01      23.17
111.87     529.97      23.02
111.97     529.16      23.00
112.07     634.00      25.18
112.17     561.28      23.69
112.27     551.00      23.47
112.37     546.27      23.37
112.47     570.00      23.87
112.57     638.00      25.26
112.67     612.00      24.74
112.77     595.00      24.39
112.87     612.28      24.74
112.97     660.00      25.69
113.07     709.71      26.64
113.17     699.00      26.44
113.27     715.00      26.74
113.37     692.00      26.31
113.47     785.71      28.03
113.57     776.00      27.86
113.67     781.55      27.96
113.77     872.00      29.53
113.87     915.00      30.25
113.97     963.00      31.03
114.07     984.30      31.37
114.17    1059.00      32.54
114.27    1138.19      33.74
114.37    1179.00      34.34
114.47    1355.00      36.81
114.57    1367.00      36.97
114.67    1542.09      39.27
114.77    1675.00      40.93
114.87    1817.00      42.63
114.97    2146.00      46.32
115.07    2300.48      47.96
115.17    2576.00      50.75
115.27    2801.00      52.92
115.37    3175.00      56.35
115.47    3505.85      59.21
115.57    3774.00      61.43
115.67    4079.00      63.87
115.77    4309.00      65.64
115.87    4848.00      69.63
115.97    5191.00      72.05
116.07    5545.00      74.46
116.17    6184.63      78.64
116.27    6343.00      79.64
116.37    6714.00      81.94
116.47    6785.00      82.37
116.57    7029.00      83.84
116.67    6991.00      83.61
116.77    7013.00      83.74
116.87    6877.14      82.93
116.97    6699.00      81.85
117.07    6418.00      80.11
117.17    6106.00      78.14
117.27    5743.00      75.78
117.37    5311.00      72.88
117.47    4920.00      70.14
117.57    4619.00      67.96
117.67    4310.00      65.65
117.77    4005.00      63.29
117.87    3590.46      59.92
117.97    3258.00      57.08
118.07    2853.36      53.42
118.17    2474.86      49.75
118.27    2149.47      46.36
118.37    2000.00      44.72
118.47    1743.29      41.75
118.57    1642.96      40.53
118.67    1357.00      36.84
118.77    1251.00      35.37
118.87    1124.00      33.53
118.97    1027.95      32.06
119.07     966.79      31.09
119.17     939.17      30.65
119.27     796.00      28.21
119.37     792.00      28.14
119.47     691.00      26.29
119.57     675.00      25.98
119.67     687.00      26.21
119.77     635.00      25.20
119.87     644.43      25.39
119.97     636.00      25.22
120.07     617.00      24.84
120.17     594.00      24.37
120.27     597.94      24.45
120.37     640.00      25.30
120.47     532.00      23.07
120.57     615.00      24.80
120.67     558.80      23.64
120.77     537.00      23.17
120.87     545.00      23.35
120.97     599.47      24.48
121.07     586.00      24.21
121.17     562.00      23.71
121.27     582.00      24.12
121.37     562.00      23.71
121.47     603.00      24.56
121.57     538.57      23.21
121.67     558.00      23.62
121.77     570.98      23.90
121.87     553.30      23.52
121.97     580.00      24.08
122.07     609.00      24.68
122.17     609.00      24.68
122.27     612.00      24.74
122.37     630.00      25.10
122.47     620.00      24.90
122.57     666.00      25.81
122.67     659.00      25.67
122.77     627.13      25.04
122.87     590.29      24.30
122.97     628.00      25.06
123.07     634.00      25.18
123.17     665.00      25.79
123.27     638.00      25.26
123.37     666.00      25.81
123.47     656.00      25.61
123.57     610.00      24.70
123.67     633.00      25.16
123.77     612.00      24.74
123.87     567.53      23.82
123.97     599.39      24.48
124.07     625.00      25.00
124.17     585.73      24.20
124.27     577.48      24.03
124.37     609.00      24.68
124.47     548.36      23.42
124.57     583.00      24.15
124.67     571.65      23.91
124.77     577.00      24.02
124.87     570.37      23.88
124.97     628.00      25.06
