  9.97     601.00      24.52
 10.07     613.00      24.76
 10.17     606.75      24.63
 10.27     633.00      25.16
 10.37     587.00      24.23
 10.47     594.00      24.37
 10.57     602.00      24.54
 10.67     577.00      24.02
 10.77     607.00      24.64
 10.87     588.33      24.26
 10.97     581.00      24.10
 11.07     529.00      23.00
 11.17     567.68      23.83
 11.27     541.00      23.26
 11.37     608.00      24.66
 11.47     542.82      23.30
 11.57     601.00      24.52
 11.67     581.00      24.10
 11.77     614.00      24.78
 11.87     605.00      24.60
 11.97     668.71      25.86
 12.07     668.00      25.85
 12.17     709.00      26.63
 12.27     644.00      25.38
 12.37     632.37      25.15
 12.47     633.00      25.16
 12.57     560.70      23.68
 12.67     555.00      23.56
 12.77     580.00      24.08
 12.87     607.57      24.65
 12.97     535.67      23.14
 13.07     586.90      24.23
 13.17     562.85      23.72
 13.27     560.08      23.67
 13.37     566.21      23.80
 13.47     522.00      22.85
 13.57     556.87      23.60
 13.67     543.00      23.30
 13.77     608.88      24.68
 13.87     530.00      23.02
 13.97     539.00      23.22
 14.07     607.47      24.65
 14.17     557.00      23.60
 14.27     540.00      23.24
 14.37     527.00      22.96
 14.47     538.00      23.19
 14.57     587.00      24.23
 14.67     574.75      23.97
 14.77     602.35      24.54
 14.87     584.00      24.17
 14.97     526.00      22.93
 15.07     556.00      23.58
 15.17     603.79      24.57
 15.27     595.00      24.39
 15.37     574.44      23.97
 15.47     547.00      23.39
 15.57     567.44      23.82
 15.67     523.31      22.88
 15.77     579.00      24.06
 15.87     535.55      23.14
 15.97     578.58      24.05
 16.07     629.00      25.08
 16.17     553.70      23.53
 16.27     586.76      24.22
 16.37     599.00      24.47
 16.47     562.87      23.72
 16.57     566.00      23.79
 16.67     578.00      24.04
 16.77     609.00      24.68
 16.87     534.08      23.11
 16.97     540.00      23.24
 17.07     570.00      23.87
 17.17     574.00      23.96
 17.27     531.07      23.04
 17.37     525.76      22.93
 17.47     539.00      23.22
 17.57     520.00      22.80
 17.67     558.91      23.64
 17.77     546.38      23.37
 17.87     552.00      23.49
 17.97     578.00      24.04
 18.07     538.00      23.19
 18.17     557.68      23.62
 18.27     528.00      22.98
 18.37     575.00      23.98
 18.47     555.64      23.57
 18.57     552.00      23.49
 18.67     572.03      23.92
 18.77     523.51      22.88
 18.87     574.00      23.96
 18.97     604.00      24.58
 19.07     527.63      22.97
 19.17     565.54      23.78
 19.27     594.00      24.37
 19.37     540.00      23.24
 19.47     568.00      23.83
 19.57     559.00      23.64
 19.67     585.78      24.20
 19.77     597.69      24.45
 19.87     564.00      23.75
 19.97     550.00      23.45
 20.07     519.00      22.78
 20.17     583.61      24.16
 20.27     600.82      24.51
 20.37     534.03      23.11
 20.47     544.00      23.32
 20.57     568.00      23.83
 20.67     514.00      22.67
 20.77     548.00      23.41
 20.87     552.00      23.49
 20.97     574.00      23.96
 21.07     537.55      23.19
 21.17     569.00      23.85
 21.27     593.51      24.36
 21.37     533.00      23.09
 21.47     555.04      23.56
 21.57     588.92      24.27
 21.67     514.84      22.69
 21.77     549.00      23.43
 21.87     530.17      23.03
 21.97     566.00      23.79
 22.07     535.00      23.13
 22.17     547.41      23.40
 22.27     524.00      22.89
 22.37     566.74      23.81
 22.47     561.00      23.69
 22.57     562.56      23.72
 22.67     572.00      23.92
 22.77     546.00      23.37
 22.87     545.00      23.35
 22.97     553.00      23.52
 23.07     544.51      23.33
 23.17     557.43      23.61
 23.27     570.00      23.87
 23.37     517.91      22.76
 23.47     613.00      24.76
 23.57     578.00      24.04
 23.67     579.51      24.07
 23.77     523.91      22.89
 23.87     564.00      23.75
 23.97     565.11      23.77
 24.07     544.00      23.32
 24.17     511.88      22.62
 24.27     539.43      23.23
 24.37     577.00      24.02
 24.47     543.60      23.32
 24.57     593.00      24.35
 24.67     636.60      25.23
 24.77     630.00      25.10
 24.87     667.80      25.84
 24.97     582.42      24.13
 25.07     630.00      25.10
 25.17     564.00      23.75
 25.27     568.41      23.84
 25.37     513.00      22.65
 25.47     527.00      22.96
 25.57     517.00      22.74
 25.67     557.00      23.60
 25.77     559.00      23.64
 25.87     567.00      23.81
 25.97     573.00      23.94
 26.07     585.00      24.19
 26.17     544.00      23.32
 26.27     534.65      23.12
 26.37     528.00      22.98
 26.47     544.00      23.32
 26.57     563.00      23.73
 26.67     515.22      22.70
 26.77     567.00      23.81
 26.87     592.00      24.33
 26.97     576.02      24.00
 27.07     541.88      23.28
 27.17     600.00      24.49
 27.27     509.13      22.56
 27.37     541.27      23.27
 27.47     508.44      22.55
 27.57     569.00      23.85
 27.67     518.12      22.76
 27.77     547.00      23.39
 27.87     627.00      25.04
 27.97     684.00      26.15
 28.07     775.95      27.86
 28.17     860.45      29.33
 28.27     928.78      30.48
 28.37     849.46      29.15
 28.47     782.00      27.96
 28.57     723.00      26.89
 28.67     739.00      27.18
 28.77     770.22      27.75
 28.87     853.83      29.22
 28.97     827.00      28.76
 29.07     767.00      27.69
 29.17     727.00      26.96
 29.27     630.00      25.10
 29.37     620.00      24.90
 29.47     616.00      24.82
 29.57     606.00      24.62
 29.67     620.47      24.91
 29.77     602.15      24.54
 29.87     550.00      23.45
 29.97     538.00      23.19
 30.07     571.00      23.90
 30.17     584.43      24.18
 30.27     536.59      23.16
 30.37     562.00      23.71
 30.47     535.00      23.13
 30.57     542.00      23.28
 30.67     543.27      23.31
 30.77     607.00      24.64
 30.87     609.00      24.68
 30.97     572.49      23.93
 31.07     623.00      24.96
 31.17     566.17      23.79
 31.27     545.00      23.35
 31.37     585.00      24.19
 31.47     505.00      22.47
 31.57     566.00      23.79
 31.67     525.53      22.92
 31.77     545.00      23.35
 31.87     567.81      23.83
 31.97     500.29      22.37
 32.07     521.04      22.83
 32.17     574.00      23.96
 32.27     539.00      23.22
 32.37     562.31      23.71
 32.47     522.34      22.85
 32.57     518.47      22.77
 32.67     566.00      23.79
 32.77     568.00      23.83
 32.87     524.25      22.90
 32.97     538.00      23.19
 33.07     503.88      22.45
 33.17     558.76      23.64
 33.27     502.00      22.41
 33.37     560.00      23.66
 33.47     591.53      24.32
 33.57     579.11      24.06
 33.67     668.03      25.85
 33.77     703.16      26.52
 33.87     893.00      29.88
 33.97    1050.00      32.40
 34.07    1075.00      32.79
 34.17    1070.07      32.71
 34.27     881.67      29.69
 34.37     739.00      27.18
 34.47     642.00      25.34
 34.57     548.97      23.43
 34.67     586.34      24.21
 34.77     538.00      23.19
 34.87     566.00      23.79
 34.97     559.00      23.64
 35.07     538.00      23.19
 35.17     535.75      23.15
 35.27     552.00      23.49
 35.37     480.75      21.93
 35.47     482.00      21.95
 35.57     538.58      23.21
 35.67     499.00      22.34
 35.77     524.00      22.89
 35.87     517.00      22.74
 35.97     523.00      22.87
 36.07     516.00      22.72
 36.17     516.00      22.72
 36.27     477.00      21.84
 36.37     496.00      22.27
 36.47     505.00      22.47
 36.57     505.00      22.47
 36.67     520.74      22.82
 36.77     473.08      21.75
 36.87     515.00      22.69
 36.97     536.00      23.15
 37.07     525.05      22.91
 37.17     488.00      22.09
 37.27     541.00      23.26
 37.37     520.00      22.80
 37.47     498.00      22.32
 37.57     537.83      23.19
 37.67     562.84      23.72
 37.77     492.00      22.18
 37.87     555.45      23.57
 37.97     478.08      21.86
 38.07     522.00      22.85
 38.17     496.00      22.27
 38.27     500.13      22.36
 38.37     519.17      22.79
 38.47     495.00      22.25
 38.57     504.00      22.45
 38.67     507.41      22.53
 38.77     471.12      21.71
 38.87     513.00      22.65
 38.97     541.47      23.27
 39.07     537.33      23.18
 39.17     469.67      21.67
 39.27     528.22      22.98
 39.37     482.00      21.95
 39.47     519.00      22.78
 39.57     497.94      22.31
 39.67     489.00      22.11
 39.77     516.13      22.72
 39.87     531.07      23.04
 39.97     487.00      22.07
 40.07     528.88      23.00
 40.17     517.00      22.74
 40.27     476.00      21.82
 40.37     469.90      21.68
 40.47     475.00      21.79
 40.57     494.00      22.23
 40.67     463.00      21.52
 40.77     538.85      23.21
 40.87     478.00      21.86
 40.97     498.00      22.32
 41.07     516.00      22.72
 41.17     476.00      21.82
 41.27     475.68      21.81
 41.37     530.00      23.02
 41.47     535.68      23.14
 41.57     494.00      22.23
 41.67     466.92      21.61
 41.77     521.00      22.83
 41.87     541.43      23.27
 41.97     483.00      21.98
 42.07     528.40      22.99
 42.17     516.82      22.73
 42.27     502.21      22.41
 42.37     556.00      23.58
 42.47     612.88      24.76
 42.57     605.86      24.61
 42.67     636.00      25.22
 42.77     624.83      25.00
 42.87     612.00      24.74
 42.97     542.00      23.28
 43.07     523.00      22.87
 43.17     560.00      23.66
 43.27     523.00      22.87
 43.37     489.48      22.12
 43.47     502.00      22.41
 43.57     486.51      22.06
 43.67     544.98      23.34
 43.77     523.97      22.89
 43.87     518.00      22.76
 43.97     476.88      21.84
 44.07     469.26      21.66
 44.17     529.04      23.00
 44.27     483.00      21.98
 44.37     534.19      23.11
 44.47     500.00      22.36
 44.57     505.00      22.47
 44.67     504.00      22.45
 44.77     485.00      22.02
 44.87     468.77      21.65
 44.97     548.00      23.41
 45.07     497.00      22.29
 45.17     501.43      22.39
 45.27     528.00      22.98
 45.37     468.84      21.65
 45.47     510.00      22.58
 45.57     496.29      22.28
 45.67     492.00      22.18
 45.77     459.00      21.42
 45.87     537.00      23.17
 45.97     541.40      23.27
 46.07     506.00      22.49
 46.17     498.19      22.32
 46.27     506.00      22.49
 46.37     497.00      22.29
 46.47     491.00      22.16
 46.57     504.00      22.45
 46.67     466.00      21.59
 46.77     500.54      22.37
 46.87     499.00      22.34
 46.97     511.00      22.61
 47.07     531.00      23.04
 47.17     542.00      23.28
 47.27     512.00      22.63
 47.37     558.00      23.62
 47.47     565.00      23.77
 47.57     517.64      22.75
 47.67     537.00      23.17
 47.77     585.80      24.20
 47.87     586.00      24.21
 47.97     551.54      23.48
 48.07     617.11      24.84
 48.17     544.00      23.32
 48.27     563.00      23.73
 48.37     524.35      22.90
 48.47     491.44      22.17
 48.57     511.00      22.61
 48.67     560.00      23.66
 48.77     533.99      23.11
 48.87     559.53      23.65
 48.97     582.40      24.13
 49.07     530.96      23.04
 49.17     622.58      24.95
 49.27     633.83      25.18
 49.37     680.66      26.09
 49.47     728.41      26.99
 49.57     779.27      27.92
 49.67     889.00      29.82
 49.77    1109.00      33.30
 49.87    1496.77      38.69
 49.97    1858.18      43.11
 50.07    2214.00      47.05
 50.17    2501.00      50.01
 50.27    2512.00      50.12
 50.37    2237.00      47.30
 50.47    1892.00      43.50
 50.57    1403.00      37.46
 50.67    1064.60      32.63
 50.77     823.00      28.69
 50.87     768.10      27.71
 50.97     644.00      25.38
 51.07     659.45      25.68
 51.17     593.80      24.37
 51.27     573.42      23.95
 51.37     587.00      24.23
 51.47     579.00      24.06
 51.57     521.00      22.83
 51.67     557.00      23.60
 51.77     585.12      24.19
 51.87     519.00      22.78
 51.97     560.00      23.66
 52.07     542.62      23.29
 52.17     581.00      24.10
 52.27     556.00      23.58
 52.37     521.96      22.85
 52.47     580.00      24.08
 52.57     564.00      23.75
 52.67     513.76      22.67
 52.77     623.00      24.96
 52.87     645.00      25.40
 52.97     704.00      26.53
 53.07     785.00      28.02
 53.17     882.00      29.70
 53.27    1068.00      32.68
 53.37    1132.52      33.65
 53.47    1201.46      34.66
 53.57    1180.00      34.35
 53.67    1052.00      32.43
 53.77     930.00      30.50
 53.87     859.00      29.31
 53.97     720.26      26.84
 54.07     720.43      26.84
 54.17     652.00      25.53
 54.27     551.00      23.47
 54.37     576.83      24.02
 54.47     551.00      23.47
 54.57     511.00      22.61
 54.67     581.00      24.10
 54.77     529.32      23.01
 54.87     526.00      22.93
 54.97     536.00      23.15
 55.07     512.51      22.64
 55.17     587.58      24.24
 55.27     535.00      23.13
 55.37     537.00      23.17
 55.47     544.93      23.34
 55.57     575.00      23.98
 55.67     563.63      23.74
 55.77     582.00      24.12
 55.87     632.00      25.14
 55.97     650.98      25.51
 56.07     678.00      26.04
 56.17     721.00      26.85
 56.27     879.00      29.65
 56.37    1045.00      32.33
 56.47    1403.59      37.46
 56.57    1746.00      41.79
 56.67    2202.98      46.94
 56.77    2425.00      49.24
 56.87    2673.00      51.70
 56.97    2617.00      51.16
 57.07    2422.84      49.22
 57.17    2056.00      45.34
 57.27    1592.26      39.90
 57.37    1234.28      35.13
 57.47    1060.38      32.56
 57.57     877.00      29.61
 57.67     704.53      26.54
 57.77     676.69      26.01
 57.87     666.08      25.81
 57.97     643.14      25.36
 58.07     695.00      26.36
 58.17     695.00      26.36
 58.27     738.00      27.17
 58.37     866.55      29.44
 58.47     981.00      31.32
 58.57    1082.00      32.89
 58.67    1298.00      36.03
 58.77    1369.00      37.00
 58.87    1519.00      38.97
 58.97    1571.00      39.64
 59.07    1547.65      39.34
 59.17    1555.37      39.44
 59.27    1441.00      37.96
 59.37    1360.00      36.88
 59.47    1225.00      35.00
 59.57    1272.00      35.67
 59.67    1190.00      34.50
 59.77    1092.31      33.05
 59.87    1191.00      34.51
 59.97    1275.47      35.71
 60.07    1515.00      38.92
 60.17    1539.20      39.23
 60.27    1527.00      39.08
 60.37    1571.00      39.64
 60.47    1471.00      38.35
 60.57    1310.00      36.19
 60.67    1073.90      32.77
 60.77     883.16      29.72
 60.87     828.94      28.79
 60.97     717.52      26.79
 61.07     695.00      26.36
 61.17     635.00      25.20
 61.27     629.00      25.08
 61.37     629.57      25.09
 61.47     717.08      26.78
 61.57     715.60      26.75
 61.67     827.62      28.77
 61.77     922.00      30.36
 61.87    1117.00      33.42
 61.97    1241.00      35.23
 62.07    1334.59      36.53
 62.17    1429.00      37.80
 62.27    1369.00      37.00
 62.37    1361.00      36.89
 62.47    1218.00      34.90
 62.57    1051.22      32.42
 62.67     885.00      29.75
 62.77     784.00      28.00
 62.87     670.00      25.88
 62.97     667.00      25.83
 63.07     568.00      23.83
 63.17     574.00      23.96
 63.27     583.00      24.15
 63.37     575.00      23.98
 63.47     518.00      22.76
 63.57     547.47      23.40
 63.67     576.00      24.00
 63.77     553.76      23.53
 63.87     661.00      25.71
 63.97     639.00      25.28
 64.07     710.39      26.65
 64.17     777.17      27.88
 64.27     857.12      29.28
 64.37     906.50      30.11
 64.47     910.73      30.18
 64.57     994.00      31.53
 64.67    1028.00      32.06
 64.77    1010.00      31.78
 64.87     907.07      30.12
 64.97     917.00      30.28
 65.07     798.00      28.25
 65.17     833.03      28.86
 65.27     764.00      27.64
 65.37     729.00      27.00
 65.47     606.95      24.64
 65.57     608.62      24.67
 65.67     566.00      23.79
 65.77     616.00      24.82
 65.87     594.22      24.38
 65.97     533.63      23.10
 66.07     524.00      22.89
 66.17     532.94      23.09
 66.27     549.00      23.43
 66.37     521.00      22.83
 66.47     499.00      22.34
 66.57     537.00      23.17
 66.67     556.00      23.58
 66.77     569.99      23.87
 66.87     594.83      24.39
 66.97     615.00      24.80
 67.07     587.00      24.23
 67.17     687.00      26.21
 67.27     792.00      28.14
 67.37     875.00      29.58
 67.47     995.15      31.55
 67.57    1283.00      35.82
 67.67    1498.00      38.70
 67.77    1824.00      42.71
 67.87    1988.05      44.59
 67.97    2280.69      47.76
 68.07    2455.42      49.55
 68.17    2314.46      48.11
 68.27    2320.00      48.17
 68.37    2013.77      44.88
 68.47    1700.49      41.24
 68.57    1558.00      39.47
 68.67    1294.00      35.97
 68.77    1068.00      32.68
 68.87     854.00      29.22
 68.97     776.00      27.86
 69.07     711.00      26.66
 69.17     659.00      25.67
 69.27     631.00      25.12
 69.37     573.43      23.95
 69.47     561.00      23.69
 69.57     571.00      23.90
 69.67     598.00      24.45
 69.77     583.00      24.15
 69.87     523.19      22.87
 69.97     586.23      24.21
 70.07     563.00      23.73
 70.17     523.00      22.87
 70.27     572.00      23.92
 70.37     600.00      24.49
 70.47     538.00      23.19
 70.57     550.00      23.45
 70.67     584.00      24.17
 70.77     558.86      23.64
 70.87     606.00      24.62
 70.97     636.00      25.22
 71.07     719.93      26.83
 71.17     760.52      27.58
 71.27     887.00      29.78
 71.37     876.00      29.60
 71.47    1093.00      33.06
 71.57    1229.00      35.06
 71.67    1416.00      37.63
 71.77    1588.25      39.85
 71.87    1767.00      42.04
 71.97    1871.04      43.26
 72.07    1933.00      43.97
 72.17    1905.00      43.65
 72.27    1805.00      42.49
 72.37    1727.00      41.56
 72.47    1548.90      39.36
 72.57    1329.24      36.46
 72.67    1209.00      34.77
 72.77    1028.00      32.06
 72.87     957.57      30.94
 72.97     900.00      30.00
 73.07     828.00      28.77
 73.17     818.31      28.61
 73.27     675.00      25.98
 73.37     691.00      26.29
 73.47     632.00      25.14
 73.57     611.00      24.72
 73.67     650.00      25.50
 73.77     569.46      23.86
 73.87     554.73      23.55
 73.97     606.00      24.62
 74.07     572.00      23.92
 74.17     559.76      23.66
 74.27     649.00      25.48
 74.37     621.00      24.92
 74.47     593.00      24.35
 74.57     643.00      25.36
 74.67     540.28      23.24
 74.77     616.00      24.82
 74.87     642.00      25.34
 74.97     632.00      25.14
 75.07     587.82      24.25
 75.17     594.93      24.39
 75.27     572.00      23.92
 75.37     594.26      24.38
 75.47     523.00      22.87
 75.57     551.09      23.48
 75.67     519.28      22.79
 75.77     580.00      24.08
 75.87     578.00      24.04
 75.97     602.00      24.54
 76.07     620.00      24.90
 76.17     635.42      25.21
 76.27     645.00      25.40
 76.37     660.00      25.69
 76.47     738.39      27.17
 76.57     704.35      26.54
 76.67     722.78      26.88
 76.77     711.00      26.66
 76.87     660.00      25.69
 76.97     639.00      25.28
 77.07     603.00      24.56
 77.17     597.58      24.45
 77.27     616.00      24.82
 77.37     561.00      23.69
 77.47     521.00      22.83
 77.57     500.00      22.36
 77.67     540.00      23.24
 77.77     561.00      23.69
 77.87     561.93      23.71
 77.97     522.00      22.85
 78.07     558.00      23.62
 78.17     528.00      22.98
 78.27     555.00      23.56
 78.37     539.00      23.22
 78.47     545.00      23.35
 78.57     568.00      23.83
 78.67     513.00      22.65
 78.77     521.00      22.83
 78.87     538.00      23.19
 78.97     508.00      22.54
 79.07     552.00      23.49
 79.17     523.00      22.87
 79.27     502.00      22.41
 79.37     558.58      23.63
 79.47     559.13      23.65
 79.57     516.00      22.72
 79.67     526.00      22.93
 79.77     542.00      23.28
 79.87     546.00      23.37
 79.97     536.00      23.15
 80.07     552.00      23.49
 80.17     538.00      23.19
 80.27     571.00      23.90
 80.37     627.38      25.05
 80.47     605.00      24.60
 80.57     564.00      23.75
 80.67     609.00      24.68
 80.77     660.00      25.69
 80.87     633.14      25.16
 80.97     678.00      26.04
 81.07     692.00      26.31
 81.17     754.90      27.48
 81.27     752.00      27.42
 81.37     785.75      28.03
 81.47     785.00      28.02
 81.57     774.27      27.83
 81.67     738.00      27.17
 81.77     737.00      27.15
 81.87     665.68      25.80
 81.97     722.76      26.88
 82.07     660.00      25.69
 82.17     668.00      25.85
 82.27     590.94      24.31
 82.37     594.32      24.38
 82.47     605.00      24.60
 82.57     612.00      24.74
 82.67     573.23      23.94
 82.77     598.58      24.47
 82.87     574.45      23.97
 82.97     541.00      23.26
 83.07     546.00      23.37
 83.17     557.00      23.60
 83.27     552.12      23.50
 83.37     545.00      23.35
 83.47     586.00      24.21
 83.57     535.00      23.13
 83.67     565.60      23.78
 83.77     531.73      23.06
 83.87     561.91      23.70
 83.97     561.88      23.70
 84.07     541.77      23.28
 84.17     579.00      24.06
 84.27     548.00      23.41
 84.37     564.88      23.77
 84.47     557.00      23.60
 84.57     572.73      23.93
 84.67     543.32      23.31
 84.77     558.00      23.62
 84.87     533.00      23.09
 84.97     509.00      22.56
 85.07     552.00      23.49
 85.17     512.00      22.63
 85.27     537.00      23.17
 85.37     515.00      22.69
 85.47     461.00      21.47
 85.57     531.00      23.04
 85.67     573.40      23.95
 85.77     555.52      23.57
 85.87     516.00      22.72
 85.97     567.12      23.81
 86.07     555.00      23.56
 86.17     513.73      22.67
 86.27     517.00      22.74
 86.37     543.00      23.30
 86.47     547.00      23.39
 86.57     609.00      24.68
 86.67     606.00      24.62
 86.77     585.00      24.19
 86.87     551.99      23.49
 86.97     612.00      24.74
 87.07     586.00      24.21
 87.17     622.00      24.94
 87.27     645.86      25.41
 87.37     621.00      24.92
 87.47     607.34      24.64
 87.57     640.00      25.30
 87.67     684.00      26.15
 87.77     631.00      25.12
 87.87     630.00      25.10
 87.97     651.00      25.51
 88.07     593.00      24.35
 88.17     619.00      24.88
 88.27     607.00      24.64
 88.37     539.10      23.22
 88.47     606.00      24.62
 88.57     556.00      23.58
 88.67     590.96      24.31
 88.77     565.25      23.78
 88.87     602.00      24.54
 88.97     614.00      24.78
 89.07     624.00      24.98
 89.17     579.00      24.06
 89.27     616.00      24.82
 89.37     580.46      24.09
 89.47     634.88      25.20
 89.57     576.11      24.00
 89.67     586.29      24.21
 89.77     557.72      23.62
 89.87     611.00      24.72
 89.97     524.00      22.89
 90.07     594.14      24.37
 90.17     499.00      22.34
 90.27     546.00      23.37
 90.37     521.00      22.83
 90.47     535.00      23.13
 90.57     516.00      22.72
 90.67     512.08      22.63
 90.77     575.32      23.99
 90.87     508.22      22.54
 90.97     526.00      22.93
 91.07     520.00      22.80
 91.17     553.00      23.52
 91.27     529.58      23.01
 91.37     498.18      22.32
 91.47     564.57      23.76
 91.57     502.00      22.41
 91.67     519.00      22.78
 91.77     568.22      23.84
 91.87     521.42      22.83
 91.97     576.54      24.01
 92.07     563.00      23.73
 92.17     577.66      24.03
 92.27     590.00      24.29
 92.37     618.24      24.86
 92.47     598.55      24.47
 92.57     667.00      25.83
 92.67     653.00      25.55
 92.77     729.13      27.00
 92.87     729.00      27.00
 92.97     773.00      27.80
 93.07     741.82      27.24
 93.17     809.00      28.44
 93.27     762.00      27.60
 93.37     754.56      27.47
 93.47     844.00      29.05
 93.57     849.00      29.14
 93.67     810.00      28.46
 93.77     853.42      29.21
 93.87     829.62      28.80
 93.97     834.00      28.88
 94.07     863.00      29.38
 94.17     866.00      29.43
 94.27     889.00      29.82
 94.37     905.00      30.08
 94.47     892.00      29.87
 94.57     949.00      30.81
 94.67     928.00      30.46
 94.77     883.35      29.72
 94.87     890.28      29.84
 94.97     918.39      30.30
 95.07     842.59      29.03
 95.17     834.01      28.88
 95.27     832.00      28.84
 95.37     812.00      28.50
 95.47     747.00      27.33
 95.57     746.00      27.31
 95.67     759.93      27.57
 95.77     717.00      26.78
 95.87     708.00      26.61
 95.97     645.00      25.40
 96.07     684.00      26.15
 96.17     710.00      26.65
 96.27     771.82      27.78
 96.37     783.02      27.98
 96.47     854.32      29.23
 96.57     844.00      29.05
 96.67     901.19      30.02
 96.77     939.00      30.64
 96.87    1063.00      32.60
 96.97    1171.94      34.23
 97.07    1207.00      34.74
 97.17    1312.00      36.22
 97.27    1360.00      36.88
 97.37    1431.00      37.83
 97.47    1473.00      38.38
 97.57    1428.63      37.80
 97.67    1354.12      36.80
 97.77    1463.23      38.25
 97.87    1325.00      36.40
 97.97    1332.00      36.50
 98.07    1285.00      35.85
 98.17    1141.00      33.78
 98.27    1086.00      32.95
 98.37    1053.00      32.45
 98.47     944.00      30.72
 98.57     909.43      30.16
 98.67     852.00      29.19
 98.77     797.00      28.23
 98.87     794.00      28.18
 98.97     810.00      28.46
 99.07     801.00      28.30
 99.17     786.00      28.04
 99.27     838.00      28.95
 99.37     929.00      30.48
 99.47    1077.00      32.82
 99.57    1123.00      33.51
 99.67    1161.00      34.07
 99.77    1307.72      36.16
 99.87    1402.78      37.45
 99.97    1528.00      39.09
100.07    1581.55      39.77
100.17    1763.00      41.99
100.27    1787.39      42.28
100.37    1953.00      44.19
100.47    2060.00      45.39
100.57    2043.90      45.21
100.67    2111.00      45.95
100.77    2159.70      46.47
100.87    2053.61      45.32
100.97    2078.00      45.59
101.07    2036.00      45.12
101.17    1958.00      44.25
101.27    1759.63      41.95
101.37    1756.00      41.90
101.47    1548.00      39.34
101.57    1531.00      39.13
101.67    1402.00      37.44
101.77    1398.53      37.40
101.87    1273.90      35.69
101.97    1227.00      35.03
102.07    1219.00      34.91
102.17    1185.00      34.42
102.27    1085.91      32.95
102.37    1079.00      32.85
102.47    1100.00      33.17
102.57    1050.00      32.40
102.67     996.90      31.57
102.77    1040.00      32.25
102.87     953.00      30.87
102.97     960.00      30.98
103.07     939.84      30.66
103.17     908.54      30.14
103.27     878.00      29.63
103.37     788.00      28.07
103.47     790.00      28.11
103.57     766.05      27.68
103.67     724.00      26.91
103.77     626.00      25.02
103.87     644.23      25.38
103.97     649.00      25.48
104.07     579.43      24.07
104.17     614.00      24.78
104.27     568.00      23.83
104.37     538.77      23.21
104.47     558.00      23.62
104.57     573.48      23.95
104.67     554.00      23.54
104.77     538.00      23.19
104.87     596.00      24.41
104.97     571.00      23.90
105.07     553.00      23.52
105.17     544.00      23.32
105.27     563.00      23.73
105.37     527.00      22.96
105.47     547.74      23.40
105.57     550.00      23.45
105.67     572.57      23.93
105.77     528.14      22.98
105.87     529.00      23.00
105.97     548.00      23.41
106.07     557.22      23.61
106.17     549.42      23.44
106.27     597.00      24.43
106.37     575.57      23.99
106.47     650.00      25.50
106.57     593.00      24.35
106.67     681.21      26.10
106.77     574.00      23.96
106.87     699.70      26.45
106.97     719.00      26.81
107.07     630.00      25.10
107.17     683.26      26.14
107.27     643.00      25.36
107.37     654.00      25.57
107.47     695.00      26.36
107.57     717.00      26.78
107.67     656.00      25.61
107.77     672.00      25.92
107.87     663.00      25.75
107.97     678.55      26.05
108.07     718.63      26.81
108.17     696.99      26.40
108.27     706.52      26.58
108.37     708.00      26.61
108.47     686.00      26.19
108.57     695.00      26.36
108.67     705.00      26.55
108.77     713.61      26.71
108.87     729.00      27.00
108.97     706.00      26.57
109.07     644.00      25.38
109.17     664.00      25.77
109.27     626.00      25.02
109.37     619.00      24.88
109.47     562.00      23.71
109.57     598.00      24.45
109.67     586.00      24.21
109.77     593.00      24.35
109.87     609.00      24.68
109.97     591.17      24.31
110.07     571.32      23.90
110.17     581.21      24.11
110.27     598.00      24.45
110.37     578.00      24.04
110.47     565.39      23.78
110.57     550.00      23.45
110.67     585.00      24.19
110.77     529.00      23.00
110.87     522.00      22.85
110.97     566.73      23.81
111.07     591.00      24.31
111.17     516.00      22.72
111.27     527.00      22.96
111.37     498.35      22.32
111.47     562.55      23.72
111.57     571.00      23.90
111.67     574.64      23.97
111.77     540.00      23.24
111.87     589.49      24.28
111.97     573.00      23.94
112.07     560.58      23.68
112.17     601.95      24.53
112.27     616.00      24.82
112.37     570.00      23.87
112.47     591.63      24.32
112.57     618.00      24.86
112.67     604.00      24.58
112.77     628.00      25.06
112.87     608.38      24.67
112.97     608.00      24.66
113.07     710.00      26.65
113.17     729.49      27.01
113.27     683.00      26.13
113.37     746.00      27.31
113.47     786.00      28.04
113.57     841.00      29.00
113.67     878.00      29.63
113.77     939.00      30.64
113.87     918.30      30.30
113.97     984.00      31.37
114.07     957.00      30.94
114.17    1112.00      33.35
114.27    1112.00      33.35
114.37    1264.46      35.56
114.47    1426.00      37.76
114.57    1451.00      38.09
114.67    1556.00      39.45
114.77    1685.68      41.06
114.87    1926.75      43.89
114.97    2002.61      44.75
115.07    2190.66      46.80
115.17    2515.76      50.16
115.27    2805.00      52.96
115.37    3186.57      56.45
115.47    3352.16      57.90
115.57    3689.00      60.74
115.67    4259.36      65.26
115.77    4350.00      65.95
115.87    4750.00      68.92
115.97    5287.77      72.72
116.07    5583.00      74.72
116.17    5950.00      77.14
116.27    6465.90      80.41
116.37    6680.19      81.73
116.47    6690.00      81.79
116.57    6929.00      83.24
116.67    6975.00      83.52
116.77    6831.07      82.65
116.87    6955.00      83.40
116.97    6633.00      81.44
117.07    6408.00      80.05
117.17    6212.00      78.82
117.27    5644.00      75.13
117.37    5228.00      72.30
117.47    5061.00      71.14
117.57    4616.00      67.94
117.67    4287.00      65.48
117.77    3976.00      63.06
117.87    3480.97      59.00
117.97    3344.00      57.83
118.07    2944.00      54.26
118.17    2567.00      50.67
118.27    2272.68      47.67
118.37    2023.00      44.98
118.47    1807.00      42.51
118.57    1552.00      39.40
118.67    1422.66      37.72
118.77    1230.90      35.08
118.87    1080.00      32.86
118.97     991.00      31.48
119.07     953.00      30.87
119.17     942.53      30.70
119.27     848.45      29.13
119.37     817.39      28.59
119.47     757.00      27.51
119.57     709.15      26.63
119.67     675.71      25.99
119.77     639.00      25.28
119.87     643.00      25.36
119.97     638.00      25.26
120.07     642.61      25.35
120.17     581.00      24.10
120.27     561.23      23.69
120.37     614.00      24.78
120.47     560.00      23.66
120.57     596.00      24.41
120.67     607.42      24.65
120.77     555.48      23.57
120.87     579.00      24.06
120.97     605.00      24.60
121.07     577.00      24.02
121.17     560.77      23.68
121.27     558.00      23.62
121.37     582.01      24.12
121.47     587.00      24.23
121.57     581.00      24.10
121.67     566.00      23.79
121.77     569.60      23.87
121.87     590.00      24.29
121.97     615.00      24.80
122.07     631.00      25.12
122.17     612.00      24.74
122.27     664.00      25.77
122.37     587.00      24.23
122.47     579.74      24.08
122.57     596.00      24.41
122.67     620.00      24.90
122.77     632.00      25.14
122.87     643.00      25.36
122.97     627.00      25.04
123.07     612.00      24.74
123.17     645.00      25.40
123.27     666.22      25.81
123.37     602.20      24.54
123.47     637.00      25.24
123.57     611.00      24.72
123.67     688.00      26.23
123.77     598.00      24.45
123.87     650.06      25.50
123.97     653.00      25.55
124.07     601.00      24.52
124.17     617.00      24.84
124.27     603.00      24.56
124.37     640.00      25.30
124.47     632.00      25.14
124.57     584.00      24.17
124.67     580.91      24.10
124.77     614.94      24.80
124.87     601.00      24.52
124.97     600.00      24.49
