  9.97     684.00      26.15
 10.07     623.01      24.96
 10.17     621.04      24.92
 10.27     614.93      24.80
 10.37     640.00      25.30
 10.47     683.23      26.14
 10.57     687.00      26.21
 10.67     646.00      25.42
 10.77     716.00      26.76
 10.87     693.30      26.33
 10.97     627.00      25.04
 11.07     676.00      26.00
 11.17     653.00      25.55
 11.27     678.00      26.04
 11.37     689.00      26.25
 11.47     694.00      26.34
 11.57     724.00      26.91
 11.67     695.00      26.36
 11.77     741.00      27.22
 11.87     702.33      26.50
 11.97     752.00      27.42
 12.07     794.00      28.18
 12.17     814.00      28.53
 12.27     748.00      27.35
 12.37     768.00      27.71
 12.47     737.00      27.15
 12.57     719.00      26.81
 12.67     624.00      24.98
 12.77     642.00      25.34
 12.87     679.00      26.06
 12.97     681.32      26.10
 13.07     644.47      25.39
 13.17     619.00      24.88
 13.27     603.51      24.57
 13.37     624.00      24.98
 13.47     616.00      24.82
 13.57     640.00      25.30
 13.67     600.81      24.51
 13.77     656.10      25.61
 13.87     637.94      25.26
 13.97     596.00      24.41
 14.07     628.00      25.06
 14.17     607.00      24.64
 14.27     610.60      24.71
 14.37     594.00      24.37
 14.47     642.00      25.34
 14.57     681.73      26.11
 14.67     606.00      24.62
 14.77     595.00      24.39
 14.87     614.00      24.78
 14.97     631.05      25.12
 15.07     603.00      24.56
 15.17     677.00      26.02
 15.27     626.00      25.02
 15.37     672.00      25.92
 15.47     651.00      25.51
 15.57     673.20      25.95
 15.67     619.22      24.88
 15.77     645.12      25.40
 15.87     632.26      25.14
 15.97     571.00      23.90
 16.07     646.59      25.43
 16.17     588.00      24.25
 16.27     587.00      24.23
 16.37     637.00      25.24
 16.47     618.00      24.86
 16.57     576.00      24.00
 16.67     612.00      24.74
 16.77     583.00      24.15
 16.87     614.74      24.79
 16.97     605.00      24.60
 17.07     565.00      23.77
 17.17     632.72      25.15
 17.27     595.20      24.40
 17.37     584.00      24.17
 17.47     627.00      25.04
 17.57     585.69      24.20
 17.67     591.00      24.31
 17.77     606.00      24.62
 17.87     581.00      24.10
 17.97     600.00      24.49
 18.07     558.00      23.62
 18.17     661.00      25.71
 18.27     573.00      23.94
 18.37     592.30      24.34
 18.47     609.00      24.68
 18.57     575.00      23.98
 18.67     658.00      25.65
 18.77     613.00      24.76
 18.87     650.24      25.50
 18.97     661.51      25.72
 19.07     649.46      25.48
 19.17     646.87      25.43
 19.27     583.00      24.15
 19.37     570.82      23.89
 19.47     628.00      25.06
 19.57     599.00      24.47
 19.67     578.41      24.05
 19.77     570.00      23.87
 19.87     629.58      25.09
 19.97     641.00      25.32
 20.07     556.00      23.58
 20.17     612.92      24.76
 20.27     614.00      24.78
 20.37     628.00      25.06
 20.47     608.00      24.66
 20.57     574.00      23.96
 20.67     564.00      23.75
 20.77     644.20      25.38
 20.87     583.00      24.15
 20.97     642.16      25.34
 21.07     563.00      23.73
 21.17     564.00      23.75
 21.27     578.00      24.04
 21.37     584.00      24.17
 21.47     619.00      24.88
 21.57     590.41      24.30
 21.67     572.04      23.92
 21.77     584.67      24.18
 21.87     605.00      24.60
 21.97     628.17      25.06
 22.07     609.00      24.68
 22.17     552.83      23.51
 22.27     572.00      23.92
 22.37     648.90      25.47
 22.47     551.39      23.48
 22.57     590.51      24.30
 22.67     603.00      24.56
 22.77     597.00      24.43
 22.87     586.00      24.21
 22.97     579.00      24.06
 23.07     632.00      25.14
 23.17     577.15      24.02
 23.27     638.00      25.26
 23.37     604.00      24.58
 23.47     584.00      24.17
 23.57     582.96      24.14
 23.67     622.18      24.94
 23.77     598.00      24.45
 23.87     607.00      24.64
 23.97     579.93      24.08
 24.07     639.24      25.28
 24.17     576.00      24.00
 24.27     582.00      24.12
 24.37     641.80      25.33
 24.47     644.23      25.38
 24.57     635.79      25.21
 24.67     674.00      25.96
 24.77     618.00      24.86
 24.87     685.00      26.17
 24.97     708.00      26.61
 25.07     704.96      26.55
 25.17     686.03      26.19
 25.27     645.00      25.40
 25.37     701.00      26.48
 25.47     651.00      25.51
 25.57     602.00      24.54
 25.67     582.00      24.12
 25.77     651.00      25.51
 25.87     648.00      25.46
 25.97     608.00      24.66
 26.07     639.00      25.28
 26.17     675.00      25.98
 26.27     635.00      25.20
 26.37     625.00      25.00
 26.47     605.09      24.60
 26.57     632.00      25.14
 26.67     595.00      24.39
 26.77     569.48      23.86
 26.87     660.00      25.69
 26.97     628.00      25.06
 27.07     662.00      25.73
 27.17     636.83      25.24
 27.27     700.00      26.46
 27.37     709.33      26.63
 27.47     621.95      24.94
 27.57     663.51      25.76
 27.67     725.84      26.94
 27.77     841.00      29.00
 27.87     859.27      29.31
 27.97    1106.00      33.26
 28.07    1651.95      40.64
 28.17    2381.90      48.80
 28.27    3084.45      55.54
 28.37    3751.22      61.25
 28.47    3660.00      60.50
 28.57    3030.00      55.05
 28.67    2317.96      48.15
 28.77    1945.17      44.10
 28.87    1912.00      43.73
 28.97    2106.00      45.89
 29.07    2175.25      46.64
 29.17    2231.16      47.24
 29.27    1823.63      42.70
 29.37    1503.64      38.78
 29.47    1148.00      33.88
 29.57     927.00      30.45
 29.67     790.00      28.11
 29.77     697.67      26.41
 29.87     656.25      25.62
 29.97     750.00      27.39
 30.07     613.35      24.77
 30.17     683.00      26.13
 30.27     588.17      24.25
 30.37     682.00      26.12
 30.47     659.00      25.67
 30.57     658.00      25.65
 30.67     687.00      26.21
 30.77     651.00      25.51
 30.87     644.00      25.38
 30.97     698.00      26.42
 31.07     697.49      26.41
 31.17     733.80      27.09
 31.27     729.46      27.01
 31.37     690.00      26.27
 31.47     695.00      26.36
 31.57     619.00      24.88
 31.67     589.66      24.28
 31.77     639.00      25.28
 31.87     622.61      24.95
 31.97     647.00      25.44
 32.07     572.00      23.92
 32.17     596.00      24.41
 32.27     595.00      24.39
 32.37     562.36      23.71
 32.47     582.69      24.14
 32.57     601.00      24.52
 32.67     655.00      25.59
 32.77     602.20      24.54
 32.87     567.00      23.81
 32.97     648.00      25.46
 33.07     600.00      24.49
 33.17     618.00      24.86
 33.27     573.00      23.94
 33.37     549.32      23.44
 33.47     561.63      23.70
 33.57     628.97      25.08
 33.67     590.31      24.30
 33.77     672.00      25.92
 33.87     699.24      26.44
 33.97     871.00      29.51
 34.07     956.00      30.92
 34.17    1006.83      31.73
 34.27    1058.00      32.53
 34.37    1034.00      32.16
 34.47     919.00      30.32
 34.57     855.14      29.24
 34.67     772.65      27.80
 34.77     640.00      25.30
 34.87     627.00      25.04
 34.97     623.00      24.96
 35.07     640.12      25.30
 35.17     612.00      24.74
 35.27     595.00      24.39
 35.37     559.10      23.65
 35.47     562.03      23.71
 35.57     604.08      24.58
 35.67     548.45      23.42
 35.77     513.00      22.65
 35.87     581.00      24.10
 35.97     529.00      23.00
 36.07     578.00      24.04
 36.17     545.00      23.35
 36.27     567.00      23.81
 36.37     555.35      23.57
 36.47     531.33      23.05
 36.57     552.00      23.49
 36.67     550.00      23.45
 36.77     538.00      23.19
 36.87     537.00      23.17
 36.97     513.84      22.67
 37.07     598.55      24.47
 37.17     590.21      24.29
 37.27     581.00      24.10
 37.37     523.00      22.87
 37.47     557.00      23.60
 37.57     534.00      23.11
 37.67     551.00      23.47
 37.77     553.91      23.54
 37.87     599.84      24.49
 37.97     569.37      23.86
 38.07     614.00      24.78
 38.17     618.00      24.86
 38.27     679.43      26.07
 38.37     675.22      25.99
 38.47     589.00      24.27
 38.57     588.00      24.25
 38.67     563.09      23.73
 38.77     604.74      24.59
 38.87     552.00      23.49
 38.97     557.00      23.60
 39.07     537.00      23.17
 39.17     585.96      24.21
 39.27     554.00      23.54
 39.37     522.00      22.85
 39.47     547.60      23.40
 39.57     546.06      23.37
 39.67     514.32      22.68
 39.77     613.00      24.76
 39.87     506.89      22.51
 39.97     545.00      23.35
 40.07     512.00      22.63
 40.17     522.00      22.85
 40.27     567.77      23.83
 40.37     524.00      22.89
 40.47     592.36      24.34
 40.57     573.00      23.94
 40.67     495.00      22.25
 40.77     589.95      24.29
 40.87     540.75      23.25
 40.97     537.38      23.18
 41.07     525.94      22.93
 41.17     565.00      23.77
 41.27     512.09      22.63
 41.37     521.22      22.83
 41.47     549.00      23.43
 41.57     590.69      24.30
 41.67     541.00      23.26
 41.77     522.93      22.87
 41.87     544.61      23.34
 41.97     479.00      21.89
 42.07     573.00      23.94
 42.17     510.07      22.58
 42.27     599.16      24.48
 42.37     557.39      23.61
 42.47     622.83      24.96
 42.57     571.78      23.91
 42.67     607.00      24.64
 42.77     593.00      24.35
 42.87     588.00      24.25
 42.97     620.00      24.90
 43.07     615.00      24.80
 43.17     639.00      25.28
 43.27     582.00      24.12
 43.37     560.00      23.66
 43.47     581.00      24.10
 43.57     530.00      23.02
 43.67     570.00      23.87
 43.77     569.88      23.87
 43.87     569.00      23.85
 43.97     515.00      22.69
 44.07     548.00      23.41
 44.17     577.00      24.02
 44.27     544.00      23.32
 44.37     572.00      23.92
 44.47     587.90      24.25
 44.57     501.00      22.38
 44.67     523.21      22.87
 44.77     583.57      24.16
 44.87     558.00      23.62
 44.97     533.00      23.09
 45.07     527.99      22.98
 45.17     535.00      23.13
 45.27     565.00      23.77
 45.37     552.00      23.49
 45.47     570.00      23.87
 45.57     565.00      23.77
 45.67     591.00      24.31
 45.77     608.00      24.66
 45.87     512.00      22.63
 45.97     501.01      22.38
 46.07     584.14      24.17
 46.17     568.00      23.83
 46.27     570.74      23.89
 46.37     584.25      24.17
 46.47     566.00      23.79
 46.57     516.00      22.72
 46.67     593.82      24.37
 46.77     532.08      23.07
 46.87     560.00      23.66
 46.97     532.00      23.07
 47.07     553.00      23.52
 47.17     572.00      23.92
 47.27     550.00      23.45
 47.37     577.00      24.02
 47.47     577.03      24.02
 47.57     614.00      24.78
 47.67     539.00      23.22
 47.77     554.38      23.55
 47.87     600.34      24.50
 47.97     634.00      25.18
 48.07     613.68      24.77
 48.17     604.30      24.58
 48.27     652.00      25.53
 48.37     629.00      25.08
 48.47     590.00      24.29
 48.57     623.00      24.96
 48.67     550.49      23.46
 48.77     561.52      23.70
 48.87     636.54      25.23
 48.97     581.74      24.12
 49.07     571.25      23.90
 49.17     582.00      24.12
 49.27     536.00      23.15
 49.37     577.00      24.02
 49.47     581.48      24.11
 49.57     680.99      26.10
 49.67     687.50      26.22
 49.77     776.00      27.86
 49.87     952.40      30.86
 49.97    1124.00      33.53
 50.07    1306.00      36.14
 50.17    1870.33      43.25
 50.27    2205.15      46.96
 50.37    2500.11      50.00
 50.47    2669.00      51.66
 50.57    2557.24      50.57
 50.67    2172.92      46.61
 50.77    1865.00      43.19
 50.87    1533.38      39.16
 50.97    1197.27      34.60
 51.07     913.00      30.22
 51.17     821.00      28.65
 51.27     745.00      27.29
 51.37     682.00      26.12
 51.47     720.00      26.83
 51.57     708.00      26.61
 51.67     693.00      26.32
 51.77     634.00      25.18
 51.87     613.00      24.76
 51.97     648.37      25.46
 52.07     577.11      24.02
 52.17     657.00      25.63
 52.27     645.00      25.40
 52.37     616.30      24.83
 52.47     642.44      25.35
 52.57     613.00      24.76
 52.67     614.00      24.78
 52.77     653.00      25.55
 52.87     568.96      23.85
 52.97     621.04      24.92
 53.07     709.32      26.63
 53.17     695.00      26.36
 53.27     710.32      26.65
 53.37     814.22      28.53
 53.47     948.00      30.79
 53.57    1084.00      32.92
 53.67    1187.00      34.45
 53.77    1179.16      34.34
 53.87    1263.00      35.54
 53.97    1123.00      33.51
 54.07    1089.35      33.01
 54.17     975.00      31.22
 54.27     873.31      29.55
 54.37     762.00      27.60
 54.47     757.95      27.53
 54.57     692.00      26.31
 54.67     626.51      25.03
 54.77     668.02      25.85
 54.87     650.00      25.50
 54.97     634.00      25.18
 55.07     617.00      24.84
 55.17     601.00      24.52
 55.27     632.05      25.14
 55.37     609.00      24.68
 55.47     642.17      25.34
 55.57     625.00      25.00
 55.67     635.00      25.20
 55.77     654.00      25.57
 55.87     626.00      25.02
 55.97     649.00      25.48
 56.07     659.78      25.69
 56.17     684.00      26.15
 56.27     718.00      26.80
 56.37     758.16      27.53
 56.47     902.00      30.03
 56.57    1013.00      31.83
 56.67    1338.86      36.59
 56.77    1528.99      39.10
 56.87    1804.74      42.48
 56.97    2173.00      46.62
 57.07    2373.21      48.72
 57.17    2599.00      50.98
 57.27    2584.07      50.83
 57.37    2434.00      49.34
 57.47    2152.63      46.40
 57.57    1701.00      41.24
 57.67    1404.49      37.48
 57.77    1248.62      35.34
 57.87    1009.69      31.78
 57.97     829.00      28.79
 58.07     773.11      27.80
 58.17     765.00      27.66
 58.27     793.28      28.17
 58.37     701.00      26.48
 58.47     828.01      28.78
 58.57     775.00      27.84
 58.67     879.00      29.65
 58.77     891.00      29.85
 58.87    1039.00      32.23
 58.97    1068.00      32.68
 59.07    1210.00      34.79
 59.17    1200.45      34.65
 59.27    1311.00      36.21
 59.37    1271.52      35.66
 59.47    1215.20      34.86
 59.57    1239.00      35.20
 59.67    1168.66      34.19
 59.77    1151.00      33.93
 59.87    1144.00      33.82
 59.97    1173.00      34.25
 60.07    1131.00      33.63
 60.17    1337.00      36.57
 60.27    1316.84      36.29
 60.37    1484.00      38.52
 60.47    1631.00      40.39
 60.57    1631.00      40.39
 60.67    1557.62      39.47
 60.77    1457.05      38.17
 60.87    1396.00      37.36
 60.97    1086.57      32.96
 61.07    1079.23      32.85
 61.17     959.59      30.98
 61.27     871.00      29.51
 61.37     798.28      28.25
 61.47     731.00      27.04
 61.57     737.89      27.16
 61.67     786.00      28.04
 61.77     759.90      27.57
 61.87     816.23      28.57
 61.97     943.00      30.71
 62.07    1096.00      33.11
 62.17    1145.00      33.84
 62.27    1377.12      37.11
 62.37    1468.90      38.33
 62.47    1504.85      38.79
 62.57    1470.00      38.34
 62.67    1394.00      37.34
 62.77    1259.00      35.48
 62.87    1086.00      32.95
 62.97    1009.00      31.76
 63.07     980.85      31.32
 63.17     788.00      28.07
 63.27     725.00      26.93
 63.37     741.00      27.22
 63.47     705.00      26.55
 63.57     615.00      24.80
 63.67     680.00      26.08
 63.77     618.00      24.86
 63.87     660.00      25.69
 63.97     646.00      25.42
 64.07     653.00      25.55
 64.17     687.00      26.21
 64.27     758.48      27.54
 64.37     772.00      27.78
 64.47     858.66      29.30
 64.57     968.00      31.11
 64.67    1102.00      33.20
 64.77    1160.00      34.06
 64.87    1147.00      33.87
 64.97    1229.00      35.06
 65.07    1243.00      35.26
 65.17    1268.00      35.61
 65.27    1113.64      33.37
 65.37    1101.00      33.18
 65.47    1057.00      32.51
 65.57     886.00      29.77
 65.67     843.00      29.03
 65.77     797.00      28.23
 65.87     819.14      28.62
 65.97     740.00      27.20
 66.07     752.04      27.42
 66.17     629.00      25.08
 66.27     631.37      25.13
 66.37     621.82      24.94
 66.47     640.00      25.30
 66.57     640.00      25.30
 66.67     610.00      24.70
 66.77     620.88      24.92
 66.87     671.64      25.92
 66.97     602.09      24.54
 67.07     632.00      25.14
 67.17     672.00      25.92
 67.27     703.00      26.51
 67.37     720.38      26.84
 67.47     755.64      27.49
 67.57     845.00      29.07
 67.67     928.04      30.46
 67.77    1088.00      32.98
 67.87    1274.00      35.69
 67.97    1448.01      38.05
 68.07    1685.60      41.06
 68.17    1868.00      43.22
 68.27    2188.00      46.78
 68.37    2344.00      48.41
 68.47    2374.55      48.73
 68.57    2336.00      48.33
 68.67    2245.00      47.38
 68.77    2020.00      44.94
 68.87    1853.00      43.05
 68.97    1560.00      39.50
 69.07    1314.00      36.25
 69.17    1258.33      35.47
 69.27    1089.01      33.00
 69.37     859.86      29.32
 69.47     814.00      28.53
 69.57     792.00      28.14
 69.67     789.00      28.09
 69.77     707.00      26.59
 69.87     737.00      27.15
 69.97     638.00      25.26
 70.07     655.55      25.60
 70.17     608.00      24.66
 70.27     675.17      25.98
 70.37     677.20      26.02
 70.47     620.97      24.92
 70.57     632.87      25.16
 70.67     618.00      24.86
 70.77     609.59      24.69
 70.87     640.00      25.30
 70.97     596.54      24.42
 71.07     688.00      26.23
 71.17     627.00      25.04
 71.27     678.80      26.05
 71.37     684.53      26.16
 71.47     772.95      27.80
 71.57     788.29      28.08
 71.67     928.16      30.47
 71.77    1039.21      32.24
 71.87    1154.00      33.97
 71.97    1319.79      36.33
 72.07    1449.00      38.07
 72.17    1558.59      39.48
 72.27    1711.00      41.36
 72.37    1811.97      42.57
 72.47    1976.08      44.45
 72.57    1859.00      43.12
 72.67    1760.00      41.95
 72.77    1695.00      41.17
 72.87    1448.00      38.05
 72.97    1283.47      35.83
 73.07    1173.00      34.25
 73.17    1044.59      32.32
 73.27     904.56      30.08
 73.37     867.00      29.44
 73.47     772.00      27.78
 73.57     754.00      27.46
 73.67     719.00      26.81
 73.77     681.00      26.10
 73.87     644.15      25.38
 73.97     587.12      24.23
 74.07     624.00      24.98
 74.17     635.00      25.20
 74.27     684.00      26.15
 74.37     573.25      23.94
 74.47     636.73      25.23
 74.57     626.00      25.02
 74.67     620.00      24.90
 74.77     670.00      25.88
 74.87     630.00      25.10
 74.97     593.35      24.36
 75.07     726.00      26.94
 75.17     638.12      25.26
 75.27     580.63      24.10
 75.37     698.00      26.42
 75.47     625.17      25.00
 75.57     646.00      25.42
 75.67     646.00      25.42
 75.77     621.00      24.92
 75.87     609.00      24.68
 75.97     655.00      25.59
 76.07     626.00      25.02
 76.17     662.00      25.73
 76.27     665.00      25.79
 76.37     734.00      27.09
 76.47     690.00      26.27
 76.57     736.00      27.13
 76.67     760.00      27.57
 76.77     807.00      28.41
 76.87     755.00      27.48
 76.97     865.00      29.41
 77.07     807.09      28.41
 77.17     792.00      28.14
 77.27     797.00      28.23
 77.37     784.00      28.00
 77.47     758.27      27.54
 77.57     659.92      25.69
 77.67     628.79      25.08
 77.77     675.00      25.98
 77.87     614.00      24.78
 77.97     585.00      24.19
 78.07     580.00      24.08
 78.17     610.00      24.70
 78.27     565.00      23.77
 78.37     551.00      23.47
 78.47     603.30      24.56
 78.57     575.15      23.98
 78.67     525.00      22.91
 78.77     601.89      24.53
 78.87     558.00      23.62
 78.97     557.00      23.60
 79.07     512.00      22.63
 79.17     519.00      22.78
 79.27     538.76      23.21
 79.37     565.00      23.77
 79.47     607.00      24.64
 79.57     552.19      23.50
 79.67     552.00      23.49
 79.77     514.00      22.67
 79.87     606.86      24.63
 79.97     570.86      23.89
 80.07     583.00      24.15
 80.17     572.53      23.93
 80.27     623.31      24.97
 80.37     659.21      25.68
 80.47     599.54      24.49
 80.57     603.00      24.56
 80.67     662.00      25.73
 80.77     674.00      25.96
 80.87     724.00      26.91
 80.97     825.43      28.73
 81.07     782.03      27.96
 81.17     870.00      29.50
 81.27     931.00      30.51
 81.37     924.00      30.40
 81.47     906.33      30.11
 81.57     973.34      31.20
 81.67    1003.00      31.67
 81.77     968.00      31.11
 81.87     960.00      30.98
 81.97     901.09      30.02
 82.07     898.00      29.97
 82.17     928.00      30.46
 82.27     866.00      29.43
 82.37     865.00      29.41
 82.47     781.00      27.95
 82.57     757.66      27.53
 82.67     768.00      27.71
 82.77     713.40      26.71
 82.87     665.92      25.81
 82.97     659.00      25.67
 83.07     669.00      25.87
 83.17     649.14      25.48
 83.27     586.00      24.21
 83.37     614.16      24.78
 83.47     614.00      24.78
 83.57     563.00      23.73
 83.67     583.00      24.15
 83.77     625.00      25.00
 83.87     582.32      24.13
 83.97     605.00      24.60
 84.07     557.00      23.60
 84.17     578.03      24.04
 84.27     575.00      23.98
 84.37     621.00      24.92
 84.47     606.33      24.62
 84.57     656.51      25.62
 84.67     593.00      24.35
 84.77     590.00      24.29
 84.87     638.00      25.26
 84.97     606.00      24.62
 85.07     549.00      23.43
 85.17     566.53      23.80
 85.27     575.00      23.98
 85.37     548.00      23.41
 85.47     558.04      23.62
 85.57     577.22      24.03
 85.67     569.00      23.85
 85.77     603.00      24.56
 85.87     572.84      23.93
 85.97     549.00      23.43
 86.07     605.18      24.60
 86.17     531.20      23.05
 86.27     529.92      23.02
 86.37     595.00      24.39
 86.47     570.00      23.87
 86.57     562.00      23.71
 86.67     602.00      24.54
 86.77     608.00      24.66
 86.87     590.00      24.29
 86.97     572.00      23.92
 87.07     575.02      23.98
 87.17     618.00      24.86
 87.27     623.00      24.96
 87.37     587.00      24.23
 87.47     671.09      25.91
 87.57     664.00      25.77
 87.67     640.00      25.30
 87.77     696.00      26.38
 87.87     640.66      25.31
 87.97     701.00      26.48
 88.07     647.00      25.44
 88.17     637.80      25.25
 88.27     619.55      24.89
 88.37     659.27      25.68
 88.47     631.00      25.12
 88.57     670.00      25.88
 88.67     651.00      25.51
 88.77     585.31      24.19
 88.87     639.00      25.28
 88.97     648.57      25.47
 89.07     601.00      24.52
 89.17     593.00      24.35
 89.27     610.00      24.70
 89.37     623.00      24.96
 89.47     615.00      24.80
 89.57     575.56      23.99
 89.67     637.00      25.24
 89.77     609.00      24.68
 89.87     595.00      24.39
 89.97     604.00      24.58
 90.07     646.06      25.42
 90.17     580.00      24.08
 90.27     582.42      24.13
 90.37     619.00      24.88
 90.47     589.41      24.28
 90.57     606.00      24.62
 90.67     585.47      24.20
 90.77     561.00      23.69
 90.87     609.00      24.68
 90.97     562.00      23.71
 91.07     554.00      23.54
 91.17     558.00      23.62
 91.27     537.00      23.17
 91.37     525.00      22.91
 91.47     530.00      23.02
 91.57     520.75      22.82
 91.67     516.74      22.73
 91.77     563.00      23.73
 91.87     513.00      22.65
 91.97     544.00      23.32
 92.07     565.21      23.77
 92.17     596.00      24.41
 92.27     529.61      23.01
 92.37     537.00      23.17
 92.47     577.00      24.02
 92.57     563.00      23.73
 92.67     622.00      24.94
 92.77     592.00      24.33
 92.87     580.20      24.09
 92.97     600.00      24.49
 93.07     659.79      25.69
 93.17     624.64      24.99
 93.27     708.00      26.61
 93.37     627.00      25.04
 93.47     671.69      25.92
 93.57     688.86      26.25
 93.67     798.00      28.25
 93.77     748.00      27.35
 93.87     768.00      27.71
 93.97     816.00      28.57
 94.07     764.00      27.64
 94.17     782.00      27.96
 94.27     854.00      29.22
 94.37     853.00      29.21
 94.47     904.15      30.07
 94.57     882.89      29.71
 94.67     890.00      29.83
 94.77     949.00      30.81
 94.87     926.00      30.43
 94.97     927.00      30.45
 95.07     978.00      31.27
 95.17     932.00      30.53
 95.27     973.00      31.19
 95.37     991.00      31.48
 95.47     971.00      31.16
 95.57     951.43      30.85
 95.67     961.00      31.00
 95.77     898.00      29.97
 95.87     865.00      29.41
 95.97     932.00      30.53
 96.07     805.42      28.38
 96.17     817.00      28.58
 96.27     761.49      27.60
 96.37     759.00      27.55
 96.47     799.00      28.27
 96.57     751.00      27.40
 96.67     774.00      27.82
 96.77     818.00      28.60
 96.87     766.04      27.68
 96.97     796.00      28.21
 97.07     931.00      30.51
 97.17     959.00      30.97
 97.27    1033.92      32.15
 97.37    1118.00      33.44
 97.47    1187.73      34.46
 97.57    1205.00      34.71
 97.67    1254.00      35.41
 97.77    1307.00      36.15
 97.87    1359.00      36.86
 97.97    1468.00      38.31
 98.07    1553.00      39.41
 98.17    1549.00      39.36
 98.27    1530.00      39.12
 98.37    1491.34      38.62
 98.47    1500.00      38.73
 98.57    1402.00      37.44
 98.67    1422.00      37.71
 98.77    1290.53      35.92
 98.87    1264.00      35.55
 98.97    1148.00      33.88
 99.07    1171.20      34.22
 99.17    1067.00      32.66
 99.27     981.00      31.32
 99.37     971.00      31.16
 99.47     941.00      30.68
 99.57     960.00      30.98
 99.67     906.58      30.11
 99.77     942.00      30.69
 99.87     993.00      31.51
 99.97    1079.46      32.86
100.07    1120.00      33.47
100.17    1234.00      35.13
100.27    1264.00      35.55
100.37    1313.00      36.24
100.47    1382.00      37.18
100.57    1575.00      39.69
100.67    1589.00      39.86
100.77    1607.45      40.09
100.87    1765.00      42.01
100.97    1798.87      42.41
101.07    1881.00      43.37
101.17    2015.58      44.90
101.27    1953.65      44.20
101.37    2027.09      45.02
101.47    2071.00      45.51
101.57    1968.72      44.37
101.67    1989.00      44.60
101.77    1944.00      44.09
101.87    1905.00      43.65
101.97    1813.00      42.58
102.07    1802.00      42.45
102.17    1759.50      41.95
102.27    1574.95      39.69
102.37    1461.00      38.22
102.47    1516.89      38.95
102.57    1441.52      37.97
102.67    1324.08      36.39
102.77    1283.97      35.83
102.87    1270.00      35.64
102.97    1186.00      34.44
103.07    1190.00      34.50
103.17    1155.00      33.99
103.27    1166.00      34.15
103.37    1186.70      34.45
103.47    1147.37      33.87
103.57    1090.00      33.02
103.67    1036.00      32.19
103.77     954.27      30.89
103.87    1003.78      31.68
103.97     929.60      30.49
104.07     843.09      29.04
104.17     895.00      29.92
104.27     763.80      27.64
104.37     828.00      28.77
104.47     782.00      27.96
104.57     672.97      25.94
104.67     693.00      26.32
104.77     682.86      26.13
104.87     689.00      26.25
104.97     588.23      24.25
105.07     626.00      25.02
105.17     643.74      25.37
105.27     622.00      24.94
105.37     614.61      24.79
105.47     536.48      23.16
105.57     574.43      23.97
105.67     601.00      24.52
105.77     637.00      25.24
105.87     578.85      24.06
105.97     604.00      24.58
106.07     599.43      24.48
106.17     579.00      24.06
106.27     531.54      23.06
106.37     530.02      23.02
106.47     533.24      23.09
106.57     562.87      23.72
106.67     606.00      24.62
106.77     594.00      24.37
106.87     641.00      25.32
106.97     652.00      25.53
107.07     687.00      26.21
107.17     617.00      24.84
107.27     652.00      25.53
107.37     691.81      26.30
107.47     720.00      26.83
107.57     689.00      26.25
107.67     723.00      26.89
107.77     669.00      25.87
107.87     683.00      26.13
107.97     732.00      27.06
108.07     748.72      27.36
108.17     685.20      26.18
108.27     687.00      26.21
108.37     734.49      27.10
108.47     718.64      26.81
108.57     700.00      26.46
108.67     775.45      27.85
108.77     710.00      26.65
108.87     712.00      26.68
108.97     715.00      26.74
109.07     707.00      26.59
109.17     721.00      26.85
109.27     751.00      27.40
109.37     682.00      26.12
109.47     744.46      27.28
109.57     730.00      27.02
109.67     720.00      26.83
109.77     708.00      26.61
109.87     726.00      26.94
109.97     697.58      26.41
110.07     726.88      26.96
110.17     674.00      25.96
110.27     749.51      27.38
110.37     703.34      26.52
110.47     667.00      25.83
110.57     650.00      25.50
110.67     677.63      26.03
110.77     645.00      25.40
110.87     640.00      25.30
110.97     619.00      24.88
111.07     613.00      24.76
111.17     605.00      24.60
111.27     580.46      24.09
111.37     603.00      24.56
111.47     608.00      24.66
111.57     601.00      24.52
111.67     581.87      24.12
111.77     595.00      24.39
111.87     607.21      24.64
111.97     611.00      24.72
112.07     602.00      24.54
112.17     538.68      23.21
112.27     531.00      23.04
112.37     560.00      23.66
112.47     583.00      24.15
112.57     601.00      24.52
112.67     554.00      23.54
112.77     559.00      23.64
112.87     548.73      23.42
112.97     586.00      24.21
113.07     588.00      24.25
113.17     588.00      24.25
113.27     612.00      24.74
113.37     572.00      23.92
113.47     585.00      24.19
113.57     640.18      25.30
113.67     627.00      25.04
113.77     612.28      24.74
113.87     637.00      25.24
113.97     650.00      25.50
114.07     643.00      25.36
114.17     681.00      26.10
114.27     647.00      25.44
114.37     678.00      26.04
114.47     666.00      25.81
114.57     712.00      26.68
114.67     799.50      28.28
114.77     869.31      29.48
114.87     852.00      29.19
114.97     970.00      31.14
115.07    1017.00      31.89
115.17    1083.94      32.92
115.27    1197.00      34.60
115.37    1332.00      36.50
115.47    1523.00      39.03
115.57    1675.18      40.93
115.67    1952.84      44.19
115.77    2177.75      46.67
115.87    2447.00      49.47
115.97    2625.33      51.24
116.07    2977.00      54.56
116.17    3177.00      56.36
116.27    3670.00      60.58
116.37    3967.00      62.98
116.47    4317.00      65.70
116.57    4809.00      69.35
116.67    5245.25      72.42
116.77    5469.03      73.95
116.87    5873.00      76.64
116.97    6122.07      78.24
117.07    6588.00      81.17
117.17    6820.00      82.58
117.27    6863.86      82.85
117.37    7063.00      84.04
117.47    7357.93      85.78
117.57    7159.00      84.61
117.67    7160.00      84.62
117.77    7041.00      83.91
117.87    6919.76      83.19
117.97    6760.13      82.22
118.07    6535.36      80.84
118.17    5892.00      76.76
118.27    5518.00      74.28
118.37    5180.00      71.97
118.47    4864.00      69.74
118.57    4670.00      68.34
118.67    4240.91      65.12
118.77    3907.00      62.51
118.87    3549.00      59.57
118.97    3272.54      57.21
119.07    2885.00      53.71
119.17    2501.00      50.01
119.27    2315.81      48.12
119.37    2149.00      46.36
119.47    1997.00      44.69
119.57    1785.30      42.25
119.67    1602.00      40.02
119.77    1423.00      37.72
119.87    1373.00      37.05
119.97    1168.00      34.18
120.07    1103.12      33.21
120.17    1065.57      32.64
120.27     980.00      31.30
120.37     898.34      29.97
120.47     866.00      29.43
120.57     843.00      29.03
120.67     840.00      28.98
120.77     771.19      27.77
120.87     773.00      27.80
120.97     688.00      26.23
121.07     717.00      26.78
121.17     661.00      25.71
121.27     727.09      26.96
121.37     709.30      26.63
121.47     634.00      25.18
121.57     678.00      26.04
121.67     633.55      25.17
121.77     607.00      24.64
121.87     706.43      26.58
121.97     654.00      25.57
122.07     617.00      24.84
122.17     692.98      26.32
122.27     634.98      25.20
122.37     623.28      24.97
122.47     649.00      25.48
122.57     672.00      25.92
122.67     629.00      25.08
122.77     718.38      26.80
122.87     678.00      26.04
122.97     652.71      25.55
123.07     731.02      27.04
123.17     664.00      25.77
123.27     697.00      26.40
123.37     670.00      25.88
123.47     659.00      25.67
123.57     719.68      26.83
123.67     725.00      26.93
123.77     651.40      25.52
123.87     711.00      26.66
123.97     707.00      26.59
124.07     734.03      27.09
124.17     723.15      26.89
124.27     736.00      27.13
124.37     685.00      26.17
124.47     696.60      26.39
124.57     736.00      27.13
124.67     726.18      26.95
124.77     693.00      26.32
124.87     718.00      26.80
124.97     700.00      26.46
