  9.97     616.24      24.82
 10.07     603.00      24.56
 10.17     563.95      23.75
 10.27     587.00      24.23
 10.37     576.00      24.00
 10.47     614.92      24.80
 10.57     590.00      24.29
 10.67     609.00      24.68
 10.77     585.00      24.19
 10.87     571.00      23.90
 10.97     587.00      24.23
 11.07     614.14      24.78
 11.17     569.04      23.85
 11.27     569.00      23.85
 11.37     600.00      24.49
 11.47     579.00      24.06
 11.57     572.64      23.93
 11.67     563.67      23.74
 11.77     559.30      23.65
 11.87     664.00      25.77
 11.97     691.00      26.29
 12.07     702.00      26.50
 12.17     673.48      25.95
 12.27     669.57      25.88
 12.37     631.16      25.12
 12.47     598.97      24.47
 12.57     548.00      23.41
 12.67     635.00      25.20
 12.77     558.00      23.62
 12.87     626.00      25.02
 12.97     576.00      24.00
 13.07     561.00      23.69
 13.17     578.34      24.05
 13.27     596.04      24.41
 13.37     540.00      23.24
 13.47     561.00      23.69
 13.57     573.41      23.95
 13.67     587.70      24.24
 13.77     575.00      23.98
 13.87     577.00      24.02
 13.97     606.21      24.62
 14.07     558.94      23.64
 14.17     616.56      24.83
 14.27     577.00      24.02
 14.37     547.00      23.39
 14.47     550.00      23.45
 14.57     551.00      23.47
 14.67     583.00      24.15
 14.77     601.65      24.53
 14.87     550.00      23.45
 14.97     543.00      23.30
 15.07     553.80      23.53
 15.17     571.00      23.90
 15.27     559.00      23.64
 15.37     539.37      23.22
 15.47     544.00      23.32
 15.57     545.00      23.35
 15.67     547.00      23.39
 15.77     584.48      24.18
 15.87     596.00      24.41
 15.97     563.00      23.73
 16.07     559.00      23.64
 16.17     555.00      23.56
 16.27     602.59      24.55
 16.37     598.00      24.45
 16.47     609.70      24.69
 16.57     550.00      23.45
 16.67     530.00      23.02
 16.77     564.00      23.75
 16.87     576.00      24.00
 16.97     549.00      23.43
 17.07     560.00      23.66
 17.17     588.00      24.25
 17.27     534.92      23.13
 17.37     559.00      23.64
 17.47     547.93      23.41
 17.57     610.67      24.71
 17.67     530.93      23.04
 17.77     528.00      22.98
 17.87     597.99      24.45
 17.97     553.80      23.53
 18.07     528.00      22.98
 18.17     543.90      23.32
 18.27     535.00      23.13
 18.37     533.00      23.09
 18.47     536.07      23.15
 18.57     603.00      24.56
 18.67     576.00      24.00
 18.77     549.26      23.44
 18.87     554.00      23.54
 18.97     554.00      23.54
 19.07     541.00      23.26
 19.17     579.00      24.06
 19.27     552.00      23.49
 19.37     570.00      23.87
 19.47     574.00      23.96
 19.57     590.00      24.29
 19.67     549.00      23.43
 19.77     595.00      24.39
 19.87     583.55      24.16
 19.97     536.00      23.15
 20.07     515.00      22.69
 20.17     564.08      23.75
 20.27     542.69      23.30
 20.37     560.00      23.66
 20.47     588.00      24.25
 20.57     529.00      23.00
 20.67     528.00      22.98
 20.77     536.00      23.15
 20.87     553.00      23.52
 20.97     519.00      22.78
 21.07     561.00      23.69
 21.17     576.38      24.01
 21.27     509.00      22.56
 21.37     493.00      22.20
 21.47     551.00      23.47
 21.57     547.64      23.40
 21.67     575.20      23.98
 21.77     574.31      23.96
 21.87     528.00      22.98
 21.97     507.00      22.52
 22.07     537.00      23.17
 22.17     506.00      22.49
 22.27     544.00      23.32
 22.37     584.03      24.17
 22.47     578.00      24.04
 22.57     570.00      23.87
 22.67     570.37      23.88
 22.77     576.28      24.01
 22.87     532.00      23.07
 22.97     567.00      23.81
 23.07     568.00      23.83
 23.17     533.00      23.09
 23.27     588.86      24.27
 23.37     553.00      23.52
 23.47     542.68      23.30
 23.57     518.85      22.78
 23.67     572.32      23.92
 23.77     507.61      22.53
 23.87     559.00      23.64
 23.97     566.00      23.79
 24.07     601.00      24.52
 24.17     585.65      24.20
 24.27     591.00      24.31
 24.37     528.12      22.98
 24.47     556.00      23.58
 24.57     550.83      23.47
 24.67     661.50      25.72
 24.77     594.00      24.37
 24.87     629.99      25.10
 24.97     615.40      24.81
 25.07     577.00      24.02
 25.17     583.00      24.15
 25.27     517.48      22.75
 25.37     527.00      22.96
 25.47     563.88      23.75
 25.57     501.71      22.40
 25.67     560.00      23.66
 25.77     581.66      24.12
 25.87     551.00      23.47
 25.97     568.00      23.83
 26.07     604.00      24.58
 26.17     542.00      23.28
 26.27     581.00      24.10
 26.37     585.00      24.19
 26.47     564.00      23.75
 26.57     552.41      23.50
 26.67     503.52      22.44
 26.77     549.00      23.43
 26.87     521.29      22.83
 26.97     525.00      22.91
 27.07     559.00      23.64
 27.17     550.00      23.45
 27.27     563.22      23.73
 27.37     524.22      22.90
 27.47     580.00      24.08
 27.57     528.00      22.98
 27.67     527.43      22.97
 27.77     598.00      24.45
 27.87     579.00      24.06
 27.97     657.51      25.64
 28.07     767.00      27.69
 28.17     917.00      30.28
 28.27     905.00      30.08
 28.37     917.00      30.28
 28.47     747.94      27.35
 28.57     763.00      27.62
 28.67     715.00      26.74
 28.77     746.00      27.31
 28.87     781.69      27.96
 28.97     870.00      29.50
 29.07     796.00      28.21
 29.17     733.00      27.07
 29.27     622.00      24.94
 29.37     649.00      25.48
 29.47     633.39      25.17
 29.57     558.00      23.62
 29.67     627.00      25.04
 29.77     565.00      23.77
 29.87     560.00      23.66
 29.97     568.00      23.83
 30.07     573.47      23.95
 30.17     553.00      23.52
 30.27     566.00      23.79
 30.37     560.82      23.68
 30.47     573.74      23.95
 30.57     582.02      24.13
 30.67     539.67      23.23
 30.77     617.94      24.86
 30.87     578.00      24.04
 30.97     616.00      24.82
 31.07     600.00      24.49
 31.17     515.00      22.69
 31.27     540.00      23.24
 31.37     515.83      22.71
 31.47     494.42      22.24
 31.57     525.00      22.91
 31.67     562.00      23.71
 31.77     523.00      22.87
 31.87     510.00      22.58
 31.97     555.00      23.56
 32.07     568.00      23.83
 32.17     575.00      23.98
 32.27     521.96      22.85
 32.37     553.00      23.52
 32.47     543.12      23.30
 32.57     523.54      22.88
 32.67     568.50      23.84
 32.77     509.00      22.56
 32.87     504.51      22.46
 32.97     570.00      23.87
 33.07     534.00      23.11
 33.17     545.55      23.36
 33.27     519.37      22.79
 33.37     555.72      23.57
 33.47     558.93      23.64
 33.57     587.00      24.23
 33.67     657.29      25.64
 33.77     695.23      26.37
 33.87     878.06      29.63
 33.97     970.77      31.16
 34.07    1108.00      33.29
 34.17    1013.00      31.83
 34.27     874.22      29.57
 34.37     721.00      26.85
 34.47     622.00      24.94
 34.57     566.00      23.79
 34.67     538.00      23.19
 34.77     488.00      22.09
 34.87     543.00      23.30
 34.97     552.00      23.49
 35.07     515.00      22.69
 35.17     540.00      23.24
 35.27     539.00      23.22
 35.37     516.00      22.72
 35.47     530.00      23.02
 35.57     541.00      23.26
 35.67     552.60      23.51
 35.77     525.51      22.92
 35.87     556.15      23.58
 35.97     536.00      23.15
 36.07     493.23      22.21
 36.17     492.64      22.20
 36.27     493.31      22.21
 36.37     516.00      22.72
 36.47     564.00      23.75
 36.57     517.00      22.74
 36.67     474.61      21.79
 36.77     512.00      22.63
 36.87     523.00      22.87
 36.97     499.00      22.34
 37.07     515.00      22.69
 37.17     501.00      22.38
 37.27     484.47      22.01
 37.37     525.57      22.93
 37.47     484.69      22.02
 37.57     487.30      22.07
 37.67     529.00      23.00
 37.77     531.00      23.04
 37.87     568.00      23.83
 37.97     485.00      22.02
 38.07     533.13      23.09
 38.17     558.00      23.62
 38.27     514.00      22.67
 38.37     505.01      22.47
 38.47     534.69      23.12
 38.57     528.00      22.98
 38.67     522.00      22.85
 38.77     472.00      21.73
 38.87     554.71      23.55
 38.97     489.00      22.11
 39.07     494.74      22.24
 39.17     499.00      22.34
 39.27     463.00      21.52
 39.37     531.00      23.04
 39.47     535.13      23.13
 39.57     503.00      22.43
 39.67     479.22      21.89
 39.77     497.00      22.29
 39.87     518.00      22.76
 39.97     489.00      22.11
 40.07     492.00      22.18
 40.17     481.00      21.93
 40.27     460.00      21.45
 40.37     487.00      22.07
 40.47     471.00      21.70
 40.57     498.00      22.32
 40.67     504.05      22.45
 40.77     493.00      22.20
 40.87     487.00      22.07
 40.97     510.09      22.59
 41.07     480.57      21.92
 41.17     486.00      22.05
 41.27     528.95      23.00
 41.37     506.27      22.50
 41.47     478.00      21.86
 41.57     516.00      22.72
 41.67     520.00      22.80
 41.77     522.00      22.85
 41.87     482.00      21.95
 41.97     519.00      22.78
 42.07     513.00      22.65
 42.17     490.18      22.14
 42.27     501.96      22.40
 42.37     522.78      22.86
 42.47     536.00      23.15
 42.57     576.75      24.02
 42.67     623.38      24.97
 42.77     620.00      24.90
 42.87     585.00      24.19
 42.97     563.00      23.73
 43.07     514.00      22.67
 43.17     488.00      22.09
 43.27     502.26      22.41
 43.37     523.00      22.87
 43.47     467.88      21.63
 43.57     470.00      21.68
 43.67     547.20      23.39
 43.77     551.00      23.47
 43.87     507.00      22.52
 43.97     516.15      22.72
 44.07     522.00      22.85
 44.17     508.16      22.54
 44.27     499.00      22.34
 44.37     519.00      22.78
 44.47     529.52      23.01
 44.57     535.39      23.14
 44.67     473.00      21.75
 44.77     506.92      22.51
 44.87     504.00      22.45
 44.97     515.00      22.69
 45.07     550.00      23.45
 45.17     532.93      23.09
 45.27     473.00      21.75
 45.37     468.00      21.63
 45.47     518.00      22.76
 45.57     554.00      23.54
 45.67     505.00      22.47
 45.77     482.00      21.95
 45.87     477.00      21.84
 45.97     498.71      22.33
 46.07     504.00      22.45
 46.17     490.00      22.14
 46.27     495.00      22.25
 46.37     503.67      22.44
 46.47     503.54      22.44
 46.57     465.44      21.57
 46.67     538.00      23.19
 46.77     490.00      22.14
 46.87     510.71      22.60
 46.97     499.00      22.34
 47.07     481.47      21.94
 47.17     516.70      22.73
 47.27     523.52      22.88
 47.37     560.66      23.68
 47.47     533.00      23.09
 47.57     534.00      23.11
 47.67     548.40      23.42
 47.77     628.75      25.07
 47.87     627.12      25.04
 47.97     567.00      23.81
 48.07     603.15      24.56
 48.17     581.00      24.10
 48.27     564.00      23.75
 48.37     534.39      23.12
 48.47     551.98      23.49
 48.57     554.00      23.54
 48.67     528.00      22.98
 48.77     519.38      22.79
 48.87     515.41      22.70
 48.97     599.75      24.49
 49.07     533.00      23.09
 49.17     584.76      24.18
 49.27     615.00      24.80
 49.37     666.54      25.82
 49.47     668.14      25.85
 49.57     820.00      28.64
 49.67     937.10      30.61
 49.77    1072.00      32.74
 49.87    1502.00      38.76
 49.97    1804.73      42.48
 50.07    2223.00      47.15
 50.17    2453.99      49.54
 50.27    2522.00      50.22
 50.37    2286.00      47.81
 50.47    1835.00      42.84
 50.57    1429.66      37.81
 50.67    1015.00      31.86
 50.77     842.09      29.02
 50.87     696.00      26.38
 50.97     744.00      27.28
 51.07     632.00      25.14
 51.17     639.00      25.28
 51.27     611.91      24.74
 51.37     551.00      23.47
 51.47     564.00      23.75
 51.57     590.00      24.29
 51.67     561.23      23.69
 51.77     545.00      23.35
 51.87     557.00      23.60
 51.97     537.00      23.17
 52.07     547.34      23.40
 52.17     585.00      24.19
 52.27     517.05      22.74
 52.37     493.32      22.21
 52.47     551.00      23.47
 52.57     533.57      23.10
 52.67     602.00      24.54
 52.77     602.00      24.54
 52.87     653.97      25.57
 52.97     716.00      26.76
 53.07     786.00      28.04
 53.17     924.87      30.41
 53.27    1023.00      31.98
 53.37    1213.00      34.83
 53.47    1154.00      33.97
 53.57    1250.11      35.36
 53.67    1112.51      33.35
 53.77     979.88      31.30
 53.87     853.00      29.21
 53.97     802.44      28.33
 54.07     712.48      26.69
 54.17     558.00      23.62
 54.27     540.18      23.24
 54.37     523.89      22.89
 54.47     548.00      23.41
 54.57     505.09      22.47
 54.67     563.00      23.73
 54.77     545.00      23.35
 54.87     545.74      23.36
 54.97     512.00      22.63
 55.07     519.00      22.78
 55.17     542.00      23.28
 55.27     562.00      23.71
 55.37     567.00      23.81
 55.47     554.00      23.54
 55.57     541.00      23.26
 55.67     553.00      23.52
 55.77     614.00      24.78
 55.87     594.00      24.37
 55.97     607.00      24.64
 56.07     630.25      25.10
 56.17     759.00      27.55
 56.27     915.16      30.25
 56.37    1098.58      33.14
 56.47    1417.86      37.65
 56.57    1715.00      41.41
 56.67    2088.00      45.69
 56.77    2410.00      49.09
 56.87    2611.00      51.10
 56.97    2624.34      51.23
 57.07    2374.00      48.72
 57.17    2080.00      45.61
 57.27    1650.00      40.62
 57.37    1279.00      35.76
 57.47    1101.00      33.18
 57.57     835.00      28.90
 57.67     759.00      27.55
 57.77     704.00      26.53
 57.87     708.00      26.61
 57.97     641.80      25.33
 58.07     689.49      26.26
 58.17     746.73      27.33
 58.27     827.20      28.76
 58.37     900.46      30.01
 58.47     975.00      31.22
 58.57    1071.00      32.73
 58.67    1194.00      34.55
 58.77    1401.00      37.43
 58.87    1589.00      39.86
 58.97    1650.00      40.62
 59.07    1607.00      40.09
 59.17    1602.00      40.02
 59.27    1466.00      38.29
 59.37    1321.23      36.35
 59.47    1298.00      36.03
 59.57    1160.00      34.06
 59.67    1103.00      33.21
 59.77    1197.29      34.60
 59.87    1242.45      35.25
 59.97    1280.00      35.78
 60.07    1513.00      38.90
 60.17    1566.00      39.57
 60.27    1667.00      40.83
 60.37    1529.61      39.11
 60.47    1435.00      37.88
 60.57    1282.00      35.81
 60.67    1085.00      32.94
 60.77     893.05      29.88
 60.87     779.00      27.91
 60.97     682.00      26.12
 61.07     634.11      25.18
 61.17     620.00      24.90
 61.27     646.00      25.42
 61.37     657.22      25.64
 61.47     718.00      26.80
 61.57     781.45      27.95
 61.67     807.00      28.41
 61.77     980.41      31.31
 61.87    1115.00      33.39
 61.97    1244.55      35.28
 62.07    1376.28      37.10
 62.17    1364.00      36.93
 62.27    1369.41      37.01
 62.37    1273.00      35.68
 62.47    1195.00      34.57
 62.57    1097.93      33.14
 62.67     912.34      30.21
 62.77     791.00      28.12
 62.87     707.00      26.59
 62.97     599.26      24.48
 63.07     633.28      25.17
 63.17     564.81      23.77
 63.27     604.17      24.58
 63.37     547.00      23.39
 63.47     601.38      24.52
 63.57     560.35      23.67
 63.67     618.24      24.86
 63.77     583.00      24.15
 63.87     579.01      24.06
 63.97     608.11      24.66
 64.07     688.91      26.25
 64.17     795.00      28.20
 64.27     830.00      28.81
 64.37     922.00      30.36
 64.47     960.00      30.98
 64.57    1004.00      31.69
 64.67    1018.00      31.91
 64.77    1022.00      31.97
 64.87     985.00      31.38
 64.97     963.00      31.03
 65.07     910.00      30.17
 65.17     803.00      28.34
 65.27     719.00      26.81
 65.37     677.00      26.02
 65.47     614.64      24.79
 65.57     669.48      25.87
 65.67     591.00      24.31
 65.77     561.00      23.69
 65.87     559.00      23.64
 65.97     558.00      23.62
 66.07     586.00      24.21
 66.17     533.00      23.09
 66.27     486.00      22.05
 66.37     575.00      23.98
 66.47     539.46      23.23
 66.57     588.00      24.25
 66.67     566.21      23.80
 66.77     556.00      23.58
 66.87     550.00      23.45
 66.97     575.00      23.98
 67.07     625.66      25.01
 67.17     698.00      26.42
 67.27     798.83      28.26
 67.37     894.00      29.90
 67.47     998.00      31.59
 67.57    1244.00      35.27
 67.67    1488.00      38.57
 67.77    1789.00      42.30
 67.87    2164.00      46.52
 67.97    2282.00      47.77
 68.07    2383.00      48.82
 68.17    2438.00      49.38
 68.27    2273.00      47.68
 68.37    2140.72      46.27
 68.47    1844.00      42.94
 68.57    1587.00      39.84
 68.67    1277.00      35.74
 68.77    1105.04      33.24
 68.87     859.00      29.31
 68.97     742.00      27.24
 69.07     707.00      26.59
 69.17     682.00      26.12
 69.27     613.83      24.78
 69.37     608.00      24.66
 69.47     621.52      24.93
 69.57     591.14      24.31
 69.67     548.00      23.41
 69.77     570.00      23.87
 69.87     586.00      24.21
 69.97     532.43      23.07
 70.07     605.00      24.60
 70.17     584.87      24.18
 70.27     583.82      24.16
 70.37     603.67      24.57
 70.47     556.00      23.58
 70.57     599.00      24.47
 70.67     546.41      23.38
 70.77     567.00      23.81
 70.87     612.00      24.74
 70.97     654.59      25.58
 71.07     652.92      25.55
 71.17     659.00      25.67
 71.27     787.00      28.05
 71.37     896.00      29.93
 71.47     997.00      31.58
 71.57    1224.91      35.00
 71.67    1374.00      37.07
 71.77    1606.00      40.07
 71.87    1879.00      43.35
 71.97    1890.68      43.48
 72.07    1936.00      44.00
 72.17    1979.45      44.49
 72.27    1812.60      42.57
 72.37    1613.00      40.16
 72.47    1526.00      39.06
 72.57    1364.91      36.94
 72.67    1162.00      34.09
 72.77    1098.00      33.14
 72.87     994.58      31.54
 72.97     881.00      29.68
 73.07     817.00      28.58
 73.17     843.77      29.05
 73.27     724.00      26.91
 73.37     685.00      26.17
 73.47     731.75      27.05
 73.57     695.11      26.36
 73.67     666.33      25.81
 73.77     633.47      25.17
 73.87     632.42      25.15
 73.97     581.00      24.10
 74.07     577.00      24.02
 74.17     589.00      24.27
 74.27     548.93      23.43
 74.37     609.96      24.70
 74.47     627.00      25.04
 74.57     531.00      23.04
 74.67     647.00      25.44
 74.77     628.00      25.06
 74.87     545.95      23.37
 74.97     544.30      23.33
 75.07     598.00      24.45
 75.17     523.23      22.87
 75.27     541.00      23.26
 75.37     549.66      23.44
 75.47     529.00      23.00
 75.57     563.00      23.73
 75.67     562.41      23.72
 75.77     556.00      23.58
 75.87     578.34      24.05
 75.97     639.91      25.30
 76.07     579.23      24.07
 76.17     652.42      25.54
 76.27     601.00      24.52
 76.37     663.00      25.75
 76.47     659.00      25.67
 76.57     682.00      26.12
 76.67     686.00      26.19
 76.77     742.08      27.24
 76.87     672.82      25.94
 76.97     645.00      25.40
 77.07     619.85      24.90
 77.17     624.09      24.98
 77.27     588.00      24.25
 77.37     569.89      23.87
 77.47     558.12      23.62
 77.57     505.45      22.48
 77.67     517.00      22.74
 77.77     540.00      23.24
 77.87     512.00      22.63
 77.97     573.84      23.96
 78.07     513.00      22.65
 78.17     551.48      23.48
 78.27     575.00      23.98
 78.37     511.00      22.61
 78.47     560.00      23.66
 78.57     525.00      22.91
 78.67     524.00      22.89
 78.77     515.00      22.69
 78.87     515.08      22.70
 78.97     561.00      23.69
 79.07     557.00      23.60
 79.17     546.00      23.37
 79.27     521.00      22.83
 79.37     506.57      22.51
 79.47     537.00      23.17
 79.57     519.00      22.78
 79.67     496.78      22.29
 79.77     532.00      23.07
 79.87     542.58      23.29
 79.97     524.97      22.91
 80.07     540.00      23.24
 80.17     559.00      23.64
 80.27     553.71      23.53
 80.37     538.54      23.21
 80.47     604.28      24.58
 80.57     572.07      23.92
 80.67     671.00      25.90
 80.77     671.00      25.90
 80.87     633.19      25.16
 80.97     670.14      25.89
 81.07     723.85      26.90
 81.17     775.44      27.85
 81.27     737.00      27.15
 81.37     751.00      27.40
 81.47     763.83      27.64
 81.57     732.00      27.06
 81.67     751.33      27.41
 81.77     729.52      27.01
 81.87     722.07      26.87
 81.97     711.00      26.66
 82.07     715.00      26.74
 82.17     649.38      25.48
 82.27     649.00      25.48
 82.37     581.07      24.11
 82.47     591.00      24.31
 82.57     580.00      24.08
 82.67     603.08      24.56
 82.77     612.00      24.74
 82.87     533.22      23.09
 82.97     538.00      23.19
 83.07     544.00      23.32
 83.17     503.00      22.43
 83.27     526.23      22.94
 83.37     575.00      23.98
 83.47     544.00      23.32
 83.57     568.00      23.83
 83.67     573.00      23.94
 83.77     525.00      22.91
 83.87     607.82      24.65
 83.97     557.00      23.60
 84.07     565.00      23.77
 84.17     550.00      23.45
 84.27     549.32      23.44
 84.37     556.00      23.58
 84.47     496.00      22.27
 84.57     559.00      23.64
 84.67     525.00      22.91
 84.77     531.00      23.04
 84.87     506.00      22.49
 84.97     516.00      22.72
 85.07     500.00      22.36
 85.17     530.00      23.02
 85.27     534.00      23.11
 85.37     536.20      23.16
 85.47     568.59      23.85
 85.57     530.00      23.02
 85.67     521.00      22.83
 85.77     560.06      23.67
 85.87     550.32      23.46
 85.97     515.00      22.69
 86.07     531.00      23.04
 86.17     504.00      22.45
 86.27     539.87      23.24
 86.37     512.00      22.63
 86.47     549.00      23.43
 86.57     509.46      22.57
 86.67     583.00      24.15
 86.77     604.00      24.58
 86.87     599.40      24.48
 86.97     614.00      24.78
 87.07     603.00      24.56
 87.17     660.00      25.69
 87.27     672.00      25.92
 87.37     634.00      25.18
 87.47     680.00      26.08
 87.57     694.00      26.34
 87.67     630.92      25.12
 87.77     650.00      25.50
 87.87     617.00      24.84
 87.97     631.17      25.12
 88.07     609.00      24.68
 88.17     617.00      24.84
 88.27     546.96      23.39
 88.37     597.82      24.45
 88.47     525.22      22.92
 88.57     571.00      23.90
 88.67     531.37      23.05
 88.77     590.00      24.29
 88.87     605.00      24.60
 88.97     598.00      24.45
 89.07     618.00      24.86
 89.17     622.00      24.94
 89.27     635.00      25.20
 89.37     559.49      23.65
 89.47     634.00      25.18
 89.57     584.00      24.17
 89.67     588.00      24.25
 89.77     580.00      24.08
 89.87     577.62      24.03
 89.97     548.65      23.42
 90.07     563.47      23.74
 90.17     505.00      22.47
 90.27     586.29      24.21
 90.37     508.12      22.54
 90.47     559.15      23.65
 90.57     523.00      22.87
 90.67     507.01      22.52
 90.77     506.98      22.52
 90.87     504.25      22.46
 90.97     532.00      23.07
 91.07     550.55      23.46
 91.17     516.00      22.72
 91.27     494.00      22.23
 91.37     511.00      22.61
 91.47     497.00      22.29
 91.57     512.00      22.63
 91.67     531.65      23.06
 91.77     539.00      23.22
 91.87     555.00      23.56
 91.97     563.00      23.73
 92.07     595.60      24.40
 92.17     558.00      23.62
 92.27     599.00      24.47
 92.37     576.78      24.02
 92.47     582.00      24.12
 92.57     645.00      25.40
 92.67     658.20      25.66
 92.77     689.97      26.27
 92.87     748.82      27.36
 92.97     774.93      27.84
 93.07     734.02      27.09
 93.17     760.00      27.57
 93.27     786.00      28.04
 93.37     781.00      27.95
 93.47     817.35      28.59
 93.57     819.00      28.62
 93.67     883.00      29.72
 93.77     812.00      28.50
 93.87     853.92      29.22
 93.97     811.69      28.49
 94.07     813.80      28.53
 94.17     829.02      28.79
 94.27     908.00      30.13
 94.37     883.00      29.72
 94.47     874.00      29.56
 94.57     888.00      29.80
 94.67     938.67      30.64
 94.77     901.00      30.02
 94.87     865.57      29.42
 94.97     857.00      29.27
 95.07     928.00      30.46
 95.17     892.00      29.87
 95.27     796.04      28.21
 95.37     758.69      27.54
 95.47     713.74      26.72
 95.57     730.00      27.02
 95.67     736.00      27.13
 95.77     664.82      25.78
 95.87     739.00      27.18
 95.97     701.00      26.48
 96.07     702.00      26.50
 96.17     745.00      27.29
 96.27     762.22      27.61
 96.37     723.00      26.89
 96.47     754.00      27.46
 96.57     843.00      29.03
 96.67     897.00      29.95
 96.77     936.66      30.60
 96.87    1069.00      32.70
 96.97    1070.00      32.71
 97.07    1235.00      35.14
 97.17    1263.94      35.55
 97.27    1362.29      36.91
 97.37    1447.00      38.04
 97.47    1456.00      38.16
 97.57    1390.00      37.28
 97.67    1468.85      38.33
 97.77    1457.00      38.17
 97.87    1310.00      36.19
 97.97    1272.00      35.67
 98.07    1250.00      35.36
 98.17    1109.82      33.31
 98.27    1094.00      33.08
 98.37     980.58      31.31
 98.47     962.12      31.02
 98.57     874.00      29.56
 98.67     864.41      29.40
 98.77     814.00      28.53
 98.87     763.00      27.62
 98.97     809.00      28.44
 99.07     777.00      27.87
 99.17     797.00      28.23
 99.27     817.87      28.60
 99.37     921.00      30.35
 99.47    1005.00      31.70
 99.57    1105.00      33.24
 99.67    1103.88      33.22
 99.77    1259.00      35.48
 99.87    1390.71      37.29
 99.97    1527.00      39.08
100.07    1626.00      40.32
100.17    1758.61      41.94
100.27    1865.00      43.19
100.37    1935.00      43.99
100.47    2054.07      45.32
100.57    2078.72      45.59
100.67    2118.00      46.02
100.77    2075.02      45.55
100.87    2117.00      46.01
100.97    2064.83      45.44
101.07    2083.00      45.64
101.17    1916.00      43.77
101.27    1885.00      43.42
101.37    1743.00      41.75
101.47    1606.00      40.07
101.57    1463.00      38.25
101.67    1423.00      37.72
101.77    1372.00      37.04
101.87    1341.07      36.62
101.97    1297.00      36.01
102.07    1183.00      34.39
102.17    1147.00      33.87
102.27    1186.96      34.45
102.37    1083.00      32.91
102.47    1143.83      33.82
102.57    1087.00      32.97
102.67    1084.00      32.92
102.77    1080.27      32.87
102.87    1058.40      32.53
102.97     911.21      30.19
103.07     937.14      30.61
103.17     892.00      29.87
103.27     808.00      28.43
103.37     749.22      27.37
103.47     729.00      27.00
103.57     733.00      27.07
103.67     704.00      26.53
103.77     683.00      26.13
103.87     670.92      25.90
103.97     656.53      25.62
104.07     597.00      24.43
104.17     609.00      24.68
104.27     588.00      24.25
104.37     581.04      24.10
104.47     506.25      22.50
104.57     541.00      23.26
104.67     583.91      24.16
104.77     559.00      23.64
104.87     532.31      23.07
104.97     542.00      23.28
105.07     577.00      24.02
105.17     523.00      22.87
105.27     494.00      22.23
105.37     523.00      22.87
105.47     496.97      22.29
105.57     560.00      23.66
105.67     515.00      22.69
105.77     545.00      23.35
105.87     577.09      24.02
105.97     587.90      24.25
106.07     587.00      24.23
106.17     549.00      23.43
106.27     602.00      24.54
106.37     591.00      24.31
106.47     619.00      24.88
106.57     592.95      24.35
106.67     608.54      24.67
106.77     649.00      25.48
106.87     601.00      24.52
106.97     687.00      26.21
107.07     677.00      26.02
107.17     714.00      26.72
107.27     685.00      26.17
107.37     667.00      25.83
107.47     705.30      26.56
107.57     665.00      25.79
107.67     701.00      26.48
107.77     641.00      25.32
107.87     722.00      26.87
107.97     673.00      25.94
108.07     704.10      26.53
108.17     714.21      26.72
108.27     711.03      26.67
108.37     667.00      25.83
108.47     671.00      25.90
108.57     636.00      25.22
108.67     679.12      26.06
108.77     708.00      26.61
108.87     672.93      25.94
108.97     673.00      25.94
109.07     699.00      26.44
109.17     655.00      25.59
109.27     621.51      24.93
109.37     671.00      25.90
109.47     648.00      25.46
109.57     627.00      25.04
109.67     622.00      24.94
109.77     596.72      24.43
109.87     635.46      25.21
109.97     608.00      24.66
110.07     556.00      23.58
110.17     581.00      24.10
110.27     586.00      24.21
110.37     583.00      24.15
110.47     562.00      23.71
110.57     506.00      22.49
110.67     534.00      23.11
110.77     542.00      23.28
110.87     529.00      23.00
110.97     516.89      22.74
111.07     508.41      22.55
111.17     552.00      23.49
111.27     569.29      23.86
111.37     536.00      23.15
111.47     536.69      23.17
111.57     531.87      23.06
111.67     536.12      23.15
111.77     583.00      24.15
111.87     558.00      23.62
111.97     560.00      23.66
112.07     565.00      23.77
112.17     609.08      24.68
112.27     564.00      23.75
112.37     572.00      23.92
112.47     556.45      23.59
112.57     604.16      24.58
112.67     616.00      24.82
112.77     673.36      25.95
112.87     623.99      24.98
112.97     641.58      25.33
113.07     642.36      25.34
113.17     690.26      26.27
113.27     751.95      27.42
113.37     764.95      27.66
113.47     750.49      27.40
113.57     779.37      27.92
113.67     869.00      29.48
113.77     931.00      30.51
113.87     962.00      31.02
113.97    1028.00      32.06
114.07    1047.00      32.36
114.17    1146.00      33.85
114.27    1252.12      35.39
114.37    1275.00      35.71
114.47    1324.00      36.39
114.57    1451.00      38.09
114.67    1588.00      39.85
114.77    1742.00      41.74
114.87    1910.00      43.70
114.97    2126.11      46.11
115.07    2325.00      48.22
115.17    2570.00      50.70
115.27    2790.00      52.82
115.37    3053.82      55.26
115.47    3439.00      58.64
115.57    3783.00      61.51
115.67    4226.00      65.01
115.77    4543.25      67.40
115.87    4812.00      69.37
115.97    5140.00      71.69
116.07    5453.00      73.84
116.17    5952.00      77.15
116.27    6242.88      79.01
116.37    6714.39      81.94
116.47    6668.00      81.66
116.57    6941.00      83.31
116.67    6934.00      83.27
116.77    6900.05      83.07
116.87    6922.00      83.20
116.97    6874.00      82.91
117.07    6377.00      79.86
117.17    6159.00      78.48
117.27    5678.69      75.36
117.37    5295.00      72.77
117.47    5007.00      70.76
117.57    4592.14      67.77
117.67    4196.00      64.78
117.77    3998.00      63.23
117.87    3612.25      60.10
117.97    3283.00      57.30
118.07    2928.00      54.11
118.17    2590.00      50.89
118.27    2311.00      48.07
118.37    2007.00      44.80
118.47    1727.98      41.57
118.57    1637.97      40.47
118.67    1393.00      37.32
118.77    1261.00      35.51
118.87    1136.89      33.72
118.97    1001.00      31.64
119.07     869.00      29.48
119.17     867.00      29.44
119.27     766.00      27.68
119.37     776.00      27.86
119.47     741.57      27.23
119.57     697.00      26.40
119.67     700.35      26.46
119.77     643.00      25.36
119.87     643.00      25.36
119.97     649.15      25.48
120.07     606.83      24.63
120.17     638.91      25.28
120.27     584.75      24.18
120.37     561.11      23.69
120.47     542.69      23.30
120.57     570.00      23.87
120.67     599.60      24.49
120.77     558.00      23.62
120.87     561.00      23.69
120.97     611.00      24.72
121.07     538.37      23.20
121.17     566.27      23.80
121.27     595.00      24.39
121.37     584.61      24.18
121.47     610.00      24.70
121.57     581.00      24.10
121.67     572.00      23.92
121.77     578.00      24.04
121.87     639.00      25.28
121.97     614.00      24.78
122.07     560.00      23.66
122.17     618.00      24.86
122.27     670.00      25.88
122.37     554.00      23.54
122.47     605.00      24.60
122.57     622.00      24.94
122.67     645.00      25.40
122.77     613.72      24.77
122.87     637.00      25.24
122.97     678.00      26.04
123.07     683.17      26.14
123.17     591.79      24.33
123.27     670.00      25.88
123.37     673.13      25.94
123.47     639.80      25.29
123.57     618.41      24.87
123.67     605.00      24.60
123.77     632.99      25.16
123.87     632.00      25.14
123.97     617.00      24.84
124.07     604.02      24.58
124.17     615.00      24.80
124.27     582.00      24.12
124.37     600.00      24.49
124.47     601.00      24.52
124.57     558.00      23.62
124.67     582.89      24.14
124.77     546.07      23.37
124.87     602.69      24.55
124.97     586.00      24.21
