  9.97     586.00      24.21
 10.07     574.94      23.98
 10.17     604.00      24.58
 10.27     597.00      24.43
 10.37     586.00      24.21
 10.47     615.00      24.80
 10.57     580.00      24.08
 10.67     583.14      24.15
 10.77     623.00      24.96
 10.87     526.64      22.95
 10.97     562.00      23.71
 11.07     558.00      23.62
 11.17     533.00      23.09
 11.27     554.00      23.54
 11.37     570.59      23.89
 11.47     613.00      24.76
 11.57     595.00      24.39
 11.67     593.00      24.35
 11.77     637.00      25.24
 11.87     579.00      24.06
 11.97     623.00      24.96
 12.07     705.64      26.56
 12.17     709.00      26.63
 12.27     684.09      26.16
 12.37     628.23      25.06
 12.47     643.70      25.37
 12.57     569.52      23.86
 12.67     582.00      24.12
 12.77     585.97      24.21
 12.87     572.00      23.92
 12.97     545.00      23.35
 13.07     577.68      24.04
 13.17     584.00      24.17
 13.27     549.00      23.43
 13.37     607.42      24.65
 13.47     568.00      23.83
 13.57     574.00      23.96
 13.67     567.46      23.82
 13.77     570.00      23.87
 13.87     603.21      24.56
 13.97     606.00      24.62
 14.07     575.07      23.98
 14.17     616.03      24.82
 14.27     608.12      24.66
 14.37     605.26      24.60
 14.47     526.99      22.96
 14.57     577.47      24.03
 14.67     542.00      23.28
 14.77     560.44      23.67
 14.87     566.00      23.79
 14.97     542.00      23.28
 15.07     570.00      23.87
 15.17     536.00      23.15
 15.27     587.00      24.23
 15.37     578.00      24.04
 15.47     574.00      23.96
 15.57     596.00      24.41
 15.67     580.32      24.09
 15.77     592.00      24.33
 15.87     572.74      23.93
 15.97     575.00      23.98
 16.07     568.69      23.85
 16.17     530.00      23.02
 16.27     555.98      23.58
 16.37     518.00      22.76
 16.47     568.00      23.83
 16.57     591.00      24.31
 16.67     556.00      23.58
 16.77     595.07      24.39
 16.87     578.00      24.04
 16.97     574.00      23.96
 17.07     524.90      22.91
 17.17     552.00      23.49
 17.27     574.00      23.96
 17.37     574.00      23.96
 17.47     544.00      23.32
 17.57     550.16      23.46
 17.67     521.78      22.84
 17.77     551.00      23.47
 17.87     569.00      23.85
 17.97     605.00      24.60
 18.07     540.00      23.24
 18.17     552.00      23.49
 18.27     533.79      23.10
 18.37     526.53      22.95
 18.47     535.00      23.13
 18.57     595.00      24.39
 18.67     537.00      23.17
 18.77     592.00      24.33
 18.87     559.00      23.64
 18.97     530.00      23.02
 19.07     565.21      23.77
 19.17     565.00      23.77
 19.27     563.39      23.74
 19.37     563.00      23.73
 19.47     544.00      23.32
 19.57     540.00      23.24
 19.67     568.00      23.83
 19.77     555.43      23.57
 19.87     592.00      24.33
 19.97     558.00      23.62
 20.07     590.00      24.29
 20.17     561.54      23.70
 20.27     543.00      23.30
 20.37     522.00      22.85
 20.47     513.42      22.66
 20.57     561.00      23.69
 20.67     588.00      24.25
 20.77     580.81      24.10
 20.87     564.00      23.75
 20.97     587.39      24.24
 21.07     562.00      23.71
 21.17     558.00      23.62
 21.27     594.52      24.38
 21.37     556.00      23.58
 21.47     543.00      23.30
 21.57     554.00      23.54
 21.67     555.00      23.56
 21.77     559.00      23.64
 21.87     555.00      23.56
 21.97     531.17      23.05
 22.07     534.00      23.11
 22.17     541.30      23.27
 22.27     548.41      23.42
 22.37     544.00      23.32
 22.47     535.00      23.13
 22.57     572.00      23.92
 22.67     560.00      23.66
 22.77     535.00      23.13
 22.87     518.00      22.76
 22.97     531.00      23.04
 23.07     569.00      23.85
 23.17     571.00      23.90
 23.27     525.00      22.91
 23.37     541.40      23.27
 23.47     549.00      23.43
 23.57     525.00      22.91
 23.67     577.00      24.02
 23.77     593.00      24.35
 23.87     595.71      24.41
 23.97     490.00      22.14
 24.07     528.00      22.98
 24.17     587.00      24.23
 24.27     559.00      23.64
 24.37     551.00      23.47
 24.47     532.99      23.09
 24.57     615.00      24.80
 24.67     584.22      24.17
 24.77     590.62      24.30
 24.87     657.49      25.64
 24.97     594.53      24.38
 25.07     583.00      24.15
 25.17     597.00      24.43
 25.27     547.18      23.39
 25.37     568.58      23.84
 25.47     537.00      23.17
 25.57     538.00      23.19
 25.67     549.00      23.43
 25.77     566.00      23.79
 25.87     587.36      24.24
 25.97     537.14      23.18
 26.07     521.05      22.83
 26.17     514.00      22.67
 26.27     564.00      23.75
 26.37     513.00      22.65
 26.47     592.00      24.33
 26.57     518.00      22.76
 26.67     539.00      23.22
 26.77     550.00      23.45
 26.87     579.23      24.07
 26.97     574.00      23.96
 27.07     565.00      23.77
 27.17     535.29      23.14
 27.27     502.88      22.43
 27.37     588.00      24.25
 27.47     548.93      23.43
 27.57     574.00      23.96
 27.67     584.00      24.17
 27.77     552.00      23.49
 27.87     606.00      24.62
 27.97     646.00      25.42
 28.07     801.32      28.31
 28.17     949.03      30.81
 28.27     920.58      30.34
 28.37     924.31      30.40
 28.47     846.19      29.09
 28.57     696.11      26.38
 28.67     675.00      25.98
 28.77     759.52      27.56
 28.87     842.00      29.02
 28.97     815.00      28.55
 29.07     750.00      27.39
 29.17     714.00      26.72
 29.27     647.00      25.44
 29.37     576.00      24.00
 29.47     608.94      24.68
 29.57     561.00      23.69
 29.67     554.00      23.54
 29.77     520.92      22.82
 29.87     545.72      23.36
 29.97     543.00      23.30
 30.07     590.42      24.30
 30.17     538.00      23.19
 30.27     498.65      22.33
 30.37     538.00      23.19
 30.47     547.00      23.39
 30.57     570.78      23.89
 30.67     528.45      22.99
 30.77     619.06      24.88
 30.87     572.00      23.92
 30.97     656.66      25.63
 31.07     623.00      24.96
 31.17     589.00      24.27
 31.27     555.00      23.56
 31.37     562.00      23.71
 31.47     479.00      21.89
 31.57     517.36      22.75
 31.67     529.00      23.00
 31.77     531.00      23.04
 31.87     513.00      22.65
 31.97     501.27      22.39
 32.07     545.00      23.35
 32.17     548.84      23.43
 32.27     499.62      22.35
 32.37     515.17      22.70
 32.47     575.00      23.98
 32.57     510.00      22.58
 32.67     517.25      22.74
 32.77     506.36      22.50
 32.87     589.00      24.27
 32.97     522.00      22.85
 33.07     536.00      23.15
 33.17     543.00      23.30
 33.27     530.58      23.03
 33.37     580.83      24.10
 33.47     550.78      23.47
 33.57     572.00      23.92
 33.67     655.52      25.60
 33.77     738.52      27.18
 33.87     844.41      29.06
 33.97    1039.00      32.23
 34.07    1051.87      32.43
 34.17    1046.00      32.34
 34.27     900.00      30.00
 34.37     748.00      27.35
 34.47     634.90      25.20
 34.57     590.00      24.29
 34.67     578.00      24.04
 34.77     525.00      22.91
 34.87     571.00      23.90
 34.97     528.00      22.98
 35.07     558.00      23.62
 35.17     529.92      23.02
 35.27     490.00      22.14
 35.37     561.00      23.69
 35.47     521.00      22.83
 35.57     533.00      23.09
 35.67     555.00      23.56
 35.77     466.00      21.59
 35.87     489.00      22.11
 35.97     507.00      22.52
 36.07     580.00      24.08
 36.17     534.00      23.11
 36.27     534.00      23.11
 36.37     546.15      23.37
 36.47     543.05      23.30
 36.57     480.11      21.91
 36.67     508.00      22.54
 36.77     496.00      22.27
 36.87     528.28      22.98
 36.97     494.25      22.23
 37.07     520.91      22.82
 37.17     512.00      22.63
 37.27     481.19      21.94
 37.37     542.96      23.30
 37.47     515.00      22.69
 37.57     539.00      23.22
 37.67     498.00      22.32
 37.77     517.00      22.74
 37.87     541.00      23.26
 37.97     473.00      21.75
 38.07     510.00      22.58
 38.17     516.00      22.72
 38.27     489.00      22.11
 38.37     538.00      23.19
 38.47     524.00      22.89
 38.57     517.27      22.74
 38.67     527.00      22.96
 38.77     507.00      22.52
 38.87     531.77      23.06
 38.97     482.90      21.97
 39.07     548.67      23.42
 39.17     483.00      21.98
 39.27     470.97      21.70
 39.37     496.28      22.28
 39.47     544.52      23.33
 39.57     512.07      22.63
 39.67     557.00      23.60
 39.77     532.49      23.08
 39.87     496.76      22.29
 39.97     466.22      21.59
 40.07     478.00      21.86
 40.17     516.46      22.73
 40.27     528.00      22.98
 40.37     485.00      22.02
 40.47     460.00      21.45
 40.57     513.00      22.65
 40.67     481.00      21.93
 40.77     493.44      22.21
 40.87     491.99      22.18
 40.97     489.38      22.12
 41.07     472.00      21.73
 41.17     467.27      21.62
 41.27     525.00      22.91
 41.37     499.53      22.35
 41.47     489.00      22.11
 41.57     504.23      22.46
 41.67     460.00      21.45
 41.77     551.31      23.48
 41.87     514.00      22.67
 41.97     549.13      23.43
 42.07     516.00      22.72
 42.17     549.00      23.43
 42.27     581.07      24.11
 42.37     506.00      22.49
 42.47     588.00      24.25
 42.57     560.00      23.66
 42.67     616.00      24.82
 42.77     596.00      24.41
 42.87     573.00      23.94
 42.97     550.00      23.45
 43.07     567.51      23.82
 43.17     492.00      22.18
 43.27     520.00      22.80
 43.37     509.00      22.56
 43.47     465.00      21.56
 43.57     537.57      23.19
 43.67     519.00      22.78
 43.77     506.00      22.49
 43.87     510.00      22.58
 43.97     496.00      22.27
 44.07     497.00      22.29
 44.17     490.85      22.16
 44.27     504.01      22.45
 44.37     461.85      21.49
 44.47     521.40      22.83
 44.57     483.00      21.98
 44.67     484.00      22.00
 44.77     500.11      22.36
 44.87     522.26      22.85
 44.97     497.00      22.29
 45.07     505.00      22.47
 45.17     497.93      22.31
 45.27     495.00      22.25
 45.37     502.00      22.41
 45.47     535.00      23.13
 45.57     504.00      22.45
 45.67     513.00      22.65
 45.77     505.40      22.48
 45.87     511.00      22.61
 45.97     486.00      22.05
 46.07     520.56      22.82
 46.17     544.00      23.32
 46.27     514.00      22.67
 46.37     518.03      22.76
 46.47     525.00      22.91
 46.57     463.58      21.53
 46.67     537.72      23.19
 46.77     496.00      22.27
 46.87     517.00      22.74
 46.97     510.00      22.58
 47.07     511.00      22.61
 47.17     518.00      22.76
 47.27     518.30      22.77
 47.37     561.59      23.70
 47.47     537.00      23.17
 47.57     580.00      24.08
 47.67     578.92      24.06
 47.77     581.00      24.10
 47.87     619.00      24.88
 47.97     599.00      24.47
 48.07     582.00      24.12
 48.17     529.35      23.01
 48.27     542.00      23.28
 48.37     520.00      22.80
 48.47     542.00      23.28
 48.57     545.00      23.35
 48.67     548.21      23.41
 48.77     505.04      22.47
 48.87     507.20      22.52
 48.97     557.46      23.61
 49.07     534.00      23.11
 49.17     593.00      24.35
 49.27     629.93      25.10
 49.37     606.00      24.62
 49.47     686.39      26.20
 49.57     744.00      27.28
 49.67     892.26      29.87
 49.77    1117.00      33.42
 49.87    1451.00      38.09
 49.97    1864.01      43.17
 50.07    2207.00      46.98
 50.17    2516.38      50.16
 50.27    2419.00      49.18
 50.37    2204.00      46.95
 50.47    1780.00      42.19
 50.57    1429.95      37.81
 50.67    1063.00      32.60
 50.77     812.00      28.50
 50.87     721.00      26.85
 50.97     640.00      25.30
 51.07     617.32      24.85
 51.17     596.00      24.41
 51.27     611.00      24.72
 51.37     638.00      25.26
 51.47     566.00      23.79
 51.57     578.00      24.04
 51.67     553.00      23.52
 51.77     578.00      24.04
 51.87     530.00      23.02
 51.97     530.00      23.02
 52.07     560.00      23.66
 52.17     548.00      23.41
 52.27     515.22      22.70
 52.37     590.00      24.29
 52.47     525.00      22.91
 52.57     597.88      24.45
 52.67     551.41      23.48
 52.77     563.81      23.74
 52.87     593.00      24.35
 52.97     746.00      27.31
 53.07     831.53      28.84
 53.17     917.00      30.28
 53.27    1036.00      32.19
 53.37    1156.00      34.00
 53.47    1266.77      35.59
 53.57    1244.14      35.27
 53.67    1164.76      34.13
 53.77    1042.00      32.28
 53.87     889.00      29.82
 53.97     739.98      27.20
 54.07     740.00      27.20
 54.17     660.00      25.69
 54.27     596.00      24.41
 54.37     619.24      24.88
 54.47     555.00      23.56
 54.57     563.00      23.73
 54.67     558.00      23.62
 54.77     577.00      24.02
 54.87     527.05      22.96
 54.97     579.70      24.08
 55.07     585.00      24.19
 55.17     568.00      23.83
 55.27     582.14      24.13
 55.37     554.07      23.54
 55.47     570.00      23.87
 55.57     605.00      24.60
 55.67     562.16      23.71
 55.77     588.00      24.25
 55.87     648.46      25.46
 55.97     635.00      25.20
 56.07     713.00      26.70
 56.17     828.35      28.78
 56.27     995.91      31.56
 56.37    1192.17      34.53
 56.47    1480.00      38.47
 56.57    1851.23      43.03
 56.67    2250.00      47.43
 56.77    2476.00      49.76
 56.87    2553.50      50.53
 56.97    2513.00      50.13
 57.07    2282.53      47.78
 57.17    2072.98      45.53
 57.27    1657.00      40.71
 57.37    1271.00      35.65
 57.47    1038.00      32.22
 57.57     902.00      30.03
 57.67     823.19      28.69
 57.77     728.06      26.98
 57.87     691.00      26.29
 57.97     636.44      25.23
 58.07     676.00      26.00
 58.17     725.00      26.93
 58.27     811.00      28.48
 58.37     798.00      28.25
 58.47     945.00      30.74
 58.57     980.48      31.31
 58.67    1136.00      33.70
 58.77    1219.00      34.91
 58.87    1299.00      36.04
 58.97    1393.00      37.32
 59.07    1443.00      37.99
 59.17    1419.00      37.67
 59.27    1371.50      37.03
 59.37    1248.75      35.34
 59.47    1208.65      34.77
 59.57    1193.00      34.54
 59.67    1265.00      35.57
 59.77    1213.00      34.83
 59.87    1272.00      35.67
 59.97    1366.00      36.96
 60.07    1476.00      38.42
 60.17    1609.00      40.11
 60.27    1603.00      40.04
 60.37    1505.00      38.79
 60.47    1400.00      37.42
 60.57    1241.00      35.23
 60.67    1054.00      32.47
 60.77     921.22      30.35
 60.87     838.74      28.96
 60.97     728.00      26.98
 61.07     700.00      26.46
 61.17     645.25      25.40
 61.27     685.00      26.17
 61.37     702.00      26.50
 61.47     681.03      26.10
 61.57     795.00      28.20
 61.67     862.19      29.36
 61.77     951.00      30.84
 61.87    1083.00      32.91
 61.97    1160.00      34.06
 62.07    1368.98      37.00
 62.17    1377.00      37.11
 62.27    1329.00      36.46
 62.37    1360.66      36.89
 62.47    1178.00      34.32
 62.57    1002.02      31.65
 62.67     823.00      28.69
 62.77     741.00      27.22
 62.87     707.00      26.59
 62.97     648.00      25.46
 63.07     659.70      25.68
 63.17     577.40      24.03
 63.27     587.38      24.24
 63.37     584.00      24.17
 63.47     563.00      23.73
 63.57     602.81      24.55
 63.67     546.34      23.37
 63.77     602.96      24.56
 63.87     637.00      25.24
 63.97     691.00      26.29
 64.07     731.13      27.04
 64.17     733.00      27.07
 64.27     863.00      29.38
 64.37     851.73      29.18
 64.47     939.00      30.64
 64.57    1011.12      31.80
 64.67    1041.00      32.26
 64.77     983.00      31.35
 64.87    1016.96      31.89
 64.97     975.00      31.22
 65.07     803.93      28.35
 65.17     803.98      28.35
 65.27     684.00      26.15
 65.37     714.00      26.72
 65.47     638.00      25.26
 65.57     599.00      24.47
 65.67     591.37      24.32
 65.77     572.00      23.92
 65.87     614.00      24.78
 65.97     593.97      24.37
 66.07     565.00      23.77
 66.17     604.41      24.58
 66.27     569.00      23.85
 66.37     539.66      23.23
 66.47     580.00      24.08
 66.57     578.11      24.04
 66.67     597.00      24.43
 66.77     618.87      24.88
 66.87     574.00      23.96
 66.97     668.08      25.85
 67.07     665.00      25.79
 67.17     712.56      26.69
 67.27     818.54      28.61
 67.37     918.00      30.30
 67.47    1031.35      32.11
 67.57    1357.03      36.84
 67.67    1543.00      39.28
 67.77    1782.00      42.21
 67.87    2137.00      46.23
 67.97    2297.00      47.93
 68.07    2419.03      49.18
 68.17    2298.00      47.94
 68.27    2290.45      47.86
 68.37    1957.00      44.24
 68.47    1776.71      42.15
 68.57    1450.24      38.08
 68.67    1246.00      35.30
 68.77    1109.42      33.31
 68.87     902.00      30.03
 68.97     755.00      27.48
 69.07     781.00      27.95
 69.17     622.00      24.94
 69.27     597.35      24.44
 69.37     611.00      24.72
 69.47     599.00      24.47
 69.57     602.00      24.54
 69.67     582.00      24.12
 69.77     599.00      24.47
 69.87     535.00      23.13
 69.97     543.42      23.31
 70.07     568.00      23.83
 70.17     588.51      24.26
 70.27     603.97      24.58
 70.37     558.00      23.62
 70.47     615.75      24.81
 70.57     538.43      23.20
 70.67     568.00      23.83
 70.77     570.00      23.87
 70.87     599.00      24.47
 70.97     659.00      25.67
 71.07     649.19      25.48
 71.17     721.00      26.85
 71.27     848.00      29.12
 71.37    1033.00      32.14
 71.47    1118.64      33.45
 71.57    1318.44      36.31
 71.67    1447.00      38.04
 71.77    1624.00      40.30
 71.87    1795.86      42.38
 71.97    1862.00      43.15
 72.07    1818.03      42.64
 72.17    1881.00      43.37
 72.27    1700.54      41.24
 72.37    1608.00      40.10
 72.47    1465.00      38.28
 72.57    1271.00      35.65
 72.67    1117.42      33.43
 72.77    1012.00      31.81
 72.87     889.00      29.82
 72.97     810.00      28.46
 73.07     774.00      27.82
 73.17     701.00      26.48
 73.27     726.00      26.94
 73.37     654.00      25.57
 73.47     659.00      25.67
 73.57     661.65      25.72
 73.67     619.15      24.88
 73.77     572.00      23.92
 73.87     633.00      25.16
 73.97     544.00      23.32
 74.07     543.50      23.31
 74.17     592.00      24.33
 74.27     635.00      25.20
 74.37     526.00      22.93
 74.47     549.34      23.44
 74.57     608.00      24.66
 74.67     566.68      23.80
 74.77     595.00      24.39
 74.87     613.18      24.76
 74.97     624.00      24.98
 75.07     584.00      24.17
 75.17     609.00      24.68
 75.27     596.00      24.41
 75.37     608.00      24.66
 75.47     600.30      24.50
 75.57     558.29      23.63
 75.67     547.00      23.39
 75.77     585.00      24.19
 75.87     631.00      25.12
 75.97     692.00      26.31
 76.07     644.00      25.38
 76.17     681.00      26.10
 76.27     682.00      26.12
 76.37     706.00      26.57
 76.47     671.00      25.90
 76.57     696.00      26.38
 76.67     668.74      25.86
 76.77     699.66      26.45
 76.87     657.61      25.64
 76.97     647.00      25.44
 77.07     598.52      24.46
 77.17     591.54      24.32
 77.27     603.00      24.56
 77.37     545.00      23.35
 77.47     541.00      23.26
 77.57     552.00      23.49
 77.67     542.00      23.28
 77.77     550.78      23.47
 77.87     516.00      22.72
 77.97     525.65      22.93
 78.07     488.81      22.11
 78.17     522.00      22.85
 78.27     549.12      23.43
 78.37     570.46      23.88
 78.47     512.21      22.63
 78.57     518.00      22.76
 78.67     506.00      22.49
 78.77     531.00      23.04
 78.87     522.83      22.87
 78.97     492.00      22.18
 79.07     559.00      23.64
 79.17     552.90      23.51
 79.27     495.00      22.25
 79.37     533.00      23.09
 79.47     520.41      22.81
 79.57     550.00      23.45
 79.67     523.33      22.88
 79.77     550.00      23.45
 79.87     542.25      23.29
 79.97     567.00      23.81
 80.07     569.00      23.85
 80.17     501.00      22.38
 80.27     536.00      23.15
 80.37     575.00      23.98
 80.47     585.00      24.19
 80.57     569.44      23.86
 80.67     642.00      25.34
 80.77     663.86      25.77
 80.87     646.99      25.44
 80.97     656.00      25.61
 81.07     674.28      25.97
 81.17     787.16      28.06
 81.27     787.52      28.06
 81.37     727.00      26.96
 81.47     778.00      27.89
 81.57     733.00      27.07
 81.67     742.47      27.25
 81.77     721.00      26.85
 81.87     673.67      25.96
 81.97     694.12      26.35
 82.07     632.00      25.14
 82.17     714.00      26.72
 82.27     659.00      25.67
 82.37     565.00      23.77
 82.47     634.00      25.18
 82.57     581.33      24.11
 82.67     536.00      23.15
 82.77     563.00      23.73
 82.87     600.00      24.49
 82.97     507.00      22.52
 83.07     577.00      24.02
 83.17     546.00      23.37
 83.27     525.80      22.93
 83.37     565.00      23.77
 83.47     583.00      24.15
 83.57     575.00      23.98
 83.67     592.59      24.34
 83.77     581.00      24.10
 83.87     569.00      23.85
 83.97     608.29      24.66
 84.07     589.00      24.27
 84.17     554.00      23.54
 84.27     583.20      24.15
 84.37     564.00      23.75
 84.47     546.00      23.37
 84.57     576.00      24.00
 84.67     565.78      23.79
 84.77     505.41      22.48
 84.87     540.64      23.25
 84.97     549.22      23.44
 85.07     568.00      23.83
 85.17     524.34      22.90
 85.27     547.00      23.39
 85.37     555.00      23.56
 85.47     538.00      23.19
 85.57     504.00      22.45
 85.67     551.00      23.47
 85.77     514.68      22.69
 85.87     525.00      22.91
 85.97     523.00      22.87
 86.07     524.00      22.89
 86.17     552.00      23.49
 86.27     514.79      22.69
 86.37     517.86      22.76
 86.47     541.11      23.26
 86.57     582.00      24.12
 86.67     570.00      23.87
 86.77     549.56      23.44
 86.87     540.45      23.25
 86.97     579.00      24.06
 87.07     561.15      23.69
 87.17     608.60      24.67
 87.27     663.00      25.75
 87.37     672.00      25.92
 87.47     636.00      25.22
 87.57     624.95      25.00
 87.67     580.35      24.09
 87.77     627.00      25.04
 87.87     643.86      25.37
 87.97     558.59      23.63
 88.07     577.77      24.04
 88.17     581.22      24.11
 88.27     547.29      23.39
 88.37     597.00      24.43
 88.47     566.79      23.81
 88.57     575.00      23.98
 88.67     567.00      23.81
 88.77     571.00      23.90
 88.87     585.00      24.19
 88.97     666.00      25.81
 89.07     582.00      24.12
 89.17     592.28      24.34
 89.27     562.35      23.71
 89.37     636.53      25.23
 89.47     581.00      24.10
 89.57     641.67      25.33
 89.67     596.00      24.41
 89.77     580.00      24.08
 89.87     536.00      23.15
 89.97     562.00      23.71
 90.07     530.00      23.02
 90.17     522.00      22.85
 90.27     516.43      22.73
 90.37     573.84      23.95
 90.47     570.27      23.88
 90.57     491.00      22.16
 90.67     547.00      23.39
 90.77     511.00      22.61
 90.87     557.00      23.60
 90.97     503.00      22.43
 91.07     498.52      22.33
 91.17     503.00      22.43
 91.27     503.25      22.43
 91.37     490.00      22.14
 91.47     518.00      22.76
 91.57     499.91      22.36
 91.67     544.00      23.32
 91.77     551.00      23.47
 91.87     512.83      22.65
 91.97     565.60      23.78
 92.07     539.15      23.22
 92.17     553.00      23.52
 92.27     567.00      23.81
 92.37     564.00      23.75
 92.47     612.00      24.74
 92.57     631.00      25.12
 92.67     654.00      25.57
 92.77     672.00      25.92
 92.87     665.08      25.79
 92.97     687.00      26.21
 93.07     741.43      27.23
 93.17     771.04      27.77
 93.27     807.44      28.42
 93.37     751.56      27.41
 93.47     774.00      27.82
 93.57     826.00      28.74
 93.67     799.99      28.28
 93.77     853.59      29.22
 93.87     883.00      29.72
 93.97     854.00      29.22
 94.07     878.00      29.63
 94.17     794.95      28.19
 94.27     882.35      29.70
 94.37     812.71      28.51
 94.47     812.71      28.51
 94.57     844.27      29.06
 94.67     899.17      29.99
 94.77     934.00      30.56
 94.87     881.29      29.69
 94.97     853.00      29.21
 95.07     885.00      29.75
 95.17     872.00      29.53
 95.27     797.06      28.23
 95.37     767.65      27.71
 95.47     774.00      27.82
 95.57     766.00      27.68
 95.67     727.00      26.96
 95.77     669.00      25.87
 95.87     716.72      26.77
 95.97     694.00      26.34
 96.07     722.09      26.87
 96.17     743.00      27.26
 96.27     757.00      27.51
 96.37     747.00      27.33
 96.47     852.00      29.19
 96.57     920.72      30.34
 96.67     934.00      30.56
 96.77     940.00      30.66
 96.87    1037.00      32.20
 96.97    1191.00      34.51
 97.07    1254.63      35.42
 97.17    1315.00      36.26
 97.27    1394.00      37.34
 97.37    1395.00      37.35
 97.47    1429.88      37.81
 97.57    1459.00      38.20
 97.67    1429.00      37.80
 97.77    1447.45      38.05
 97.87    1312.00      36.22
 97.97    1306.00      36.14
 98.07    1221.00      34.94
 98.17    1103.05      33.21
 98.27    1090.54      33.02
 98.37    1003.00      31.67
 98.47     966.50      31.09
 98.57     969.05      31.13
 98.67     864.00      29.39
 98.77     771.00      27.77
 98.87     836.00      28.91
 98.97     809.00      28.44
 99.07     769.00      27.73
 99.17     918.51      30.31
 99.27     878.00      29.63
 99.37     926.23      30.43
 99.47     999.00      31.61
 99.57    1099.00      33.15
 99.67    1260.00      35.50
 99.77    1318.63      36.31
 99.87    1385.17      37.22
 99.97    1508.88      38.84
100.07    1603.00      40.04
100.17    1723.00      41.51
100.27    1793.00      42.34
100.37    1977.00      44.46
100.47    2038.00      45.14
100.57    1955.73      44.22
100.67    2052.43      45.30
100.77    2041.00      45.18
100.87    1992.00      44.63
100.97    1952.00      44.18
101.07    1909.00      43.69
101.17    1866.00      43.20
101.27    1713.00      41.39
101.37    1574.00      39.67
101.47    1524.00      39.04
101.57    1504.06      38.78
101.67    1345.00      36.67
101.77    1424.00      37.74
101.87    1334.00      36.52
101.97    1286.72      35.87
102.07    1230.00      35.07
102.17    1241.45      35.23
102.27    1152.00      33.94
102.37    1119.00      33.45
102.47    1090.00      33.02
102.57    1054.17      32.47
102.67    1033.92      32.15
102.77    1003.65      31.68
102.87     974.00      31.21
102.97     988.45      31.44
103.07     916.00      30.27
103.17     863.58      29.39
103.27     899.00      29.98
103.37     840.46      28.99
103.47     765.12      27.66
103.57     749.00      27.37
103.67     706.00      26.57
103.77     716.00      26.76
103.87     678.00      26.04
103.97     693.00      26.32
104.07     604.34      24.58
104.17     581.92      24.12
104.27     573.00      23.94
104.37     601.00      24.52
104.47     570.00      23.87
104.57     556.00      23.58
104.67     520.00      22.80
104.77     526.00      22.93
104.87     514.27      22.68
104.97     499.00      22.34
105.07     549.00      23.43
105.17     572.00      23.92
105.27     562.71      23.72
105.37     569.00      23.85
105.47     526.80      22.95
105.57     534.56      23.12
105.67     513.63      22.66
105.77     565.69      23.78
105.87     536.78      23.17
105.97     539.00      23.22
106.07     553.00      23.52
106.17     583.00      24.15
106.27     655.00      25.59
106.37     570.00      23.87
106.47     608.00      24.66
106.57     636.00      25.22
106.67     682.92      26.13
106.77     665.00      25.79
106.87     692.00      26.31
106.97     678.00      26.04
107.07     644.00      25.38
107.17     650.47      25.50
107.27     696.00      26.38
107.37     723.00      26.89
107.47     691.00      26.29
107.57     691.76      26.30
107.67     678.00      26.04
107.77     699.81      26.45
107.87     691.51      26.30
107.97     714.33      26.73
108.07     722.00      26.87
108.17     645.98      25.42
108.27     700.00      26.46
108.37     724.00      26.91
108.47     723.00      26.89
108.57     727.04      26.96
108.67     657.90      25.65
108.77     680.00      26.08
108.87     706.00      26.57
108.97     674.00      25.96
109.07     643.57      25.37
109.17     682.00      26.12
109.27     632.00      25.14
109.37     659.00      25.67
109.47     602.54      24.55
109.57     662.40      25.74
109.67     596.36      24.42
109.77     602.00      24.54
109.87     615.40      24.81
109.97     558.38      23.63
110.07     590.69      24.30
110.17     565.86      23.79
110.27     598.00      24.45
110.37     582.00      24.12
110.47     532.45      23.07
110.57     519.00      22.78
110.67     553.00      23.52
110.77     504.89      22.47
110.87     582.00      24.12
110.97     588.00      24.25
111.07     554.50      23.55
111.17     540.28      23.24
111.27     503.07      22.43
111.37     498.94      22.34
111.47     539.00      23.22
111.57     562.41      23.72
111.67     530.00      23.02
111.77     547.72      23.40
111.87     550.00      23.45
111.97     523.00      22.87
112.07     551.00      23.47
112.17     550.89      23.47
112.27     556.14      23.58
112.37     624.67      24.99
112.47     598.58      24.47
112.57     604.00      24.58
112.67     588.48      24.26
112.77     608.38      24.67
112.87     601.05      24.52
112.97     662.00      25.73
113.07     647.00      25.44
113.17     638.00      25.26
113.27     723.76      26.90
113.37     675.00      25.98
113.47     714.00      26.72
113.57     673.00      25.94
113.67     798.94      28.27
113.77     778.00      27.89
113.87     881.76      29.69
113.97     844.00      29.05
114.07     917.00      30.28
114.17     966.00      31.08
114.27    1063.00      32.60
114.37    1132.00      33.65
114.47    1207.00      34.74
114.57    1365.00      36.95
114.67    1512.00      38.88
114.77    1591.04      39.89
114.87    1888.00      43.45
114.97    2189.00      46.79
115.07    2379.00      48.77
115.17    2613.00      51.12
115.27    2836.07      53.25
115.37    3072.85      55.43
115.47    3486.00      59.04
115.57    3783.00      61.51
115.67    4076.32      63.85
115.77    4520.00      67.23
115.87    4753.00      68.94
115.97    5267.00      72.57
116.07    5682.12      75.38
116.17    5968.00      77.25
116.27    6153.38      78.44
116.37    6528.74      80.80
116.47    6730.75      82.04
116.57    6683.00      81.75
116.67    6733.00      82.05
116.77    6760.00      82.22
116.87    6587.89      81.17
116.97    6408.00      80.05
117.07    6220.00      78.87
117.17    5879.06      76.68
117.27    5459.00      73.89
117.37    5214.00      72.21
117.47    4823.00      69.45
117.57    4582.00      67.69
117.67    4132.00      64.28
117.77    3843.27      61.99
117.87    3396.36      58.28
117.97    3138.00      56.02
118.07    2825.00      53.15
118.17    2621.00      51.20
118.27    2190.00      46.80
118.37    1992.37      44.64
118.47    1766.00      42.02
118.57    1566.00      39.57
118.67    1321.00      36.35
118.77    1206.00      34.73
118.87    1134.00      33.67
118.97    1032.00      32.12
119.07    1011.95      31.81
119.17     957.78      30.95
119.27     871.60      29.52
119.37     836.49      28.92
119.47     796.62      28.22
119.57     695.00      26.36
119.67     670.00      25.88
119.77     705.00      26.55
119.87     662.00      25.73
119.97     587.26      24.23
120.07     624.00      24.98
120.17     597.00      24.43
120.27     628.00      25.06
120.37     585.00      24.19
120.47     566.00      23.79
120.57     559.00      23.64
120.67     540.00      23.24
120.77     555.00      23.56
120.87     606.00      24.62
120.97     598.00      24.45
121.07     597.39      24.44
121.17     593.00      24.35
121.27     533.00      23.09
121.37     568.00      23.83
121.47     548.85      23.43
121.57     568.00      23.83
121.67     583.00      24.15
121.77     615.52      24.81
121.87     593.00      24.35
121.97     562.01      23.71
122.07     606.17      24.62
122.17     620.00      24.90
122.27     631.00      25.12
122.37     659.00      25.67
122.47     612.77      24.75
122.57     655.00      25.59
122.67     641.51      25.33
122.77     655.47      25.60
122.87     608.00      24.66
122.97     658.00      25.65
123.07     659.00      25.67
123.17     643.00      25.36
123.27     678.01      26.04
123.37     612.00      24.74
123.47     663.00      25.75
123.57     647.68      25.45
123.67     653.00      25.55
123.77     647.00      25.44
123.87     618.15      24.86
123.97     622.77      24.96
124.07     651.00      25.51
124.17     619.00      24.88
124.27     632.00      25.14
124.37     626.00      25.02
124.47     577.00      24.02
124.57     562.45      23.72
124.67     580.07      24.08
124.77     609.00      24.68
124.87     581.00      24.10
124.97     603.00      24.56
