  9.97     619.00      24.88
 10.07     588.00      24.25
 10.17     600.00      24.49
 10.27     595.22      24.40
 10.37     588.00      24.25
 10.47     602.00      24.54
 10.57     584.75      24.18
 10.67     611.00      24.72
 10.77     574.00      23.96
 10.87     573.00      23.94
 10.97     582.00      24.12
 11.07     635.00      25.20
 11.17     574.00      23.96
 11.27     581.00      24.10
 11.37     590.00      24.29
 11.47     578.00      24.04
 11.57     589.57      24.28
 11.67     628.00      25.06
 11.77     599.22      24.48
 11.87     601.00      24.52
 11.97     659.00      25.67
 12.07     666.00      25.81
 12.17     672.51      25.93
 12.27     682.00      26.12
 12.37     683.00      26.13
 12.47     622.45      24.95
 12.57     586.01      24.21
 12.67     612.00      24.74
 12.77     590.00      24.29
 12.87     620.75      24.91
 12.97     599.62      24.49
 13.07     560.00      23.66
 13.17     533.00      23.09
 13.27     558.00      23.62
 13.37     536.00      23.15
 13.47     550.00      23.45
 13.57     585.17      24.19
 13.67     589.00      24.27
 13.77     561.22      23.69
 13.87     495.00      22.25
 13.97     617.28      24.85
 14.07     548.00      23.41
 14.17     597.00      24.43
 14.27     520.00      22.80
 14.37     569.30      23.86
 14.47     583.00      24.15
 14.57     536.00      23.15
 14.67     577.00      24.02
 14.77     564.00      23.75
 14.87     589.54      24.28
 14.97     569.00      23.85
 15.07     575.00      23.98
 15.17     551.00      23.47
 15.27     606.00      24.62
 15.37     543.00      23.30
 15.47     575.00      23.98
 15.57     609.00      24.68
 15.67     573.00      23.94
 15.77     529.61      23.01
 15.87     562.80      23.72
 15.97     597.00      24.43
 16.07     580.00      24.08
 16.17     572.65      23.93
 16.27     538.00      23.19
 16.37     600.79      24.51
 16.47     561.00      23.69
 16.57     547.00      23.39
 16.67     572.91      23.94
 16.77     554.00      23.54
 16.87     562.00      23.71
 16.97     614.00      24.78
 17.07     513.00      22.65
 17.17     576.00      24.00
 17.27     523.00      22.87
 17.37     547.22      23.39
 17.47     578.00      24.04
 17.57     526.82      22.95
 17.67     569.71      23.87
 17.77     544.41      23.33
 17.87     565.00      23.77
 17.97     589.16      24.27
 18.07     586.46      24.22
 18.17     523.00      22.87
 18.27     562.00      23.71
 18.37     576.00      24.00
 18.47     538.15      23.20
 18.57     558.00      23.62
 18.67     583.00      24.15
 18.77     573.00      23.94
 18.87     526.00      22.93
 18.97     555.00      23.56
 19.07     551.00      23.47
 19.17     577.29      24.03
 19.27     565.00      23.77
 19.37     574.00      23.96
 19.47     545.00      23.35
 19.57     540.76      23.25
 19.67     627.00      25.04
 19.77     519.70      22.80
 19.87     573.00      23.94
 19.97     517.15      22.74
 20.07     520.00      22.80
 20.17     560.96      23.68
 20.27     519.00      22.78
 20.37     548.00      23.41
 20.47     516.92      22.74
 20.57     553.00      23.52
 20.67     562.00      23.71
 20.77     565.86      23.79
 20.87     517.00      22.74
 20.97     585.80      24.20
 21.07     549.00      23.43
 21.17     574.00      23.96
 21.27     560.00      23.66
 21.37     518.00      22.76
 21.47     556.29      23.59
 21.57     537.00      23.17
 21.67     523.43      22.88
 21.77     530.00      23.02
 21.87     600.00      24.49
 21.97     598.01      24.45
 22.07     542.00      23.28
 22.17     536.06      23.15
 22.27     562.54      23.72
 22.37     577.22      24.03
 22.47     512.73      22.64
 22.57     509.00      22.56
 22.67     542.00      23.28
 22.77     526.00      22.93
 22.87     573.00      23.94
 22.97     561.00      23.69
 23.07     530.00      23.02
 23.17     559.94      23.66
 23.27     581.00      24.10
 23.37     590.00      24.29
 23.47     549.00      23.43
 23.57     528.00      22.98
 23.67     567.00      23.81
 23.77     551.00      23.47
 23.87     579.29      24.07
 23.97     504.00      22.45
 24.07     585.00      24.19
 24.17     570.00      23.87
 24.27     531.70      23.06
 24.37     560.00      23.66
 24.47     600.37      24.50
 24.57     560.00      23.66
 24.67     643.12      25.36
 24.77     634.00      25.18
 24.87     599.18      24.48
 24.97     552.00      23.49
 25.07     619.00      24.88
 25.17     550.10      23.45
 25.27     566.24      23.80
 25.37     562.00      23.71
 25.47     559.00      23.64
 25.57     558.00      23.62
 25.67     599.00      24.47
 25.77     541.00      23.26
 25.87     548.00      23.41
 25.97     591.00      24.31
 26.07     565.00      23.77
 26.17     524.87      22.91
 26.27     562.00      23.71
 26.37     578.23      24.05
 26.47     548.00      23.41
 26.57     486.00      22.05
 26.67     574.90      23.98
 26.77     588.75      24.26
 26.87     553.00      23.52
 26.97     534.97      23.13
 27.07     557.00      23.60
 27.17     510.87      22.60
 27.27     571.00      23.90
 27.37     510.76      22.60
 27.47     542.00      23.28
 27.57     533.44      23.10
 27.67     580.00      24.08
 27.77     597.00      24.43
 27.87     593.00      24.35
 27.97     666.00      25.81
 28.07     809.40      28.45
 28.17     863.00      29.38
 28.27     966.00      31.08
 28.37     891.00      29.85
 28.47     755.00      27.48
 28.57     764.00      27.64
 28.67     716.00      26.76
 28.77     750.00      27.39
 28.87     800.67      28.30
 28.97     836.00      28.91
 29.07     799.00      28.27
 29.17     719.00      26.81
 29.27     647.00      25.44
 29.37     579.08      24.06
 29.47     627.28      25.05
 29.57     587.00      24.23
 29.67     622.00      24.94
 29.77     580.00      24.08
 29.87     540.83      23.26
 29.97     528.00      22.98
 30.07     548.86      23.43
 30.17     509.90      22.58
 30.27     526.00      22.93
 30.37     580.00      24.08
 30.47     523.51      22.88
 30.57     554.00      23.54
 30.67     545.00      23.35
 30.77     608.00      24.66
 30.87     595.00      24.39
 30.97     585.00      24.19
 31.07     625.00      25.00
 31.17     536.96      23.17
 31.27     545.00      23.35
 31.37     581.35      24.11
 31.47     550.00      23.45
 31.57     545.00      23.35
 31.67     538.85      23.21
 31.77     544.00      23.32
 31.87     548.00      23.41
 31.97     555.00      23.56
 32.07     528.00      22.98
 32.17     518.27      22.77
 32.27     560.57      23.68
 32.37     483.79      22.00
 32.47     541.00      23.26
 32.57     505.87      22.49
 32.67     527.42      22.97
 32.77     572.00      23.92
 32.87     549.99      23.45
 32.97     502.00      22.41
 33.07     513.00      22.65
 33.17     555.00      23.56
 33.27     512.93      22.65
 33.37     557.23      23.61
 33.47     571.00      23.90
 33.57     582.00      24.12
 33.67     674.01      25.96
 33.77     743.00      27.26
 33.87     896.00      29.93
 33.97    1053.00      32.45
 34.07    1120.72      33.48
 34.17    1006.26      31.72
 34.27     874.00      29.56
 34.37     765.00      27.66
 34.47     625.00      25.00
 34.57     548.00      23.41
 34.67     544.02      23.32
 34.77     527.00      22.96
 34.87     510.33      22.59
 34.97     519.00      22.78
 35.07     531.00      23.04
 35.17     499.00      22.34
 35.27     510.08      22.58
 35.37     534.00      23.11
 35.47     559.63      23.66
 35.57     506.82      22.51
 35.67     550.51      23.46
 35.77     535.80      23.15
 35.87     519.00      22.78
 35.97     533.00      23.09
 36.07     511.00      22.61
 36.17     538.56      23.21
 36.27     536.00      23.15
 36.37     531.00      23.04
 36.47     509.00      22.56
 36.57     523.00      22.87
 36.67     524.63      22.90
 36.77     476.40      21.83
 36.87     497.00      22.29
 36.97     503.00      22.43
 37.07     522.00      22.85
 37.17     529.00      23.00
 37.27     544.00      23.32
 37.37     540.00      23.24
 37.47     519.00      22.78
 37.57     558.00      23.62
 37.67     569.64      23.87
 37.77     556.00      23.58
 37.87     594.00      24.37
 37.97     528.43      22.99
 38.07     546.00      23.37
 38.17     484.00      22.00
 38.27     496.08      22.27
 38.37     500.88      22.38
 38.47     570.00      23.87
 38.57     495.62      22.26
 38.67     540.03      23.24
 38.77     526.00      22.93
 38.87     540.00      23.24
 38.97     507.00      22.52
 39.07     503.98      22.45
 39.17     507.42      22.53
 39.27     521.00      22.83
 39.37     468.00      21.63
 39.47     529.00      23.00
 39.57     522.00      22.85
 39.67     486.00      22.05
 39.77     495.25      22.25
 39.87     547.01      23.39
 39.97     529.00      23.00
 40.07     487.00      22.07
 40.17     481.00      21.93
 40.27     532.00      23.07
 40.37     468.06      21.63
 40.47     511.00      22.61
 40.57     483.00      21.98
 40.67     538.00      23.19
 40.77     533.77      23.10
 40.87     519.46      22.79
 40.97     484.00      22.00
 41.07     467.06      21.61
 41.17     499.00      22.34
 41.27     533.76      23.10
 41.37     499.99      22.36
 41.47     471.65      21.72
 41.57     506.00      22.49
 41.67     528.96      23.00
 41.77     509.00      22.56
 41.87     484.00      22.00
 41.97     477.00      21.84
 42.07     520.16      22.81
 42.17     498.00      22.32
 42.27     510.00      22.58
 42.37     539.91      23.24
 42.47     576.00      24.00
 42.57     588.00      24.25
 42.67     643.00      25.36
 42.77     587.00      24.23
 42.87     578.00      24.04
 42.97     563.00      23.73
 43.07     594.05      24.37
 43.17     566.00      23.79
 43.27     538.29      23.20
 43.37     482.00      21.95
 43.47     521.00      22.83
 43.57     545.62      23.36
 43.67     490.00      22.14
 43.77     518.00      22.76
 43.87     510.29      22.59
 43.97     523.63      22.88
 44.07     533.00      23.09
 44.17     471.67      21.72
 44.27     453.00      21.28
 44.37     481.24      21.94
 44.47     521.20      22.83
 44.57     485.00      22.02
 44.67     494.00      22.23
 44.77     513.00      22.65
 44.87     509.00      22.56
 44.97     501.00      22.38
 45.07     540.79      23.25
 45.17     507.37      22.52
 45.27     548.44      23.42
 45.37     486.00      22.05
 45.47     549.27      23.44
 45.57     466.53      21.60
 45.67     525.00      22.91
 45.77     551.00      23.47
 45.87     484.00      22.00
 45.97     519.13      22.78
 46.07     513.00      22.65
 46.17     466.00      21.59
 46.27     476.21      21.82
 46.37     475.00      21.79
 46.47     474.06      21.77
 46.57     525.01      22.91
 46.67     498.00      22.32
 46.77     526.00      22.93
 46.87     526.00      22.93
 46.97     507.00      22.52
 47.07     493.17      22.21
 47.17     495.00      22.25
 47.27     537.00      23.17
 47.37     510.00      22.58
 47.47     563.00      23.73
 47.57     560.18      23.67
 47.67     565.27      23.78
 47.77     566.12      23.79
 47.87     574.50      23.97
 47.97     535.00      23.13
 48.07     538.14      23.20
 48.17     565.68      23.78
 48.27     602.00      24.54
 48.37     537.00      23.17
 48.47     551.00      23.47
 48.57     515.70      22.71
 48.67     526.00      22.93
 48.77     563.28      23.73
 48.87     574.00      23.96
 48.97     533.00      23.09
 49.07     562.44      23.72
 49.17     525.00      22.91
 49.27     564.00      23.75
 49.37     639.00      25.28
 49.47     718.00      26.80
 49.57     774.00      27.82
 49.67     879.53      29.66
 49.77    1183.58      34.40
 49.87    1503.00      38.77
 49.97    1860.00      43.13
 50.07    2324.00      48.21
 50.17    2460.00      49.60
 50.27    2414.00      49.13
 50.37    2227.00      47.19
 50.47    1826.00      42.73
 50.57    1526.96      39.08
 50.67    1089.00      33.00
 50.77     914.79      30.25
 50.87     692.37      26.31
 50.97     661.10      25.71
 51.07     671.00      25.90
 51.17     589.00      24.27
 51.27     638.00      25.26
 51.37     625.02      25.00
 51.47     561.30      23.69
 51.57     594.00      24.37
 51.67     599.00      24.47
 51.77     583.38      24.15
 51.87     531.48      23.05
 51.97     575.00      23.98
 52.07     548.00      23.41
 52.17     511.92      22.63
 52.27     513.29      22.66
 52.37     582.52      24.14
 52.47     513.09      22.65
 52.57     583.00      24.15
 52.67     599.00      24.47
 52.77     539.00      23.22
 52.87     633.00      25.16
 52.97     742.00      27.24
 53.07     802.43      28.33
 53.17     963.00      31.03
 53.27     976.95      31.26
 53.37    1127.00      33.57
 53.47    1263.68      35.55
 53.57    1227.24      35.03
 53.67    1139.00      33.75
 53.77    1014.17      31.85
 53.87     921.08      30.35
 53.97     815.00      28.55
 54.07     641.00      25.32
 54.17     657.43      25.64
 54.27     597.00      24.43
 54.37     591.12      24.31
 54.47     573.00      23.94
 54.57     580.00      24.08
 54.67     556.18      23.58
 54.77     519.00      22.78
 54.87     568.18      23.84
 54.97     570.00      23.87
 55.07     525.00      22.91
 55.17     571.00      23.90
 55.27     550.00      23.45
 55.37     506.00      22.49
 55.47     553.76      23.53
 55.57     540.60      23.25
 55.67     594.00      24.37
 55.77     568.00      23.83
 55.87     610.00      24.70
 55.97     636.00      25.22
 56.07     633.00      25.16
 56.17     709.00      26.63
 56.27     870.00      29.50
 56.37    1139.00      33.75
 56.47    1397.00      37.38
 56.57    1748.14      41.81
 56.67    2270.31      47.65
 56.77    2545.80      50.46
 56.87    2637.00      51.35
 56.97    2548.10      50.48
 57.07    2292.11      47.88
 57.17    1955.63      44.22
 57.27    1646.00      40.57
 57.37    1312.30      36.23
 57.47    1060.00      32.56
 57.57     856.00      29.26
 57.67     733.04      27.07
 57.77     688.02      26.23
 57.87     694.00      26.34
 57.97     653.00      25.55
 58.07     650.65      25.51
 58.17     716.00      26.76
 58.27     825.00      28.72
 58.37     820.08      28.64
 58.47     987.62      31.43
 58.57    1112.00      33.35
 58.67    1162.00      34.09
 58.77    1376.00      37.09
 58.87    1403.00      37.46
 58.97    1551.56      39.39
 59.07    1614.00      40.17
 59.17    1551.00      39.38
 59.27    1458.00      38.18
 59.37    1317.48      36.30
 59.47    1240.00      35.21
 59.57    1202.00      34.67
 59.67    1153.00      33.96
 59.77    1214.00      34.84
 59.87    1260.14      35.50
 59.97    1283.40      35.82
 60.07    1380.00      37.15
 60.17    1588.00      39.85
 60.27    1471.32      38.36
 60.37    1531.00      39.13
 60.47    1440.00      37.95
 60.57    1304.00      36.11
 60.67    1040.26      32.25
 60.77     901.91      30.03
 60.87     804.00      28.35
 60.97     718.00      26.80
 61.07     641.00      25.32
 61.17     636.06      25.22
 61.27     627.51      25.05
 61.37     618.00      24.86
 61.47     681.97      26.11
 61.57     713.00      26.70
 61.67     805.37      28.38
 61.77     990.00      31.46
 61.87    1038.00      32.22
 61.97    1214.42      34.85
 62.07    1391.33      37.30
 62.17    1358.00      36.85
 62.27    1451.17      38.09
 62.37    1274.00      35.69
 62.47    1176.00      34.29
 62.57    1026.00      32.03
 62.67     858.14      29.29
 62.77     722.00      26.87
 62.87     716.00      26.76
 62.97     597.77      24.45
 63.07     624.00      24.98
 63.17     556.52      23.59
 63.27     578.00      24.04
 63.37     580.70      24.10
 63.47     545.00      23.35
 63.57     563.48      23.74
 63.67     570.00      23.87
 63.77     582.00      24.12
 63.87     633.00      25.16
 63.97     697.00      26.40
 64.07     708.00      26.61
 64.17     801.00      28.30
 64.27     820.00      28.64
 64.37     903.00      30.05
 64.47    1006.00      31.72
 64.57    1037.00      32.20
 64.67     982.00      31.34
 64.77     996.00      31.56
 64.87     998.00      31.59
 64.97     974.00      31.21
 65.07     873.00      29.55
 65.17     760.47      27.58
 65.27     720.07      26.83
 65.37     693.00      26.32
 65.47     674.53      25.97
 65.57     580.24      24.09
 65.67     634.72      25.19
 65.77     576.00      24.00
 65.87     559.79      23.66
 65.97     552.00      23.49
 66.07     558.00      23.62
 66.17     547.60      23.40
 66.27     539.00      23.22
 66.37     581.00      24.10
 66.47     532.61      23.08
 66.57     524.10      22.89
 66.67     575.00      23.98
 66.77     595.21      24.40
 66.87     577.60      24.03
 66.97     627.00      25.04
 67.07     651.67      25.53
 67.17     646.00      25.42
 67.27     738.40      27.17
 67.37     839.00      28.97
 67.47    1097.24      33.12
 67.57    1215.72      34.87
 67.67    1509.00      38.85
 67.77    1746.34      41.79
 67.87    1996.00      44.68
 67.97    2305.00      48.01
 68.07    2459.00      49.59
 68.17    2435.91      49.35
 68.27    2285.00      47.80
 68.37    1979.00      44.49
 68.47    1735.47      41.66
 68.57    1513.00      38.90
 68.67    1234.00      35.13
 68.77    1024.00      32.00
 68.87     930.84      30.51
 68.97     799.12      28.27
 69.07     648.00      25.46
 69.17     635.16      25.20
 69.27     642.00      25.34
 69.37     584.25      24.17
 69.47     602.00      24.54
 69.57     564.00      23.75
 69.67     567.13      23.81
 69.77     603.72      24.57
 69.87     584.00      24.17
 69.97     528.00      22.98
 70.07     553.00      23.52
 70.17     593.00      24.35
 70.27     570.00      23.87
 70.37     571.00      23.90
 70.47     529.18      23.00
 70.57     612.58      24.75
 70.67     532.42      23.07
 70.77     619.92      24.90
 70.87     562.43      23.72
 70.97     663.42      25.76
 71.07     674.00      25.96
 71.17     752.00      27.42
 71.27     835.95      28.91
 71.37     899.00      29.98
 71.47    1136.88      33.72
 71.57    1161.00      34.07
 71.67    1447.00      38.04
 71.77    1569.00      39.61
 71.87    1782.31      42.22
 71.97    1958.78      44.26
 72.07    1896.83      43.55
 72.17    1870.00      43.24
 72.27    1748.00      41.81
 72.37    1698.00      41.21
 72.47    1508.00      38.83
 72.57    1364.00      36.93
 72.67    1126.00      33.56
 72.77    1053.00      32.45
 72.87     973.00      31.19
 72.97     867.00      29.44
 73.07     763.00      27.62
 73.17     815.12      28.55
 73.27     649.00      25.48
 73.37     618.00      24.86
 73.47     652.00      25.53
 73.57     615.00      24.80
 73.67     572.98      23.94
 73.77     623.28      24.97
 73.87     619.00      24.88
 73.97     627.00      25.04
 74.07     602.00      24.54
 74.17     568.74      23.85
 74.27     615.26      24.80
 74.37     593.91      24.37
 74.47     590.00      24.29
 74.57     592.00      24.33
 74.67     607.00      24.64
 74.77     635.00      25.20
 74.87     644.00      25.38
 74.97     606.00      24.62
 75.07     620.00      24.90
 75.17     591.00      24.31
 75.27     555.88      23.58
 75.37     596.00      24.41
 75.47     528.96      23.00
 75.57     546.00      23.37
 75.67     563.00      23.73
 75.77     556.50      23.59
 75.87     626.67      25.03
 75.97     582.75      24.14
 76.07     660.46      25.70
 76.17     652.66      25.55
 76.27     669.00      25.87
 76.37     645.00      25.40
 76.47     711.57      26.68
 76.57     687.00      26.21
 76.67     633.00      25.16
 76.77     717.02      26.78
 76.87     660.00      25.69
 76.97     611.00      24.72
 77.07     609.00      24.68
 77.17     608.03      24.66
 77.27     567.00      23.81
 77.37     538.21      23.20
 77.47     535.54      23.14
 77.57     582.41      24.13
 77.67     522.00      22.85
 77.77     572.14      23.92
 77.87     554.00      23.54
 77.97     515.00      22.69
 78.07     543.00      23.30
 78.17     561.00      23.69
 78.27     521.22      22.83
 78.37     525.00      22.91
 78.47     526.00      22.93
 78.57     485.00      22.02
 78.67     508.00      22.54
 78.77     500.00      22.36
 78.87     540.00      23.24
 78.97     526.00      22.93
 79.07     509.00      22.56
 79.17     515.00      22.69
 79.27     533.00      23.09
 79.37     567.00      23.81
 79.47     534.00      23.11
 79.57     562.09      23.71
 79.67     482.00      21.95
 79.77     538.00      23.19
 79.87     529.00      23.00
 79.97     521.00      22.83
 80.07     582.00      24.12
 80.17     577.00      24.02
 80.27     548.00      23.41
 80.37     590.00      24.29
 80.47     555.00      23.56
 80.57     631.00      25.12
 80.67     667.39      25.83
 80.77     660.00      25.69
 80.87     659.00      25.67
 80.97     679.00      26.06
 81.07     733.06      27.08
 81.17     740.00      27.20
 81.27     684.00      26.15
 81.37     796.00      28.21
 81.47     776.64      27.87
 81.57     770.80      27.76
 81.67     784.00      28.00
 81.77     694.00      26.34
 81.87     742.80      27.25
 81.97     717.00      26.78
 82.07     662.54      25.74
 82.17     656.96      25.63
 82.27     623.00      24.96
 82.37     580.56      24.09
 82.47     601.00      24.52
 82.57     586.00      24.21
 82.67     571.00      23.90
 82.77     569.00      23.85
 82.87     595.00      24.39
 82.97     600.83      24.51
 83.07     557.45      23.61
 83.17     548.00      23.41
 83.27     582.00      24.12
 83.37     565.00      23.77
 83.47     545.00      23.35
 83.57     527.00      22.96
 83.67     534.00      23.11
 83.77     606.00      24.62
 83.87     581.00      24.10
 83.97     543.39      23.31
 84.07     627.00      25.04
 84.17     622.13      24.94
 84.27     610.48      24.71
 84.37     610.17      24.70
 84.47     565.00      23.77
 84.57     560.00      23.66
 84.67     545.00      23.35
 84.77     545.36      23.35
 84.87     549.37      23.44
 84.97     506.76      22.51
 85.07     543.00      23.30
 85.17     493.00      22.20
 85.27     552.00      23.49
 85.37     513.28      22.66
 85.47     574.00      23.96
 85.57     554.83      23.55
 85.67     498.00      22.32
 85.77     487.00      22.07
 85.87     511.00      22.61
 85.97     548.77      23.43
 86.07     556.00      23.58
 86.17     520.00      22.80
 86.27     577.00      24.02
 86.37     486.00      22.05
 86.47     570.00      23.87
 86.57     558.00      23.62
 86.67     572.00      23.92
 86.77     557.00      23.60
 86.87     595.89      24.41
 86.97     612.84      24.76
 87.07     633.00      25.16
 87.17     569.78      23.87
 87.27     662.92      25.75
 87.37     651.00      25.51
 87.47     656.00      25.61
 87.57     675.77      26.00
 87.67     635.00      25.20
 87.77     639.00      25.28
 87.87     572.02      23.92
 87.97     600.00      24.49
 88.07     568.50      23.84
 88.17     627.59      25.05
 88.27     595.62      24.41
 88.37     571.44      23.90
 88.47     575.00      23.98
 88.57     549.00      23.43
 88.67     605.00      24.60
 88.77     590.00      24.29
 88.87     592.66      24.34
 88.97     612.19      24.74
 89.07     615.11      24.80
 89.17     632.03      25.14
 89.27     568.00      23.83
 89.37     615.56      24.81
 89.47     566.00      23.79
 89.57     586.45      24.22
 89.67     546.55      23.38
 89.77     605.00      24.60
 89.87     589.56      24.28
 89.97     527.62      22.97
 90.07     586.00      24.21
 90.17     528.97      23.00
 90.27     544.39      23.33
 90.37     489.00      22.11
 90.47     578.62      24.05
 90.57     561.00      23.69
 90.67     484.00      22.00
 90.77     528.00      22.98
 90.87     533.00      23.09
 90.97     526.00      22.93
 91.07     555.00      23.56
 91.17     560.74      23.68
 91.27     494.61      22.24
 91.37     509.32      22.57
 91.47     554.05      23.54
 91.57     529.00      23.00
 91.67     577.63      24.03
 91.77     503.00      22.43
 91.87     505.59      22.49
 91.97     577.04      24.02
 92.07     586.41      24.22
 92.17     565.00      23.77
 92.27     586.00      24.21
 92.37     614.00      24.78
 92.47     648.00      25.46
 92.57     629.00      25.08
 92.67     634.69      25.19
 92.77     647.37      25.44
 92.87     698.45      26.43
 92.97     747.02      27.33
 93.07     765.00      27.66
 93.17     742.13      27.24
 93.27     797.63      28.24
 93.37     794.00      28.18
 93.47     829.00      28.79
 93.57     834.77      28.89
 93.67     811.00      28.48
 93.77     828.00      28.77
 93.87     789.00      28.09
 93.97     784.41      28.01
 94.07     858.00      29.29
 94.17     868.00      29.46
 94.27     865.59      29.42
 94.37     886.00      29.77
 94.47     825.20      28.73
 94.57     843.80      29.05
 94.67     918.00      30.30
 94.77     887.69      29.79
 94.87     837.38      28.94
 94.97     869.33      29.48
 95.07     900.00      30.00
 95.17     849.42      29.14
 95.27     864.00      29.39
 95.37     739.83      27.20
 95.47     709.00      26.63
 95.57     721.00      26.85
 95.67     699.00      26.44
 95.77     658.13      25.65
 95.87     647.00      25.44
 95.97     637.00      25.24
 96.07     639.78      25.29
 96.17     659.73      25.69
 96.27     695.00      26.36
 96.37     701.04      26.48
 96.47     776.67      27.87
 96.57     829.80      28.81
 96.67     870.66      29.51
 96.77     996.00      31.56
 96.87    1079.52      32.86
 96.97    1077.14      32.82
 97.07    1223.42      34.98
 97.17    1328.00      36.44
 97.27    1287.00      35.87
 97.37    1401.00      37.43
 97.47    1420.00      37.68
 97.57    1449.99      38.08
 97.67    1374.00      37.07
 97.77    1365.00      36.95
 97.87    1345.00      36.67
 97.97    1329.00      36.46
 98.07    1211.00      34.80
 98.17    1111.90      33.35
 98.27    1108.00      33.29
 98.37    1039.32      32.24
 98.47     941.00      30.68
 98.57     908.00      30.13
 98.67     843.00      29.03
 98.77     778.68      27.90
 98.87     792.00      28.14
 98.97     848.67      29.13
 99.07     804.00      28.35
 99.17     785.68      28.03
 99.27     841.99      29.02
 99.37     938.00      30.63
 99.47    1038.00      32.22
 99.57    1117.42      33.43
 99.67    1189.00      34.48
 99.77    1282.00      35.81
 99.87    1386.67      37.24
 99.97    1554.00      39.42
100.07    1599.36      39.99
100.17    1678.00      40.96
100.27    1812.09      42.57
100.37    1943.00      44.08
100.47    2008.78      44.82
100.57    2096.58      45.79
100.67    2130.00      46.15
100.77    2129.00      46.14
100.87    2109.03      45.92
100.97    2059.00      45.38
101.07    1958.00      44.25
101.17    1912.17      43.73
101.27    1850.00      43.01
101.37    1694.00      41.16
101.47    1596.31      39.95
101.57    1534.00      39.17
101.67    1471.00      38.35
101.77    1407.44      37.52
101.87    1233.00      35.11
101.97    1270.94      35.65
102.07    1201.55      34.66
102.17    1132.22      33.65
102.27    1147.00      33.87
102.37    1056.00      32.50
102.47    1076.00      32.80
102.57    1056.00      32.50
102.67    1050.00      32.40
102.77    1006.02      31.72
102.87     994.00      31.53
102.97     956.00      30.92
103.07     917.00      30.28
103.17     897.00      29.95
103.27     889.00      29.82
103.37     808.00      28.43
103.47     749.83      27.38
103.57     744.00      27.28
103.67     674.00      25.96
103.77     652.03      25.53
103.87     617.00      24.84
103.97     651.00      25.51
104.07     629.00      25.08
104.17     544.94      23.34
104.27     600.00      24.49
104.37     606.00      24.62
104.47     524.00      22.89
104.57     568.46      23.84
104.67     559.66      23.66
104.77     534.19      23.11
104.87     557.92      23.62
104.97     543.00      23.30
105.07     533.00      23.09
105.17     554.19      23.54
105.27     631.00      25.12
105.37     489.55      22.13
105.47     586.00      24.21
105.57     527.00      22.96
105.67     581.14      24.11
105.77     530.00      23.02
105.87     571.55      23.91
105.97     578.00      24.04
106.07     561.00      23.69
106.17     607.00      24.64
106.27     580.80      24.10
106.37     583.00      24.15
106.47     553.00      23.52
106.57     607.00      24.64
106.67     605.43      24.61
106.77     605.00      24.60
106.87     672.99      25.94
106.97     637.00      25.24
107.07     660.00      25.69
107.17     679.00      26.06
107.27     690.00      26.27
107.37     680.37      26.08
107.47     671.80      25.92
107.57     691.00      26.29
107.67     669.00      25.87
107.77     714.01      26.72
107.87     697.00      26.40
107.97     726.61      26.96
108.07     661.00      25.71
108.17     689.00      26.25
108.27     692.25      26.31
108.37     703.77      26.53
108.47     680.00      26.08
108.57     693.00      26.32
108.67     713.00      26.70
108.77     670.00      25.88
108.87     677.00      26.02
108.97     666.00      25.81
109.07     659.83      25.69
109.17     711.60      26.68
109.27     673.00      25.94
109.37     640.41      25.31
109.47     631.00      25.12
109.57     640.17      25.30
109.67     656.00      25.61
109.77     649.00      25.48
109.87     625.00      25.00
109.97     620.00      24.90
110.07     627.00      25.04
110.17     589.00      24.27
110.27     562.69      23.72
110.37     559.00      23.64
110.47     556.00      23.58
110.57     550.00      23.45
110.67     542.00      23.28
110.77     547.00      23.39
110.87     575.00      23.98
110.97     564.46      23.76
111.07     524.00      22.89
111.17     554.00      23.54
111.27     545.00      23.35
111.37     565.00      23.77
111.47     543.00      23.30
111.57     565.00      23.77
111.67     534.00      23.11
111.77     520.00      22.80
111.87     528.08      22.98
111.97     601.75      24.53
112.07     533.00      23.09
112.17     562.00      23.71
112.27     544.00      23.32
112.37     590.00      24.29
112.47     638.00      25.26
112.57     563.83      23.75
112.67     620.30      24.91
112.77     639.00      25.28
112.87     631.00      25.12
112.97     638.00      25.26
113.07     664.30      25.77
113.17     689.00      26.25
113.27     748.00      27.35
113.37     706.00      26.57
113.47     730.67      27.03
113.57     752.00      27.42
113.67     816.00      28.57
113.77     826.00      28.74
113.87     914.00      30.23
113.97     993.96      31.53
114.07    1071.37      32.73
114.17    1113.62      33.37
114.27    1193.49      34.55
114.37    1241.91      35.24
114.47    1376.54      37.10
114.57    1386.00      37.23
114.67    1523.00      39.03
114.77    1746.00      41.79
114.87    1892.88      43.51
114.97    2147.00      46.34
115.07    2288.00      47.83
115.17    2558.00      50.58
115.27    2912.18      53.96
115.37    3088.00      55.57
115.47    3343.95      57.83
115.57    3775.60      61.45
115.67    4097.00      64.01
115.77    4456.00      66.75
115.87    4763.00      69.01
115.97    5291.00      72.74
116.07    5606.85      74.88
116.17    5907.00      76.86
116.27    6165.58      78.52
116.37    6593.24      81.20
116.47    6806.00      82.50
116.57    6830.00      82.64
116.67    6864.00      82.85
116.77    6733.84      82.06
116.87    6693.00      81.81
116.97    6588.00      81.17
117.07    6378.70      79.87
117.17    5990.00      77.40
117.27    5700.70      75.50
117.37    5445.62      73.79
117.47    4993.00      70.66
117.57    4750.98      68.93
117.67    4232.00      65.05
117.77    3876.88      62.26
117.87    3628.00      60.23
117.97    3243.22      56.95
118.07    2928.00      54.11
118.17    2691.00      51.87
118.27    2306.00      48.02
118.37    2070.20      45.50
118.47    1650.00      40.62
118.57    1530.66      39.12
118.67    1355.43      36.82
118.77    1277.00      35.74
118.87    1125.00      33.54
118.97     997.00      31.58
119.07     968.60      31.12
119.17     918.00      30.30
119.27     806.00      28.39
119.37     750.31      27.39
119.47     716.00      26.76
119.57     719.50      26.82
119.67     690.04      26.27
119.77     635.23      25.20
119.87     644.00      25.38
119.97     609.00      24.68
120.07     606.00      24.62
120.17     608.00      24.66
120.27     589.00      24.27
120.37     595.55      24.40
120.47     556.00      23.58
120.57     569.00      23.85
120.67     605.00      24.60
120.77     567.00      23.81
120.87     566.00      23.79
120.97     606.80      24.63
121.07     617.00      24.84
121.17     565.66      23.78
121.27     608.00      24.66
121.37     600.00      24.49
121.47     608.61      24.67
121.57     600.84      24.51
121.67     557.00      23.60
121.77     566.49      23.80
121.87     589.00      24.27
121.97     622.65      24.95
122.07     586.00      24.21
122.17     577.03      24.02
122.27     598.00      24.45
122.37     600.00      24.49
122.47     669.65      25.88
122.57     672.00      25.92
122.67     694.00      26.34
122.77     616.00      24.82
122.87     654.00      25.57
122.97     589.00      24.27
123.07     630.00      25.10
123.17     666.00      25.81
123.27     637.49      25.25
123.37     640.00      25.30
123.47     652.00      25.53
123.57     626.00      25.02
123.67     630.00      25.10
123.77     620.00      24.90
123.87     603.89      24.57
123.97     619.23      24.88
124.07     642.37      25.34
124.17     622.00      24.94
124.27     575.67      23.99
124.37     606.00      24.62
124.47     616.00      24.82
124.57     593.00      24.35
124.67     547.00      23.39
124.77     584.00      24.17
124.87     612.00      24.74
124.97     606.89      24.64
