  9.97     542.29      23.29
 10.07     558.00      23.62
 10.17     585.02      24.19
 10.27     639.00      25.28
 10.37     530.38      23.03
 10.47     523.09      22.87
 10.57     611.00      24.72
 10.67     570.00      23.87
 10.77     611.57      24.73
 10.87     524.15      22.89
 10.97     605.00      24.60
 11.07     611.00      24.72
 11.17     629.00      25.08
 11.27     539.00      23.22
 11.37     600.00      24.49
 11.47     562.95      23.73
 11.57     598.00      24.45
 11.67     593.00      24.35
 11.77     652.00      25.53
 11.87     651.00      25.51
 11.97     619.02      24.88
 12.07     666.00      25.81
 12.17     671.75      25.92
 12.27     670.00      25.88
 12.37     635.00      25.20
 12.47     636.00      25.22
 12.57     639.89      25.30
 12.67     535.00      23.13
 12.77     551.00      23.47
 12.87     528.80      23.00
 12.97     611.67      24.73
 13.07     600.00      24.49
 13.17     574.00      23.96
 13.27     560.48      23.67
 13.37     563.00      23.73
 13.47     561.87      23.70
 13.57     545.00      23.35
 13.67     600.00      24.49
 13.77     603.34      24.56
 13.87     567.00      23.81
 13.97     576.00      24.00
 14.07     584.71      24.18
 14.17     600.70      24.51
 14.27     541.00      23.26
 14.37     542.00      23.28
 14.47     547.00      23.39
 14.57     546.04      23.37
 14.67     525.58      22.93
 14.77     559.00      23.64
 14.87     551.00      23.47
 14.97     557.00      23.60
 15.07     591.05      24.31
 15.17     547.00      23.39
 15.27     605.79      24.61
 15.37     536.24      23.16
 15.47     566.76      23.81
 15.57     559.00      23.64
 15.67     559.75      23.66
 15.77     578.04      24.04
 15.87     540.84      23.26
 15.97     560.71      23.68
 16.07     572.00      23.92
 16.17     512.00      22.63
 16.27     593.73      24.37
 16.37     539.89      23.24
 16.47     596.00      24.41
 16.57     537.00      23.17
 16.67     559.00      23.64
 16.77     553.00      23.52
 16.87     529.00      23.00
 16.97     562.00      23.71
 17.07     600.31      24.50
 17.17     548.00      23.41
 17.27     557.00      23.60
 17.37     599.70      24.49
 17.47     594.13      24.37
 17.57     540.00      23.24
 17.67     543.00      23.30
 17.77     516.62      22.73
 17.87     589.57      24.28
 17.97     541.00      23.26
 18.07     608.00      24.66
 18.17     527.00      22.96
 18.27     556.42      23.59
 18.37     527.00      22.96
 18.47     608.50      24.67
 18.57     610.00      24.70
 18.67     575.00      23.98
 18.77     543.00      23.30
 18.87     542.00      23.28
 18.97     573.29      23.94
 19.07     558.00      23.62
 19.17     607.23      24.64
 19.27     522.00      22.85
 19.37     557.00      23.60
 19.47     545.00      23.35
 19.57     520.17      22.81
 19.67     560.67      23.68
 19.77     567.00      23.81
 19.87     565.00      23.77
 19.97     533.00      23.09
 20.07     532.00      23.07
 20.17     516.00      22.72
 20.27     562.00      23.71
 20.37     563.80      23.74
 20.47     524.00      22.89
 20.57     573.00      23.94
 20.67     517.59      22.75
 20.77     556.00      23.58
 20.87     543.45      23.31
 20.97     551.60      23.49
 21.07     541.52      23.27
 21.17     557.81      23.62
 21.27     546.00      23.37
 21.37     506.08      22.50
 21.47     516.00      22.72
 21.57     588.62      24.26
 21.67     518.99      22.78
 21.77     507.39      22.53
 21.87     564.00      23.75
 21.97     545.00      23.35
 22.07     577.00      24.02
 22.17     500.00      22.36
 22.27     544.00      23.32
 22.37     560.67      23.68
 22.47     536.00      23.15
 22.57     556.00      23.58
 22.67     561.00      23.69
 22.77     566.00      23.79
 22.87     550.00      23.45
 22.97     576.67      24.01
 23.07     582.41      24.13
 23.17     525.00      22.91
 23.27     526.00      22.93
 23.37     531.00      23.04
 23.47     553.00      23.52
 23.57     588.00      24.25
 23.67     529.59      23.01
 23.77     552.00      23.49
 23.87     588.62      24.26
 23.97     506.88      22.51
 24.07     526.93      22.95
 24.17     568.00      23.83
 24.27     588.00      24.25
 24.37     607.00      24.64
 24.47     619.00      24.88
 24.57     618.00      24.86
 24.67     595.80      24.41
 24.77     645.00      25.40
 24.87     641.31      25.32
 24.97     649.00      25.48
 25.07     568.00      23.83
 25.17     595.00      24.39
 25.27     561.61      23.70
 25.37     555.00      23.56
 25.47     577.57      24.03
 25.57     512.90      22.65
 25.67     582.00      24.12
 25.77     540.50      23.25
 25.87     547.00      23.39
 25.97     540.72      23.25
 26.07     567.00      23.81
 26.17     578.00      24.04
 26.27     505.00      22.47
 26.37     572.00      23.92
 26.47     504.18      22.45
 26.57     544.00      23.32
 26.67     497.09      22.30
 26.77     555.00      23.56
 26.87     564.00      23.75
 26.97     586.74      24.22
 27.07     560.08      23.67
 27.17     548.00      23.41
 27.27     520.34      22.81
 27.37     569.00      23.85
 27.47     565.00      23.77
 27.57     567.00      23.81
 27.67     548.83      23.43
 27.77     579.00      24.06
 27.87     592.00      24.33
 27.97     678.35      26.05
 28.07     785.34      28.02
 28.17     856.00      29.26
 28.27     930.00      30.50
 28.37     956.75      30.93
 28.47     818.00      28.60
 28.57     767.24      27.70
 28.67     664.72      25.78
 28.77     782.00      27.96
 28.87     752.89      27.44
 28.97     829.00      28.79
 29.07     755.47      27.49
 29.17     680.00      26.08
 29.27     666.00      25.81
 29.37     651.00      25.51
 29.47     625.00      25.00
 29.57     541.87      23.28
 29.67     600.00      24.49
 29.77     527.10      22.96
 29.87     584.00      24.17
 29.97     558.00      23.62
 30.07     582.45      24.13
 30.17     550.14      23.46
 30.27     609.00      24.68
 30.37     516.94      22.74
 30.47     557.02      23.60
 30.57     588.00      24.25
 30.67     566.00      23.79
 30.77     626.00      25.02
 30.87     567.38      23.82
 30.97     638.00      25.26
 31.07     571.00      23.90
 31.17     646.00      25.42
 31.27     530.00      23.02
 31.37     554.00      23.54
 31.47     526.45      22.94
 31.57     529.00      23.00
 31.67     563.00      23.73
 31.77     487.45      22.08
 31.87     554.00      23.54
 31.97     516.14      22.72
 32.07     488.92      22.11
 32.17     543.00      23.30
 32.27     574.09      23.96
 32.37     564.24      23.75
 32.47     488.38      22.10
 32.57     516.00      22.72
 32.67     533.00      23.09
 32.77     579.00      24.06
 32.87     522.89      22.87
 32.97     550.00      23.45
 33.07     546.00      23.37
 33.17     560.00      23.66
 33.27     564.00      23.75
 33.37     568.00      23.83
 33.47     525.90      22.93
 33.57     603.00      24.56
 33.67     642.00      25.34
 33.77     747.00      27.33
 33.87     863.00      29.38
 33.97     952.00      30.85
 34.07    1014.36      31.85
 34.17    1065.91      32.65
 34.27     956.00      30.92
 34.37     764.00      27.64
 34.47     645.00      25.40
 34.57     622.00      24.94
 34.67     593.75      24.37
 34.77     571.00      23.90
 34.87     537.50      23.18
 34.97     516.47      22.73
 35.07     506.00      22.49
 35.17     534.52      23.12
 35.27     528.00      22.98
 35.37     478.00      21.86
 35.47     492.88      22.20
 35.57     502.00      22.41
 35.67     528.00      22.98
 35.77     485.26      22.03
 35.87     522.21      22.85
 35.97     511.00      22.61
 36.07     507.57      22.53
 36.17     515.00      22.69
 36.27     489.54      22.13
 36.37     501.00      22.38
 36.47     507.00      22.52
 36.57     526.00      22.93
 36.67     537.00      23.17
 36.77     473.00      21.75
 36.87     513.00      22.65
 36.97     517.00      22.74
 37.07     550.21      23.46
 37.17     498.00      22.32
 37.27     517.45      22.75
 37.37     530.00      23.02
 37.47     555.19      23.56
 37.57     500.02      22.36
 37.67     536.86      23.17
 37.77     536.00      23.15
 37.87     584.00      24.17
 37.97     504.00      22.45
 38.07     539.00      23.22
 38.17     497.85      22.31
 38.27     501.93      22.40
 38.37     450.00      21.21
 38.47     509.00      22.56
 38.57     484.51      22.01
 38.67     541.05      23.26
 38.77     480.18      21.91
 38.87     497.72      22.31
 38.97     515.39      22.70
 39.07     508.00      22.54
 39.17     494.00      22.23
 39.27     548.65      23.42
 39.37     490.00      22.14
 39.47     503.00      22.43
 39.57     486.00      22.05
 39.67     464.00      21.54
 39.77     506.00      22.49
 39.87     539.38      23.22
 39.97     489.00      22.11
 40.07     526.00      22.93
 40.17     509.00      22.56
 40.27     497.00      22.29
 40.37     491.00      22.16
 40.47     543.69      23.32
 40.57     462.00      21.49
 40.67     464.00      21.54
 40.77     512.00      22.63
 40.87     478.00      21.86
 40.97     484.32      22.01
 41.07     501.00      22.38
 41.17     499.00      22.34
 41.27     460.66      21.46
 41.37     541.00      23.26
 41.47     506.31      22.50
 41.57     491.00      22.16
 41.67     526.00      22.93
 41.77     484.00      22.00
 41.87     511.54      22.62
 41.97     479.00      21.89
 42.07     543.34      23.31
 42.17     518.00      22.76
 42.27     548.00      23.41
 42.37     534.76      23.12
 42.47     588.00      24.25
 42.57     575.00      23.98
 42.67     585.00      24.19
 42.77     601.00      24.52
 42.87     636.16      25.22
 42.97     626.55      25.03
 43.07     554.00      23.54
 43.17     534.00      23.11
 43.27     528.00      22.98
 43.37     499.23      22.34
 43.47     510.00      22.58
 43.57     511.39      22.61
 43.67     479.00      21.89
 43.77     534.44      23.12
 43.87     544.39      23.33
 43.97     516.00      22.72
 44.07     523.00      22.87
 44.17     469.76      21.67
 44.27     493.00      22.20
 44.37     482.00      21.95
 44.47     477.00      21.84
 44.57     534.51      23.12
 44.67     509.00      22.56
 44.77     474.00      21.77
 44.87     532.00      23.07
 44.97     518.24      22.76
 45.07     532.00      23.07
 45.17     464.00      21.54
 45.27     498.00      22.32
 45.37     518.00      22.76
 45.47     520.00      22.80
 45.57     509.00      22.56
 45.67     497.00      22.29
 45.77     491.00      22.16
 45.87     510.00      22.58
 45.97     489.00      22.11
 46.07     512.24      22.63
 46.17     515.00      22.69
 46.27     499.00      22.34
 46.37     467.00      21.61
 46.47     493.00      22.20
 46.57     507.00      22.52
 46.67     489.45      22.12
 46.77     519.67      22.80
 46.87     470.98      21.70
 46.97     551.00      23.47
 47.07     480.00      21.91
 47.17     544.66      23.34
 47.27     537.00      23.17
 47.37     489.69      22.13
 47.47     524.00      22.89
 47.57     613.00      24.76
 47.67     540.35      23.25
 47.77     577.00      24.02
 47.87     570.00      23.87
 47.97     620.29      24.91
 48.07     536.64      23.17
 48.17     602.32      24.54
 48.27     540.09      23.24
 48.37     588.45      24.26
 48.47     502.00      22.41
 48.57     530.00      23.02
 48.67     524.00      22.89
 48.77     562.00      23.71
 48.87     546.95      23.39
 48.97     514.00      22.67
 49.07     527.71      22.97
 49.17     533.00      23.09
 49.27     557.00      23.60
 49.37     619.08      24.88
 49.47     640.00      25.30
 49.57     754.63      27.47
 49.67     862.26      29.36
 49.77    1138.00      33.73
 49.87    1401.00      37.43
 49.97    1771.00      42.08
 50.07    2086.00      45.67
 50.17    2277.00      47.72
 50.27    2340.22      48.38
 50.37    2132.00      46.17
 50.47    1827.00      42.74
 50.57    1374.00      37.07
 50.67    1081.72      32.89
 50.77     961.52      31.01
 50.87     723.00      26.89
 50.97     682.00      26.12
 51.07     604.00      24.58
 51.17     629.00      25.08
 51.27     647.35      25.44
 51.37     579.00      24.06
 51.47     588.00      24.25
 51.57     551.93      23.49
 51.67     579.00      24.06
 51.77     562.00      23.71
 51.87     530.00      23.02
 51.97     543.00      23.30
 52.07     494.91      22.25
 52.17     520.22      22.81
 52.27     521.28      22.83
 52.37     534.39      23.12
 52.47     582.00      24.12
 52.57     575.54      23.99
 52.67     592.00      24.33
 52.77     552.88      23.51
 52.87     648.46      25.46
 52.97     707.00      26.59
 53.07     775.13      27.84
 53.17     891.00      29.85
 53.27    1024.00      32.00
 53.37    1076.00      32.80
 53.47    1229.00      35.06
 53.57    1140.00      33.76
 53.67    1135.00      33.69
 53.77     976.32      31.25
 53.87     864.97      29.41
 53.97     847.02      29.10
 54.07     663.16      25.75
 54.17     676.66      26.01
 54.27     596.69      24.43
 54.37     598.00      24.45
 54.47     574.00      23.96
 54.57     564.00      23.75
 54.67     541.00      23.26
 54.77     608.00      24.66
 54.87     574.00      23.96
 54.97     537.00      23.17
 55.07     498.64      22.33
 55.17     576.00      24.00
 55.27     574.00      23.96
 55.37     606.00      24.62
 55.47     573.00      23.94
 55.57     568.00      23.83
 55.67     556.00      23.58
 55.77     586.00      24.21
 55.87     612.00      24.74
 55.97     654.75      25.59
 56.07     732.69      27.07
 56.17     803.04      28.34
 56.27     928.00      30.46
 56.37    1182.74      34.39
 56.47    1378.96      37.13
 56.57    1684.77      41.05
 56.67    2107.24      45.90
 56.77    2359.00      48.57
 56.87    2630.00      51.28
 56.97    2575.00      50.74
 57.07    2365.00      48.63
 57.17    2056.00      45.34
 57.27    1766.00      42.02
 57.37    1357.00      36.84
 57.47    1103.18      33.21
 57.57     944.00      30.72
 57.67     792.96      28.16
 57.77     765.00      27.66
 57.87     727.00      26.96
 57.97     652.00      25.53
 58.07     717.28      26.78
 58.17     739.03      27.19
 58.27     808.50      28.43
 58.37     800.59      28.29
 58.47     900.00      30.00
 58.57     911.00      30.18
 58.67    1076.01      32.80
 58.77    1102.64      33.21
 58.87    1280.00      35.78
 58.97    1244.54      35.28
 59.07    1334.00      36.52
 59.17    1372.54      37.05
 59.27    1393.00      37.32
 59.37    1189.46      34.49
 59.47    1207.00      34.74
 59.57    1241.00      35.23
 59.67    1178.00      34.32
 59.77    1160.00      34.06
 59.87    1228.78      35.05
 59.97    1376.00      37.09
 60.07    1503.00      38.77
 60.17    1588.00      39.85
 60.27    1590.00      39.87
 60.37    1445.62      38.02
 60.47    1333.16      36.51
 60.57    1203.59      34.69
 60.67    1050.44      32.41
 60.77     894.05      29.90
 60.87     767.00      27.69
 60.97     738.36      27.17
 61.07     704.00      26.53
 61.17     629.00      25.08
 61.27     672.00      25.92
 61.37     678.76      26.05
 61.47     686.00      26.19
 61.57     760.00      27.57
 61.67     856.00      29.26
 61.77     934.00      30.56
 61.87    1047.00      32.36
 61.97    1270.15      35.64
 62.07    1295.00      35.99
 62.17    1390.19      37.29
 62.27    1376.00      37.09
 62.37    1335.91      36.55
 62.47    1187.00      34.45
 62.57    1093.00      33.06
 62.67     974.10      31.21
 62.77     777.00      27.87
 62.87     723.55      26.90
 62.97     704.00      26.53
 63.07     579.00      24.06
 63.17     627.06      25.04
 63.27     599.00      24.47
 63.37     560.04      23.67
 63.47     588.00      24.25
 63.57     603.00      24.56
 63.67     587.00      24.23
 63.77     589.16      24.27
 63.87     630.00      25.10
 63.97     683.00      26.13
 64.07     738.00      27.17
 64.17     800.00      28.28
 64.27     835.00      28.90
 64.37     922.63      30.37
 64.47     923.00      30.38
 64.57     929.27      30.48
 64.67     982.00      31.34
 64.77     983.00      31.35
 64.87     964.00      31.05
 64.97     913.54      30.22
 65.07     879.32      29.65
 65.17     795.29      28.20
 65.27     767.00      27.69
 65.37     690.00      26.27
 65.47     634.00      25.18
 65.57     592.00      24.33
 65.67     580.00      24.08
 65.77     579.00      24.06
 65.87     560.00      23.66
 65.97     561.15      23.69
 66.07     568.00      23.83
 66.17     565.18      23.77
 66.27     609.06      24.68
 66.37     560.00      23.66
 66.47     538.00      23.19
 66.57     588.82      24.27
 66.67     601.34      24.52
 66.77     594.00      24.37
 66.87     610.00      24.70
 66.97     605.34      24.60
 67.07     635.00      25.20
 67.17     651.00      25.51
 67.27     771.00      27.77
 67.37     869.97      29.50
 67.47    1020.48      31.94
 67.57    1229.00      35.06
 67.67    1574.00      39.67
 67.77    1711.21      41.37
 67.87    2027.26      45.03
 67.97    2236.36      47.29
 68.07    2277.06      47.72
 68.17    2476.96      49.77
 68.27    2318.94      48.16
 68.37    2141.00      46.27
 68.47    1842.45      42.92
 68.57    1560.80      39.51
 68.67    1330.98      36.48
 68.77    1145.00      33.84
 68.87     899.91      30.00
 68.97     815.00      28.55
 69.07     730.00      27.02
 69.17     619.61      24.89
 69.27     613.00      24.76
 69.37     621.00      24.92
 69.47     595.47      24.40
 69.57     642.00      25.34
 69.67     602.00      24.54
 69.77     566.00      23.79
 69.87     575.00      23.98
 69.97     580.41      24.09
 70.07     570.00      23.87
 70.17     568.00      23.83
 70.27     598.47      24.46
 70.37     575.00      23.98
 70.47     552.26      23.50
 70.57     597.35      24.44
 70.67     586.00      24.21
 70.77     557.43      23.61
 70.87     561.00      23.69
 70.97     636.66      25.23
 71.07     651.96      25.53
 71.17     753.00      27.44
 71.27     770.00      27.75
 71.37     989.84      31.46
 71.47    1066.00      32.65
 71.57    1247.00      35.31
 71.67    1366.32      36.96
 71.77    1609.00      40.11
 71.87    1777.71      42.16
 71.97    1941.25      44.06
 72.07    1868.00      43.22
 72.17    1846.00      42.97
 72.27    1701.73      41.25
 72.37    1596.48      39.96
 72.47    1480.00      38.47
 72.57    1248.00      35.33
 72.67    1163.00      34.10
 72.77     971.00      31.16
 72.87     859.42      29.32
 72.97     820.59      28.65
 73.07     704.00      26.53
 73.17     749.00      27.37
 73.27     695.00      26.36
 73.37     611.58      24.73
 73.47     615.21      24.80
 73.57     636.00      25.22
 73.67     598.00      24.45
 73.77     636.00      25.22
 73.87     595.00      24.39
 73.97     600.00      24.49
 74.07     555.16      23.56
 74.17     616.00      24.82
 74.27     580.00      24.08
 74.37     597.81      24.45
 74.47     667.00      25.83
 74.57     623.00      24.96
 74.67     650.00      25.50
 74.77     626.00      25.02
 74.87     684.00      26.15
 74.97     619.00      24.88
 75.07     629.00      25.08
 75.17     589.00      24.27
 75.27     591.00      24.31
 75.37     573.00      23.94
 75.47     583.00      24.15
 75.57     569.00      23.85
 75.67     553.49      23.53
 75.77     579.00      24.06
 75.87     625.12      25.00
 75.97     638.00      25.26
 76.07     622.00      24.94
 76.17     653.35      25.56
 76.27     652.76      25.55
 76.37     681.00      26.10
 76.47     697.00      26.40
 76.57     664.00      25.77
 76.67     689.00      26.25
 76.77     729.13      27.00
 76.87     716.00      26.76
 76.97     663.98      25.77
 77.07     612.00      24.74
 77.17     595.00      24.39
 77.27     601.06      24.52
 77.37     581.00      24.10
 77.47     565.00      23.77
 77.57     534.00      23.11
 77.67     529.93      23.02
 77.77     532.00      23.07
 77.87     514.62      22.69
 77.97     539.41      23.23
 78.07     572.17      23.92
 78.17     502.00      22.41
 78.27     563.25      23.73
 78.37     499.00      22.34
 78.47     509.00      22.56
 78.57     479.00      21.89
 78.67     563.73      23.74
 78.77     514.00      22.67
 78.87     545.69      23.36
 78.97     528.00      22.98
 79.07     509.00      22.56
 79.17     545.32      23.35
 79.27     509.39      22.57
 79.37     510.59      22.60
 79.47     504.38      22.46
 79.57     524.22      22.90
 79.67     544.00      23.32
 79.77     554.00      23.54
 79.87     527.77      22.97
 79.97     562.00      23.71
 80.07     535.02      23.13
 80.17     555.00      23.56
 80.27     567.47      23.82
 80.37     626.70      25.03
 80.47     557.00      23.60
 80.57     562.00      23.71
 80.67     614.00      24.78
 80.77     590.00      24.29
 80.87     641.00      25.32
 80.97     667.00      25.83
 81.07     735.79      27.13
 81.17     711.68      26.68
 81.27     762.58      27.61
 81.37     717.00      26.78
 81.47     720.00      26.83
 81.57     733.00      27.07
 81.67     737.00      27.15
 81.77     785.00      28.02
 81.87     709.00      26.63
 81.97     711.60      26.68
 82.07     629.00      25.08
 82.17     669.00      25.87
 82.27     677.20      26.02
 82.37     627.00      25.04
 82.47     655.22      25.60
 82.57     552.40      23.50
 82.67     566.00      23.79
 82.77     509.00      22.56
 82.87     607.57      24.65
 82.97     526.00      22.93
 83.07     531.55      23.06
 83.17     589.84      24.29
 83.27     568.00      23.83
 83.37     522.00      22.85
 83.47     544.62      23.34
 83.57     529.00      23.00
 83.67     564.26      23.75
 83.77     540.00      23.24
 83.87     591.00      24.31
 83.97     585.62      24.20
 84.07     567.00      23.81
 84.17     544.00      23.32
 84.27     556.00      23.58
 84.37     573.00      23.94
 84.47     511.00      22.61
 84.57     550.00      23.45
 84.67     514.00      22.67
 84.77     542.00      23.28
 84.87     586.50      24.22
 84.97     541.25      23.26
 85.07     525.45      22.92
 85.17     500.50      22.37
 85.27     513.00      22.65
 85.37     494.91      22.25
 85.47     518.61      22.77
 85.57     517.48      22.75
 85.67     569.00      23.85
 85.77     501.98      22.40
 85.87     516.00      22.72
 85.97     503.50      22.44
 86.07     529.00      23.00
 86.17     528.78      23.00
 86.27     561.00      23.69
 86.37     523.08      22.87
 86.47     503.97      22.45
 86.57     505.00      22.47
 86.67     538.00      23.19
 86.77     604.00      24.58
 86.87     569.00      23.85
 86.97     605.00      24.60
 87.07     594.00      24.37
 87.17     681.00      26.10
 87.27     599.81      24.49
 87.37     681.00      26.10
 87.47     658.00      25.65
 87.57     662.00      25.73
 87.67     692.00      26.31
 87.77     610.00      24.70
 87.87     603.00      24.56
 87.97     644.00      25.38
 88.07     631.00      25.12
 88.17     573.60      23.95
 88.27     617.00      24.84
 88.37     546.37      23.37
 88.47     535.27      23.14
 88.57     531.42      23.05
 88.67     584.00      24.17
 88.77     612.00      24.74
 88.87     631.00      25.12
 88.97     623.00      24.96
 89.07     604.00      24.58
 89.17     601.00      24.52
 89.27     592.00      24.33
 89.37     582.35      24.13
 89.47     622.00      24.94
 89.57     579.00      24.06
 89.67     606.00      24.62
 89.77     594.00      24.37
 89.87     479.00      21.89
 89.97     585.00      24.19
 90.07     608.20      24.66
 90.17     597.33      24.44
 90.27     506.00      22.49
 90.37     560.00      23.66
 90.47     559.00      23.64
 90.57     570.00      23.87
 90.67     499.00      22.34
 90.77     506.00      22.49
 90.87     497.00      22.29
 90.97     537.28      23.18
 91.07     516.00      22.72
 91.17     537.12      23.18
 91.27     537.00      23.17
 91.37     563.92      23.75
 91.47     549.00      23.43
 91.57     552.27      23.50
 91.67     513.00      22.65
 91.77     553.00      23.52
 91.87     533.00      23.09
 91.97     550.00      23.45
 92.07     546.64      23.38
 92.17     565.00      23.77
 92.27     608.00      24.66
 92.37     615.74      24.81
 92.47     571.00      23.90
 92.57     620.00      24.90
 92.67     659.00      25.67
 92.77     662.35      25.74
 92.87     663.00      25.75
 92.97     707.00      26.59
 93.07     718.00      26.80
 93.17     736.42      27.14
 93.27     706.46      26.58
 93.37     749.00      27.37
 93.47     753.00      27.44
 93.57     807.00      28.41
 93.67     768.02      27.71
 93.77     835.31      28.90
 93.87     760.05      27.57
 93.97     835.98      28.91
 94.07     847.00      29.10
 94.17     904.00      30.07
 94.27     870.83      29.51
 94.37     848.00      29.12
 94.47     856.00      29.26
 94.57     902.00      30.03
 94.67     901.00      30.02
 94.77     889.00      29.82
 94.87     885.78      29.76
 94.97     876.00      29.60
 95.07     850.42      29.16
 95.17     867.00      29.44
 95.27     840.00      28.98
 95.37     821.00      28.65
 95.47     788.00      28.07
 95.57     752.39      27.43
 95.67     750.00      27.39
 95.77     675.00      25.98
 95.87     762.00      27.60
 95.97     651.00      25.51
 96.07     697.15      26.40
 96.17     707.00      26.59
 96.27     756.00      27.50
 96.37     779.00      27.91
 96.47     839.71      28.98
 96.57     842.00      29.02
 96.67     920.00      30.33
 96.77     917.90      30.30
 96.87    1008.84      31.76
 96.97    1147.00      33.87
 97.07    1200.27      34.64
 97.17    1232.00      35.10
 97.27    1296.02      36.00
 97.37    1310.00      36.19
 97.47    1450.00      38.08
 97.57    1416.00      37.63
 97.67    1430.00      37.82
 97.77    1462.08      38.24
 97.87    1300.40      36.06
 97.97    1261.00      35.51
 98.07    1285.00      35.85
 98.17    1236.61      35.17
 98.27    1131.00      33.63
 98.37    1099.82      33.16
 98.47    1002.00      31.65
 98.57     877.00      29.61
 98.67     851.00      29.17
 98.77     833.00      28.86
 98.87     837.00      28.93
 98.97     842.00      29.02
 99.07     825.00      28.72
 99.17     863.00      29.38
 99.27     912.00      30.20
 99.37    1004.93      31.70
 99.47    1058.00      32.53
 99.57    1137.46      33.73
 99.67    1097.00      33.12
 99.77    1342.00      36.63
 99.87    1314.40      36.25
 99.97    1425.17      37.75
100.07    1583.00      39.79
100.17    1734.06      41.64
100.27    1818.00      42.64
100.37    1870.63      43.25
100.47    1815.00      42.60
100.57    2014.00      44.88
100.67    2054.00      45.32
100.77    2084.00      45.65
100.87    2079.41      45.60
100.97    1993.00      44.64
101.07    1929.00      43.92
101.17    1914.21      43.75
101.27    1734.00      41.64
101.37    1744.00      41.76
101.47    1674.00      40.91
101.57    1562.00      39.52
101.67    1411.00      37.56
101.77    1394.00      37.34
101.87    1304.00      36.11
101.97    1271.00      35.65
102.07    1273.92      35.69
102.17    1201.59      34.66
102.27    1232.14      35.10
102.37    1160.00      34.06
102.47    1099.17      33.15
102.57    1086.00      32.95
102.67    1038.00      32.22
102.77     998.00      31.59
102.87     999.21      31.61
102.97    1025.00      32.02
103.07    1021.68      31.96
103.17     942.78      30.70
103.27     927.31      30.45
103.37     870.00      29.50
103.47     833.00      28.86
103.57     752.00      27.42
103.67     723.00      26.89
103.77     703.00      26.51
103.87     665.54      25.80
103.97     638.04      25.26
104.07     589.00      24.27
104.17     616.00      24.82
104.27     607.00      24.64
104.37     596.00      24.41
104.47     568.00      23.83
104.57     560.00      23.66
104.67     567.88      23.83
104.77     600.00      24.49
104.87     533.00      23.09
104.97     539.54      23.23
105.07     609.00      24.68
105.17     557.00      23.60
105.27     490.48      22.15
105.37     485.62      22.04
105.47     553.66      23.53
105.57     519.75      22.80
105.67     548.00      23.41
105.77     577.83      24.04
105.87     552.42      23.50
105.97     595.00      24.39
106.07     592.00      24.33
106.17     547.00      23.39
106.27     565.54      23.78
106.37     590.00      24.29
106.47     587.00      24.23
106.57     636.00      25.22
106.67     616.00      24.82
106.77     685.00      26.17
106.87     693.11      26.33
106.97     652.00      25.53
107.07     682.79      26.13
107.17     676.00      26.00
107.27     710.00      26.65
107.37     654.00      25.57
107.47     684.88      26.17
107.57     679.93      26.08
107.67     671.00      25.90
107.77     678.00      26.04
107.87     703.65      26.53
107.97     713.37      26.71
108.07     719.59      26.83
108.17     646.00      25.42
108.27     691.00      26.29
108.37     682.00      26.12
108.47     750.73      27.40
108.57     704.14      26.54
108.67     727.94      26.98
108.77     682.00      26.12
108.87     657.87      25.65
108.97     731.00      27.04
109.07     718.68      26.81
109.17     657.00      25.63
109.27     635.00      25.20
109.37     704.00      26.53
109.47     684.00      26.15
109.57     670.00      25.88
109.67     620.00      24.90
109.77     656.00      25.61
109.87     606.00      24.62
109.97     611.00      24.72
110.07     644.00      25.38
110.17     619.74      24.89
110.27     578.00      24.04
110.37     595.00      24.39
110.47     546.00      23.37
110.57     571.54      23.91
110.67     530.00      23.02
110.77     583.00      24.15
110.87     550.00      23.45
110.97     549.03      23.43
111.07     547.00      23.39
111.17     526.00      22.93
111.27     542.00      23.28
111.37     574.00      23.96
111.47     499.27      22.34
111.57     524.33      22.90
111.67     581.97      24.12
111.77     516.76      22.73
111.87     575.00      23.98
111.97     534.01      23.11
112.07     584.06      24.17
112.17     606.02      24.62
112.27     533.00      23.09
112.37     558.01      23.62
112.47     583.37      24.15
112.57     600.00      24.49
112.67     596.00      24.41
112.77     617.00      24.84
112.87     619.00      24.88
112.97     580.00      24.08
113.07     658.71      25.67
113.17     602.00      24.54
113.27     670.15      25.89
113.37     619.00      24.88
113.47     709.00      26.63
113.57     705.00      26.55
113.67     723.00      26.89
113.77     767.06      27.70
113.87     790.00      28.11
113.97     894.00      29.90
114.07     899.72      30.00
114.17     911.00      30.18
114.27     924.00      30.40
114.37    1049.60      32.40
114.47    1194.52      34.56
114.57    1314.00      36.25
114.67    1426.54      37.77
114.77    1544.93      39.31
114.87    1853.00      43.05
114.97    1845.64      42.96
115.07    2225.25      47.17
115.17    2427.00      49.26
115.27    2785.00      52.77
115.37    2965.68      54.46
115.47    3331.00      57.71
115.57    3653.00      60.44
115.67    4050.00      63.64
115.77    4257.00      65.25
115.87    4722.58      68.72
115.97    5128.69      71.61
116.07    5330.07      73.01
116.17    5907.75      76.86
116.27    6224.00      78.89
116.37    6334.36      79.59
116.47    6738.00      82.09
116.57    6759.00      82.21
116.67    6868.00      82.87
116.77    6806.00      82.50
116.87    6553.00      80.95
116.97    6679.00      81.73
117.07    6511.00      80.69
117.17    6085.00      78.01
117.27    5590.00      74.77
117.37    5385.00      73.38
117.47    5021.00      70.86
117.57    4837.19      69.55
117.67    4469.00      66.85
117.77    4121.00      64.20
117.87    3754.00      61.27
117.97    3244.55      56.96
118.07    3124.74      55.90
118.17    2714.50      52.10
118.27    2383.00      48.82
118.37    2175.00      46.64
118.47    1961.00      44.28
118.57    1820.85      42.67
118.67    1520.00      38.99
118.77    1369.32      37.00
118.87    1184.00      34.41
118.97    1123.00      33.51
119.07     982.00      31.34
119.17     930.00      30.50
119.27     914.43      30.24
119.37     892.65      29.88
119.47     853.00      29.21
119.57     707.00      26.59
119.67     751.00      27.40
119.77     705.00      26.55
119.87     676.00      26.00
119.97     660.00      25.69
120.07     629.00      25.08
120.17     624.00      24.98
120.27     643.78      25.37
120.37     637.00      25.24
120.47     590.00      24.29
120.57     612.00      24.74
120.67     564.00      23.75
120.77     536.57      23.16
120.87     538.29      23.20
120.97     593.00      24.35
121.07     568.00      23.83
121.17     583.00      24.15
121.27     608.00      24.66
121.37     614.00      24.78
121.47     578.00      24.04
121.57     609.00      24.68
121.67     619.00      24.88
121.77     565.00      23.77
121.87     583.27      24.15
121.97     622.24      24.94
122.07     660.25      25.70
122.17     664.00      25.77
122.27     660.74      25.70
122.37     617.00      24.84
122.47     677.00      26.02
122.57     667.00      25.83
122.67     630.34      25.11
122.77     683.00      26.13
122.87     629.93      25.10
122.97     606.00      24.62
123.07     690.37      26.27
123.17     624.52      24.99
123.27     638.00      25.26
123.37     635.00      25.20
123.47     699.00      26.44
123.57     653.79      25.57
123.67     632.00      25.14
123.77     612.00      24.74
123.87     650.47      25.50
123.97     672.85      25.94
124.07     596.00      24.41
124.17     569.00      23.85
124.27     605.44      24.61
124.37     617.00      24.84
124.47     571.00      23.90
124.57     623.00      24.96
124.67     602.76      24.55
124.77     628.00      25.06
124.87     570.77      23.89
124.97     571.00      23.90
