  9.97     681.26      26.10
 10.07     715.79      26.75
 10.17     747.05      27.33
 10.27     749.00      27.37
 10.37     767.93      27.71
 10.47     771.86      27.78
 10.57     690.41      26.28
 10.67     695.72      26.38
 10.77     709.00      26.63
 10.87     730.65      27.03
 10.97     742.66      27.25
 11.07     707.70      26.60
 11.17     760.00      27.57
 11.27     750.93      27.40
 11.37     664.57      25.78
 11.47     737.00      27.15
 11.57     768.17      27.72
 11.67     766.00      27.68
 11.77     762.00      27.60
 11.87     763.00      27.62
 11.97     695.28      26.37
 12.07     810.63      28.47
 12.17     766.38      27.68
 12.27     881.00      29.68
 12.37     843.00      29.03
 12.47     816.00      28.57
 12.57     754.00      27.46
 12.67     754.00      27.46
 12.77     726.68      26.96
 12.87     685.00      26.17
 12.97     711.68      26.68
 13.07     703.00      26.51
 13.17     645.00      25.40
 13.27     672.00      25.92
 13.37     654.75      25.59
 13.47     667.20      25.83
 13.57     714.62      26.73
 13.67     653.79      25.57
 13.77     652.00      25.53
 13.87     644.61      25.39
 13.97     687.00      26.21
 14.07     691.00      26.29
 14.17     665.00      25.79
 14.27     686.00      26.19
 14.37     663.00      25.75
 14.47     655.67      25.61
 14.57     719.10      26.82
 14.67     685.96      26.19
 14.77     619.00      24.88
 14.87     659.89      25.69
 14.97     646.00      25.42
 15.07     655.00      25.59
 15.17     652.00      25.53
 15.27     698.65      26.43
 15.37     691.00      26.29
 15.47     638.00      25.26
 15.57     683.97      26.15
 15.67     657.00      25.63
 15.77     664.00      25.77
 15.87     625.00      25.00
 15.97     686.00      26.19
 16.07     660.13      25.69
 16.17     718.00      26.80
 16.27     656.43      25.62
 16.37     625.75      25.02
 16.47     623.45      24.97
 16.57     648.00      25.46
 16.67     672.00      25.92
 16.77     626.00      25.02
 16.87     713.32      26.71
 16.97     606.00      24.62
 17.07     676.00      26.00
 17.17     677.00      26.02
 17.27     646.00      25.42
 17.37     656.00      25.61
 17.47     620.78      24.92
 17.57     651.17      25.52
 17.67     650.00      25.50
 17.77     641.00      25.32
 17.87     616.00      24.82
 17.97     661.00      25.71
 18.07     659.65      25.68
 18.17     603.00      24.56
 18.27     658.11      25.65
 18.37     677.00      26.02
 18.47     638.00      25.26
 18.57     632.00      25.14
 18.67     637.53      25.25
 18.77     613.47      24.77
 18.87     663.00      25.75
 18.97     688.56      26.24
 19.07     624.00      24.98
 19.17     632.00      25.14
 19.27     659.77      25.69
 19.37     637.00      25.24
 19.47     643.00      25.36
 19.57     662.85      25.75
 19.67     645.43      25.41
 19.77     626.00      25.02
 19.87     609.00      24.68
 19.97     627.00      25.04
 20.07     619.00      24.88
 20.17     601.07      24.52
 20.27     644.76      25.39
 20.37     663.00      25.75
 20.47     609.00      24.68
 20.57     613.00      24.76
 20.67     595.00      24.39
 20.77     615.00      24.80
 20.87     613.00      24.76
 20.97     597.00      24.43
 21.07     616.00      24.82
 21.17     614.23      24.78
 21.27     614.00      24.78
 21.37     606.00      24.62
 21.47     573.00      23.94
 21.57     633.00      25.16
 21.67     676.00      26.00
 21.77     672.00      25.92
 21.87     672.47      25.93
 21.97     633.30      25.17
 22.07     640.00      25.30
 22.17     679.39      26.07
 22.27     599.00      24.47
 22.37     642.80      25.35
 22.47     650.22      25.50
 22.57     593.00      24.35
 22.67     632.00      25.14
 22.77     670.00      25.88
 22.87     637.00      25.24
 22.97     629.00      25.08
 23.07     617.00      24.84
 23.17     657.00      25.63
 23.27     629.00      25.08
 23.37     652.00      25.53
 23.47     608.00      24.66
 23.57     638.00      25.26
 23.67     632.20      25.14
 23.77     636.00      25.22
 23.87     647.42      25.44
 23.97     630.82      25.12
 24.07     633.00      25.16
 24.17     637.24      25.24
 24.27     656.34      25.62
 24.37     658.00      25.65
 24.47     692.00      26.31
 24.57     696.00      26.38
 24.67     664.00      25.77
 24.77     724.00      26.91
 24.87     675.13      25.98
 24.97     736.00      27.13
 25.07     690.00      26.27
 25.17     720.00      26.83
 25.27     742.00      27.24
 25.37     683.00      26.13
 25.47     687.04      26.21
 25.57     694.00      26.34
 25.67     699.30      26.44
 25.77     622.00      24.94
 25.87     641.00      25.32
 25.97     643.00      25.36
 26.07     624.00      24.98
 26.17     701.10      26.48
 26.27     702.37      26.50
 26.37     695.64      26.37
 26.47     700.00      26.46
 26.57     652.69      25.55
 26.67     617.86      24.86
 26.77     660.43      25.70
 26.87     707.00      26.59
 26.97     665.00      25.79
 27.07     661.00      25.71
 27.17     757.41      27.52
 27.27     670.10      25.89
 27.37     728.00      26.98
 27.47     802.92      28.34
 27.57     807.00      28.41
 27.67     820.00      28.64
 27.77     928.26      30.47
 27.87    1018.18      31.91
 27.97    1379.19      37.14
 28.07    1951.00      44.17
 28.17    3490.92      59.08
 28.27    5245.00      72.42
 28.37    7413.00      86.10
 28.47    8403.21      91.67
 28.57    7805.67      88.35
 28.67    6155.00      78.45
 28.77    4133.65      64.29
 28.87    3553.00      59.61
 28.97    3785.19      61.52
 29.07    4403.65      66.36
 29.17    4714.00      68.66
 29.27    4435.99      66.60
 29.37    3355.70      57.93
 29.47    2333.00      48.30
 29.57    1650.42      40.63
 29.67    1263.57      35.55
 29.77    1012.00      31.81
 29.87     922.00      30.36
 29.97     787.29      28.06
 30.07     884.00      29.73
 30.17     782.00      27.96
 30.27     762.00      27.60
 30.37     724.00      26.91
 30.47     730.00      27.02
 30.57     682.00      26.12
 30.67     713.00      26.70
 30.77     657.13      25.63
 30.87     695.31      26.37
 30.97     739.00      27.18
 31.07     781.94      27.96
 31.17     842.74      29.03
 31.27     748.00      27.35
 31.37     737.00      27.15
 31.47     707.00      26.59
 31.57     693.00      26.32
 31.67     675.00      25.98
 31.77     701.00      26.48
 31.87     664.61      25.78
 31.97     678.00      26.04
 32.07     642.45      25.35
 32.17     682.00      26.12
 32.27     579.52      24.07
 32.37     673.00      25.94
 32.47     608.83      24.67
 32.57     602.78      24.55
 32.67     647.36      25.44
 32.77     662.00      25.73
 32.87     675.00      25.98
 32.97     641.00      25.32
 33.07     697.00      26.40
 33.17     615.00      24.80
 33.27     664.00      25.77
 33.37     669.64      25.88
 33.47     632.00      25.14
 33.57     649.00      25.48
 33.67     698.00      26.42
 33.77     736.00      27.13
 33.87     852.00      29.19
 33.97     835.00      28.90
 34.07     931.36      30.52
 34.17    1105.50      33.25
 34.27    1203.94      34.70
 34.37    1292.00      35.94
 34.47    1238.00      35.19
 34.57     983.00      31.35
 34.67     890.63      29.84
 34.77     777.00      27.87
 34.87     773.48      27.81
 34.97     701.00      26.48
 35.07     633.66      25.17
 35.17     678.00      26.04
 35.27     680.00      26.08
 35.37     605.21      24.60
 35.47     667.00      25.83
 35.57     652.00      25.53
 35.67     584.12      24.17
 35.77     583.73      24.16
 35.87     638.94      25.28
 35.97     633.00      25.16
 36.07     584.42      24.17
 36.17     568.00      23.83
 36.27     574.46      23.97
 36.37     663.00      25.75
 36.47     590.81      24.31
 36.57     610.00      24.70
 36.67     568.25      23.84
 36.77     640.00      25.30
 36.87     628.00      25.06
 36.97     615.00      24.80
 37.07     623.00      24.96
 37.17     618.00      24.86
 37.27     613.68      24.77
 37.37     625.00      25.00
 37.47     595.00      24.39
 37.57     618.00      24.86
 37.67     638.00      25.26
 37.77     619.00      24.88
 37.87     617.34      24.85
 37.97     655.00      25.59
 38.07     714.00      26.72
 38.17     740.00      27.20
 38.27     734.00      27.09
 38.37     744.00      27.28
 38.47     750.00      27.39
 38.57     735.57      27.12
 38.67     686.67      26.20
 38.77     626.00      25.02
 38.87     654.64      25.59
 38.97     619.76      24.90
 39.07     605.00      24.60
 39.17     620.15      24.90
 39.27     653.50      25.56
 39.37     642.00      25.34
 39.47     629.17      25.08
 39.57     603.00      24.56
 39.67     582.00      24.12
 39.77     606.00      24.62
 39.87     602.00      24.54
 39.97     620.00      24.90
 40.07     567.99      23.83
 40.17     601.02      24.52
 40.27     567.47      23.82
 40.37     605.00      24.60
 40.47     579.33      24.07
 40.57     615.00      24.80
 40.67     586.00      24.21
 40.77     616.00      24.82
 40.87     605.00      24.60
 40.97     602.00      24.54
 41.07     578.00      24.04
 41.17     557.00      23.60
 41.27     584.83      24.18
 41.37     601.25      24.52
 41.47     588.00      24.25
 41.57     591.00      24.31
 41.67     614.00      24.78
 41.77     615.00      24.80
 41.87     583.00      24.15
 41.97     628.00      25.06
 42.07     613.00      24.76
 42.17     651.00      25.51
 42.27     573.00      23.94
 42.37     629.00      25.08
 42.47     608.00      24.66
 42.57     592.00      24.33
 42.67     610.00      24.70
 42.77     624.99      25.00
 42.87     626.00      25.02
 42.97     753.57      27.45
 43.07     702.00      26.50
 43.17     669.00      25.87
 43.27     673.00      25.94
 43.37     645.00      25.40
 43.47     633.00      25.16
 43.57     632.00      25.14
 43.67     652.00      25.53
 43.77     620.25      24.90
 43.87     626.00      25.02
 43.97     583.79      24.16
 44.07     624.00      24.98
 44.17     584.00      24.17
 44.27     635.51      25.21
 44.37     645.83      25.41
 44.47     617.17      24.84
 44.57     619.00      24.88
 44.67     644.84      25.39
 44.77     577.20      24.03
 44.87     600.00      24.49
 44.97     573.00      23.94
 45.07     582.00      24.12
 45.17     601.00      24.52
 45.27     618.00      24.86
 45.37     631.00      25.12
 45.47     597.00      24.43
 45.57     581.00      24.10
 45.67     646.75      25.43
 45.77     593.00      24.35
 45.87     657.00      25.63
 45.97     629.00      25.08
 46.07     552.00      23.49
 46.17     621.00      24.92
 46.27     575.00      23.98
 46.37     559.56      23.66
 46.47     644.00      25.38
 46.57     567.00      23.81
 46.67     569.00      23.85
 46.77     618.00      24.86
 46.87     599.00      24.47
 46.97     621.00      24.92
 47.07     656.00      25.61
 47.17     584.05      24.17
 47.27     566.00      23.79
 47.37     578.78      24.06
 47.47     610.00      24.70
 47.57     583.13      24.15
 47.67     622.00      24.94
 47.77     660.00      25.69
 47.87     642.00      25.34
 47.97     646.00      25.42
 48.07     689.00      26.25
 48.17     714.00      26.72
 48.27     671.00      25.90
 48.37     727.00      26.96
 48.47     686.00      26.19
 48.57     726.00      26.94
 48.67     665.00      25.79
 48.77     594.00      24.37
 48.87     633.00      25.16
 48.97     622.00      24.94
 49.07     686.00      26.19
 49.17     627.00      25.04
 49.27     639.00      25.28
 49.37     641.00      25.32
 49.47     635.27      25.20
 49.57     665.12      25.79
 49.67     764.00      27.64
 49.77     773.56      27.81
 49.87     830.00      28.81
 49.97     940.00      30.66
 50.07    1163.00      34.10
 50.17    1660.89      40.75
 50.27    1956.01      44.23
 50.37    2592.00      50.91
 50.47    2954.00      54.35
 50.57    3213.45      56.69
 50.67    3235.11      56.88
 50.77    2788.00      52.80
 50.87    2347.00      48.45
 50.97    1838.00      42.87
 51.07    1479.14      38.46
 51.17    1140.00      33.76
 51.27     938.47      30.63
 51.37     814.82      28.55
 51.47     855.00      29.24
 51.57     775.00      27.84
 51.67     752.00      27.42
 51.77     773.00      27.80
 51.87     674.28      25.97
 51.97     683.00      26.13
 52.07     693.39      26.33
 52.17     720.00      26.83
 52.27     709.00      26.63
 52.37     674.20      25.97
 52.47     673.00      25.94
 52.57     690.00      26.27
 52.67     671.00      25.90
 52.77     629.84      25.10
 52.87     628.00      25.06
 52.97     721.52      26.86
 53.07     706.04      26.57
 53.17     710.00      26.65
 53.27     743.67      27.27
 53.37     784.00      28.00
 53.47     854.93      29.24
 53.57     938.00      30.63
 53.67    1082.00      32.89
 53.77    1144.12      33.82
 53.87    1260.00      35.50
 53.97    1358.35      36.86
 54.07    1354.00      36.80
 54.17    1191.35      34.52
 54.27    1135.00      33.69
 54.37    1111.55      33.34
 54.47     988.00      31.43
 54.57     923.00      30.38
 54.67     786.00      28.04
 54.77     762.00      27.60
 54.87     730.81      27.03
 54.97     658.66      25.66
 55.07     705.00      26.55
 55.17     625.00      25.00
 55.27     720.62      26.84
 55.37     707.37      26.60
 55.47     696.00      26.38
 55.57     693.00      26.32
 55.67     683.78      26.15
 55.77     713.00      26.70
 55.87     675.02      25.98
 55.97     663.00      25.75
 56.07     721.00      26.85
 56.17     697.00      26.40
 56.27     691.00      26.29
 56.37     763.92      27.64
 56.47     890.14      29.84
 56.57     869.00      29.48
 56.67     991.00      31.48
 56.77    1303.55      36.10
 56.87    1444.00      38.00
 56.97    1763.00      41.99
 57.07    2098.00      45.80
 57.17    2454.00      49.54
 57.27    2706.00      52.02
 57.37    2711.00      52.07
 57.47    2637.00      51.35
 57.57    2355.00      48.53
 57.67    2085.00      45.66
 57.77    1656.01      40.69
 57.87    1377.37      37.11
 57.97    1232.22      35.10
 58.07    1043.00      32.30
 58.17     871.00      29.51
 58.27     869.00      29.48
 58.37     764.00      27.64
 58.47     754.08      27.46
 58.57     803.00      28.34
 58.67     845.00      29.07
 58.77     913.00      30.22
 58.87     913.00      30.22
 58.97    1049.00      32.39
 59.07    1131.99      33.65
 59.17    1286.30      35.87
 59.27    1226.00      35.01
 59.37    1381.00      37.16
 59.47    1319.00      36.32
 59.57    1288.97      35.90
 59.67    1333.00      36.51
 59.77    1235.72      35.15
 59.87    1188.98      34.48
 59.97    1212.00      34.81
 60.07    1294.84      35.98
 60.17    1232.00      35.10
 60.27    1376.02      37.09
 60.37    1430.00      37.82
 60.47    1487.58      38.57
 60.57    1614.00      40.17
 60.67    1641.00      40.51
 60.77    1686.00      41.06
 60.87    1547.00      39.33
 60.97    1513.79      38.91
 61.07    1254.00      35.41
 61.17    1225.65      35.01
 61.27    1072.00      32.74
 61.37     944.00      30.72
 61.47     898.60      29.98
 61.57     852.12      29.19
 61.67     766.60      27.69
 61.77     816.55      28.58
 61.87     875.00      29.58
 61.97     948.04      30.79
 62.07     976.00      31.24
 62.17    1126.00      33.56
 62.27    1302.00      36.08
 62.37    1448.00      38.05
 62.47    1633.00      40.41
 62.57    1748.86      41.82
 62.67    1844.00      42.94
 62.77    1759.00      41.94
 62.87    1628.87      40.36
 62.97    1560.00      39.50
 63.07    1371.40      37.03
 63.17    1212.00      34.81
 63.27    1045.01      32.33
 63.37     924.00      30.40
 63.47     913.96      30.23
 63.57     766.34      27.68
 63.67     778.72      27.91
 63.77     697.80      26.42
 63.87     676.47      26.01
 63.97     738.00      27.17
 64.07     670.83      25.90
 64.17     749.00      27.37
 64.27     750.00      27.39
 64.37     749.14      27.37
 64.47     863.00      29.38
 64.57     901.00      30.02
 64.67    1023.00      31.98
 64.77    1124.00      33.53
 64.87    1284.08      35.83
 64.97    1384.00      37.20
 65.07    1472.70      38.38
 65.17    1592.46      39.91
 65.27    1530.66      39.12
 65.37    1566.00      39.57
 65.47    1494.17      38.65
 65.57    1456.00      38.16
 65.67    1337.54      36.57
 65.77    1128.66      33.60
 65.87    1024.12      32.00
 65.97     997.00      31.58
 66.07     925.45      30.42
 66.17     789.00      28.09
 66.27     766.00      27.68
 66.37     801.67      28.31
 66.47     703.78      26.53
 66.57     692.00      26.31
 66.67     686.00      26.19
 66.77     697.70      26.41
 66.87     664.00      25.77
 66.97     661.08      25.71
 67.07     684.00      26.15
 67.17     730.59      27.03
 67.27     687.00      26.21
 67.37     691.00      26.29
 67.47     729.00      27.00
 67.57     823.00      28.69
 67.67     790.00      28.11
 67.77     914.56      30.24
 67.87    1038.00      32.22
 67.97    1141.83      33.79
 68.07    1294.56      35.98
 68.17    1452.00      38.11
 68.27    1852.84      43.04
 68.37    2021.00      44.96
 68.47    2319.00      48.16
 68.57    2448.04      49.48
 68.67    2600.22      50.99
 68.77    2482.73      49.83
 68.87    2375.00      48.73
 68.97    2244.00      47.37
 69.07    2045.90      45.23
 69.17    1683.33      41.03
 69.27    1549.42      39.36
 69.37    1280.00      35.78
 69.47    1132.94      33.66
 69.57    1011.00      31.80
 69.67     895.52      29.93
 69.77     865.00      29.41
 69.87     845.00      29.07
 69.97     759.00      27.55
 70.07     811.00      28.48
 70.17     691.19      26.29
 70.27     683.60      26.15
 70.37     711.00      26.66
 70.47     673.98      25.96
 70.57     728.00      26.98
 70.67     725.00      26.93
 70.77     711.00      26.66
 70.87     666.13      25.81
 70.97     675.00      25.98
 71.07     663.89      25.77
 71.17     769.00      27.73
 71.27     687.23      26.22
 71.37     781.00      27.95
 71.47     760.00      27.57
 71.57     759.00      27.55
 71.67     814.00      28.53
 71.77     943.05      30.71
 71.87     953.00      30.87
 71.97    1048.92      32.39
 72.07    1185.38      34.43
 72.17    1387.00      37.24
 72.27    1523.00      39.03
 72.37    1723.00      41.51
 72.47    1881.00      43.37
 72.57    1975.00      44.44
 72.67    2016.00      44.90
 72.77    2000.00      44.72
 72.87    1897.00      43.55
 72.97    1763.00      41.99
 73.07    1570.61      39.63
 73.17    1372.00      37.04
 73.27    1250.00      35.36
 73.37    1099.00      33.15
 73.47    1004.00      31.69
 73.57     908.00      30.13
 73.67     839.75      28.98
 73.77     776.00      27.86
 73.87     735.00      27.11
 73.97     721.00      26.85
 74.07     656.00      25.61
 74.17     699.87      26.46
 74.27     675.00      25.98
 74.37     618.00      24.86
 74.47     658.00      25.65
 74.57     666.31      25.81
 74.67     655.84      25.61
 74.77     672.00      25.92
 74.87     656.74      25.63
 74.97     649.00      25.48
 75.07     651.07      25.52
 75.17     711.00      26.66
 75.27     707.00      26.59
 75.37     724.00      26.91
 75.47     737.00      27.15
 75.57     730.00      27.02
 75.67     665.63      25.80
 75.77     727.00      26.96
 75.87     715.00      26.74
 75.97     620.74      24.91
 76.07     695.00      26.36
 76.17     726.00      26.94
 76.27     713.86      26.72
 76.37     681.13      26.10
 76.47     782.00      27.96
 76.57     763.00      27.62
 76.67     804.00      28.35
 76.77     830.00      28.81
 76.87     897.94      29.97
 76.97     963.00      31.03
 77.07    1009.00      31.76
 77.17     991.64      31.49
 77.27    1072.00      32.74
 77.37     964.84      31.06
 77.47     951.00      30.84
 77.57     947.80      30.79
 77.67     945.00      30.74
 77.77     878.00      29.63
 77.87     796.00      28.21
 77.97     864.00      29.39
 78.07     729.00      27.00
 78.17     705.00      26.55
 78.27     745.47      27.30
 78.37     631.00      25.12
 78.47     651.00      25.51
 78.57     624.88      25.00
 78.67     683.12      26.14
 78.77     643.00      25.36
 78.87     625.00      25.00
 78.97     611.65      24.73
 79.07     623.00      24.96
 79.17     605.00      24.60
 79.27     602.00      24.54
 79.37     614.00      24.78
 79.47     638.65      25.27
 79.57     608.90      24.68
 79.67     674.16      25.96
 79.77     641.11      25.32
 79.87     675.03      25.98
 79.97     657.00      25.63
 80.07     638.00      25.26
 80.17     611.21      24.72
 80.27     628.96      25.08
 80.37     702.27      26.50
 80.47     715.00      26.74
 80.57     705.00      26.55
 80.67     696.12      26.38
 80.77     804.00      28.35
 80.87     822.00      28.67
 80.97     874.00      29.56
 81.07     985.00      31.38
 81.17    1007.99      31.75
 81.27    1129.45      33.61
 81.37    1141.52      33.79
 81.47    1215.56      34.86
 81.57    1370.00      37.01
 81.67    1479.00      38.46
 81.77    1368.82      37.00
 81.87    1552.00      39.40
 81.97    1509.00      38.85
 82.07    1397.02      37.38
 82.17    1410.00      37.55
 82.27    1347.00      36.70
 82.37    1130.65      33.63
 82.47    1096.00      33.11
 82.57    1063.00      32.60
 82.67     960.10      30.99
 82.77     917.00      30.28
 82.87     877.00      29.61
 82.97     808.45      28.43
 83.07     746.00      27.31
 83.17     741.00      27.22
 83.27     794.89      28.19
 83.37     708.00      26.61
 83.47     733.59      27.08
 83.57     654.73      25.59
 83.67     656.00      25.61
 83.77     630.00      25.10
 83.87     619.90      24.90
 83.97     638.00      25.26
 84.07     660.00      25.69
 84.17     659.47      25.68
 84.27     592.00      24.33
 84.37     705.05      26.55
 84.47     659.00      25.67
 84.57     690.00      26.27
 84.67     624.00      24.98
 84.77     695.00      26.36
 84.87     663.00      25.75
 84.97     674.00      25.96
 85.07     679.00      26.06
 85.17     711.46      26.67
 85.27     646.00      25.42
 85.37     609.19      24.68
 85.47     651.00      25.51
 85.57     591.00      24.31
 85.67     618.00      24.86
 85.77     584.00      24.17
 85.87     638.00      25.26
 85.97     610.00      24.70
 86.07     620.00      24.90
 86.17     643.00      25.36
 86.27     613.00      24.76
 86.37     608.00      24.66
 86.47     580.71      24.10
 86.57     606.71      24.63
 86.67     643.00      25.36
 86.77     604.00      24.58
 86.87     671.00      25.90
 86.97     702.81      26.51
 87.07     618.55      24.87
 87.17     686.00      26.19
 87.27     652.64      25.55
 87.37     687.37      26.22
 87.47     668.62      25.86
 87.57     689.00      26.25
 87.67     697.00      26.40
 87.77     752.00      27.42
 87.87     724.00      26.91
 87.97     699.00      26.44
 88.07     760.00      27.57
 88.17     744.95      27.29
 88.27     776.00      27.86
 88.37     666.27      25.81
 88.47     771.65      27.78
 88.57     727.00      26.96
 88.67     648.21      25.46
 88.77     662.83      25.75
 88.87     742.00      27.24
 88.97     694.00      26.34
 89.07     655.00      25.59
 89.17     691.65      26.30
 89.27     638.00      25.26
 89.37     633.00      25.16
 89.47     611.00      24.72
 89.57     652.00      25.53
 89.67     669.00      25.87
 89.77     645.00      25.40
 89.87     671.00      25.90
 89.97     724.97      26.93
 90.07     629.99      25.10
 90.17     723.50      26.90
 90.27     693.00      26.32
 90.37     685.00      26.17
 90.47     665.15      25.79
 90.57     674.00      25.96
 90.67     628.41      25.07
 90.77     628.73      25.07
 90.87     681.00      26.10
 90.97     659.00      25.67
 91.07     600.00      24.49
 91.17     590.00      24.29
 91.27     663.51      25.76
 91.37     571.00      23.90
 91.47     616.00      24.82
 91.57     684.00      26.15
 91.67     661.00      25.71
 91.77     601.20      24.52
 91.87     572.00      23.92
 91.97     611.00      24.72
 92.07     552.00      23.49
 92.17     605.39      24.60
 92.27     555.43      23.57
 92.37     614.00      24.78
 92.47     647.00      25.44
 92.57     589.00      24.27
 92.67     629.00      25.08
 92.77     608.00      24.66
 92.87     630.81      25.12
 92.97     646.98      25.44
 93.07     648.61      25.47
 93.17     650.00      25.50
 93.27     664.00      25.77
 93.37     664.00      25.77
 93.47     714.52      26.73
 93.57     777.42      27.88
 93.67     725.00      26.93
 93.77     842.00      29.02
 93.87     741.00      27.22
 93.97     797.00      28.23
 94.07     794.14      28.18
 94.17     791.00      28.12
 94.27     887.00      29.78
 94.37     811.00      28.48
 94.47     846.32      29.09
 94.57     924.82      30.41
 94.67     908.00      30.13
 94.77     995.00      31.54
 94.87     941.53      30.68
 94.97     986.00      31.40
 95.07    1025.00      32.02
 95.17    1000.00      31.62
 95.27     973.00      31.19
 95.37     987.75      31.43
 95.47    1102.00      33.20
 95.57    1084.00      32.92
 95.67    1072.00      32.74
 95.77    1021.75      31.96
 95.87    1015.00      31.86
 95.97    1027.00      32.05
 96.07     936.97      30.61
 96.17     918.59      30.31
 96.27     990.61      31.47
 96.37     948.57      30.80
 96.47     877.00      29.61
 96.57     888.00      29.80
 96.67     879.00      29.65
 96.77     791.03      28.13
 96.87     790.00      28.11
 96.97     862.06      29.36
 97.07     852.00      29.19
 97.17     874.72      29.58
 97.27     945.00      30.74
 97.37     928.94      30.48
 97.47     972.25      31.18
 97.57    1110.00      33.32
 97.67    1173.00      34.25
 97.77    1170.00      34.21
 97.87    1229.00      35.06
 97.97    1312.73      36.23
 98.07    1403.00      37.46
 98.17    1470.00      38.34
 98.27    1516.00      38.94
 98.37    1582.33      39.78
 98.47    1589.00      39.86
 98.57    1650.00      40.62
 98.67    1634.71      40.43
 98.77    1473.60      38.39
 98.87    1437.51      37.91
 98.97    1415.00      37.62
 99.07    1396.00      37.36
 99.17    1339.00      36.59
 99.27    1200.88      34.65
 99.37    1222.00      34.96
 99.47    1113.00      33.36
 99.57    1117.00      33.42
 99.67    1001.00      31.64
 99.77    1064.00      32.62
 99.87    1065.04      32.63
 99.97    1036.00      32.19
100.07     938.00      30.63
100.17    1048.00      32.37
100.27    1097.74      33.13
100.37    1154.00      33.97
100.47    1212.17      34.82
100.57    1264.00      35.55
100.67    1369.00      37.00
100.77    1432.66      37.85
100.87    1535.00      39.18
100.97    1589.90      39.87
101.07    1746.00      41.79
101.17    1832.00      42.80
101.27    1937.00      44.01
101.37    1951.32      44.17
101.47    2034.00      45.10
101.57    2037.00      45.13
101.67    2112.00      45.96
101.77    2055.60      45.34
101.87    2161.00      46.49
101.97    2054.00      45.32
102.07    2090.00      45.72
102.17    2117.90      46.02
102.27    1965.00      44.33
102.37    1921.00      43.83
102.47    1917.00      43.78
102.57    1801.69      42.45
102.67    1647.00      40.58
102.77    1579.34      39.74
102.87    1569.00      39.61
102.97    1575.67      39.69
103.07    1513.22      38.90
103.17    1446.00      38.03
103.27    1431.31      37.83
103.37    1306.00      36.14
103.47    1305.00      36.12
103.57    1302.39      36.09
103.67    1262.00      35.52
103.77    1226.00      35.01
103.87    1217.33      34.89
103.97    1155.29      33.99
104.07    1078.26      32.84
104.17    1071.00      32.73
104.27    1036.00      32.19
104.37    1004.00      31.69
104.47     979.00      31.29
104.57     902.00      30.03
104.67     864.00      29.39
104.77     883.00      29.72
104.87     817.00      28.58
104.97     717.16      26.78
105.07     773.98      27.82
105.17     698.00      26.42
105.27     731.48      27.05
105.37     689.34      26.26
105.47     635.00      25.20
105.57     688.00      26.23
105.67     689.00      26.25
105.77     642.00      25.34
105.87     625.89      25.02
105.97     669.00      25.87
106.07     578.50      24.05
106.17     601.00      24.52
106.27     617.55      24.85
106.37     641.00      25.32
106.47     609.00      24.68
106.57     621.00      24.92
106.67     593.00      24.35
106.77     619.71      24.89
106.87     667.00      25.83
106.97     659.00      25.67
107.07     627.18      25.04
107.17     669.00      25.87
107.27     694.00      26.34
107.37     623.05      24.96
107.47     650.06      25.50
107.57     684.06      26.15
107.67     719.00      26.81
107.77     733.81      27.09
107.87     709.00      26.63
107.97     741.00      27.22
108.07     754.00      27.46
108.17     781.00      27.95
108.27     772.83      27.80
108.37     791.00      28.12
108.47     813.60      28.52
108.57     835.04      28.90
108.67     727.00      26.96
108.77     801.00      28.30
108.87     714.00      26.72
108.97     801.22      28.31
109.07     776.00      27.86
109.17     833.24      28.87
109.27     764.01      27.64
109.37     774.99      27.84
109.47     816.03      28.57
109.57     762.00      27.60
109.67     830.65      28.82
109.77     782.00      27.96
109.87     727.00      26.96
109.97     740.59      27.21
110.07     718.00      26.80
110.17     794.00      28.18
110.27     710.00      26.65
110.37     791.00      28.12
110.47     715.00      26.74
110.57     773.00      27.80
110.67     729.00      27.00
110.77     742.05      27.24
110.87     709.00      26.63
110.97     677.60      26.03
111.07     702.00      26.50
111.17     754.50      27.47
111.27     676.00      26.00
111.37     641.57      25.33
111.47     653.00      25.55
111.57     662.54      25.74
111.67     682.06      26.12
111.77     687.00      26.21
111.87     633.00      25.16
111.97     662.00      25.73
112.07     688.00      26.23
112.17     635.00      25.20
112.27     638.00      25.26
112.37     635.00      25.20
112.47     598.00      24.45
112.57     589.00      24.27
112.67     611.00      24.72
112.77     657.45      25.64
112.87     643.44      25.37
112.97     582.00      24.12
113.07     593.00      24.35
113.17     638.52      25.27
113.27     595.00      24.39
113.37     647.00      25.44
113.47     679.53      26.07
113.57     644.00      25.38
113.67     648.00      25.46
113.77     641.00      25.32
113.87     635.04      25.20
113.97     600.81      24.51
114.07     673.00      25.94
114.17     610.00      24.70
114.27     670.08      25.89
114.37     690.00      26.27
114.47     675.00      25.98
114.57     687.00      26.21
114.67     676.00      26.00
114.77     766.00      27.68
114.87     773.00      27.80
114.97     815.00      28.55
115.07     808.43      28.43
115.17     847.52      29.11
115.27     957.00      30.94
115.37     989.00      31.45
115.47    1059.00      32.54
115.57    1156.00      34.00
115.67    1291.00      35.93
115.77    1369.69      37.01
115.87    1589.00      39.86
115.97    1695.00      41.17
116.07    2027.91      45.03
116.17    2222.00      47.14
116.27    2380.00      48.79
116.37    2735.59      52.30
116.47    2982.06      54.61
116.57    3251.41      57.02
116.67    3591.00      59.92
116.77    4141.00      64.35
116.87    4525.02      67.27
116.97    4864.30      69.74
117.07    5160.42      71.84
117.17    5549.00      74.49
117.27    6039.89      77.72
117.37    6349.00      79.68
117.47    6756.00      82.19
117.57    7089.12      84.20
117.67    7293.00      85.40
117.77    7368.00      85.84
117.87    7651.00      87.47
117.97    7677.11      87.62
118.07    7513.20      86.68
118.17    7552.00      86.90
118.27    7439.90      86.25
118.37    7232.34      85.04
118.47    6785.00      82.37
118.57    6359.00      79.74
118.67    5989.00      77.39
118.77    5977.67      77.32
118.87    5489.00      74.09
118.97    5107.00      71.46
119.07    4707.75      68.61
119.17    4375.00      66.14
119.27    4094.00      63.98
119.37    3670.00      60.58
119.47    3332.00      57.72
119.57    3089.00      55.58
119.67    2749.00      52.43
119.77    2448.69      49.48
119.87    2213.00      47.04
119.97    2068.64      45.48
120.07    1852.00      43.03
120.17    1650.11      40.62
120.27    1472.68      38.38
120.37    1380.57      37.16
120.47    1292.00      35.94
120.57    1241.00      35.23
120.67    1147.00      33.87
120.77    1005.21      31.71
120.87     933.38      30.55
120.97     960.00      30.98
121.07     840.17      28.99
121.17     853.00      29.21
121.27     814.98      28.55
121.37     850.46      29.16
121.47     844.19      29.05
121.57     776.00      27.86
121.67     734.00      27.09
121.77     731.64      27.05
121.87     721.00      26.85
121.97     686.23      26.20
122.07     709.00      26.63
122.17     702.00      26.50
122.27     716.00      26.76
122.37     694.92      26.36
122.47     754.66      27.47
122.57     711.00      26.66
122.67     652.00      25.53
122.77     668.08      25.85
122.87     689.46      26.26
122.97     687.00      26.21
123.07     703.00      26.51
123.17     720.00      26.83
123.27     688.77      26.24
123.37     743.00      27.26
123.47     689.65      26.26
123.57     736.00      27.13
123.67     757.00      27.51
123.77     792.31      28.15
123.87     723.50      26.90
123.97     736.33      27.14
124.07     780.23      27.93
124.17     741.63      27.23
124.27     809.00      28.44
124.37     766.00      27.68
124.47     762.00      27.60
124.57     813.00      28.51
124.67     838.00      28.95
124.77     702.61      26.51
124.87     739.17      27.19
124.97     837.00      28.93
