  9.97     553.00      23.52
 10.07     615.00      24.80
 10.17     578.36      24.05
 10.27     535.00      23.13
 10.37     570.00      23.87
 10.47     590.00      24.29
 10.57     563.00      23.73
 10.67     570.00      23.87
 10.77     590.81      24.31
 10.87     594.00      24.37
 10.97     572.00      23.92
 11.07     602.00      24.54
 11.17     607.00      24.64
 11.27     590.37      24.30
 11.37     581.00      24.10
 11.47     543.54      23.31
 11.57     581.00      24.10
 11.67     570.00      23.87
 11.77     638.00      25.26
 11.87     585.53      24.20
 11.97     658.00      25.65
 12.07     625.00      25.00
 12.17     691.96      26.31
 12.27     731.13      27.04
 12.37     702.05      26.50
 12.47     627.00      25.04
 12.57     615.21      24.80
 12.67     578.00      24.04
 12.77     568.00      23.83
 12.87     547.00      23.39
 12.97     583.00      24.15
 13.07     554.00      23.54
 13.17     567.00      23.81
 13.27     534.00      23.11
 13.37     583.57      24.16
 13.47     591.24      24.32
 13.57     585.79      24.20
 13.67     581.00      24.10
 13.77     524.93      22.91
 13.87     527.39      22.96
 13.97     530.54      23.03
 14.07     541.55      23.27
 14.17     547.00      23.39
 14.27     575.00      23.98
 14.37     568.52      23.84
 14.47     511.00      22.61
 14.57     549.00      23.43
 14.67     557.00      23.60
 14.77     554.00      23.54
 14.87     533.96      23.11
 14.97     603.00      24.56
 15.07     582.00      24.12
 15.17     558.00      23.62
 15.27     570.00      23.87
 15.37     546.00      23.37
 15.47     572.00      23.92
 15.57     569.05      23.85
 15.67     546.02      23.37
 15.77     560.00      23.66
 15.87     534.00      23.11
 15.97     601.79      24.53
 16.07     539.27      23.22
 16.17     568.00      23.83
 16.27     575.77      24.00
 16.37     554.00      23.54
 16.47     530.00      23.02
 16.57     573.09      23.94
 16.67     598.48      24.46
 16.77     549.00      23.43
 16.87     600.47      24.50
 16.97     550.12      23.45
 17.07     541.00      23.26
 17.17     546.00      23.37
 17.27     591.00      24.31
 17.37     533.00      23.09
 17.47     520.00      22.80
 17.57     521.32      22.83
 17.67     529.00      23.00
 17.77     536.68      23.17
 17.87     513.00      22.65
 17.97     550.82      23.47
 18.07     557.00      23.60
 18.17     504.00      22.45
 18.27     555.00      23.56
 18.37     562.00      23.71
 18.47     544.00      23.32
 18.57     560.00      23.66
 18.67     568.00      23.83
 18.77     565.73      23.79
 18.87     592.61      24.34
 18.97     530.00      23.02
 19.07     557.00      23.60
 19.17     555.00      23.56
 19.27     524.00      22.89
 19.37     537.00      23.17
 19.47     551.00      23.47
 19.57     521.00      22.83
 19.67     567.28      23.82
 19.77     542.00      23.28
 19.87     578.12      24.04
 19.97     548.00      23.41
 20.07     560.00      23.66
 20.17     532.00      23.07
 20.27     574.77      23.97
 20.37     583.74      24.16
 20.47     540.00      23.24
 20.57     533.00      23.09
 20.67     512.00      22.63
 20.77     551.35      23.48
 20.87     583.20      24.15
 20.97     554.00      23.54
 21.07     525.00      22.91
 21.17     549.86      23.45
 21.27     544.00      23.32
 21.37     582.47      24.13
 21.47     561.00      23.69
 21.57     553.00      23.52
 21.67     540.15      23.24
 21.77     532.09      23.07
 21.87     548.00      23.41
 21.97     539.00      23.22
 22.07     565.00      23.77
 22.17     557.12      23.60
 22.27     591.00      24.31
 22.37     527.00      22.96
 22.47     536.00      23.15
 22.57     517.40      22.75
 22.67     545.00      23.35
 22.77     533.00      23.09
 22.87     577.27      24.03
 22.97     527.25      22.96
 23.07     556.14      23.58
 23.17     549.00      23.43
 23.27     545.15      23.35
 23.37     541.00      23.26
 23.47     597.00      24.43
 23.57     530.00      23.02
 23.67     579.00      24.06
 23.77     532.66      23.08
 23.87     601.00      24.52
 23.97     562.00      23.71
 24.07     529.28      23.01
 24.17     543.00      23.30
 24.27     551.75      23.49
 24.37     555.00      23.56
 24.47     546.00      23.37
 24.57     584.00      24.17
 24.67     652.00      25.53
 24.77     646.00      25.42
 24.87     673.00      25.94
 24.97     643.00      25.36
 25.07     574.00      23.96
 25.17     550.00      23.45
 25.27     579.00      24.06
 25.37     586.00      24.21
 25.47     513.00      22.65
 25.57     528.65      22.99
 25.67     575.36      23.99
 25.77     574.00      23.96
 25.87     494.00      22.23
 25.97     499.43      22.35
 26.07     586.00      24.21
 26.17     506.03      22.50
 26.27     544.00      23.32
 26.37     582.83      24.14
 26.47     523.00      22.87
 26.57     556.00      23.58
 26.67     556.00      23.58
 26.77     504.58      22.46
 26.87     500.42      22.37
 26.97     530.50      23.03
 27.07     567.00      23.81
 27.17     540.00      23.24
 27.27     568.26      23.84
 27.37     525.00      22.91
 27.47     595.00      24.39
 27.57     539.45      23.23
 27.67     527.00      22.96
 27.77     566.00      23.79
 27.87     623.00      24.96
 27.97     631.00      25.12
 28.07     742.00      27.24
 28.17     875.27      29.58
 28.27     897.00      29.95
 28.37     877.00      29.61
 28.47     822.39      28.68
 28.57     752.00      27.42
 28.67     693.00      26.32
 28.77     790.00      28.11
 28.87     766.00      27.68
 28.97     810.73      28.47
 29.07     785.00      28.02
 29.17     782.46      27.97
 29.27     667.00      25.83
 29.37     574.23      23.96
 29.47     578.24      24.05
 29.57     537.00      23.17
 29.67     591.00      24.31
 29.77     558.00      23.62
 29.87     609.00      24.68
 29.97     575.00      23.98
 30.07     582.00      24.12
 30.17     562.00      23.71
 30.27     523.17      22.87
 30.37     578.00      24.04
 30.47     570.43      23.88
 30.57     608.00      24.66
 30.67     547.57      23.40
 30.77     598.00      24.45
 30.87     607.48      24.65
 30.97     619.00      24.88
 31.07     606.00      24.62
 31.17     544.00      23.32
 31.27     612.00      24.74
 31.37     600.00      24.49
 31.47     537.00      23.17
 31.57     511.13      22.61
 31.67     564.75      23.76
 31.77     511.08      22.61
 31.87     556.31      23.59
 31.97     512.45      22.64
 32.07     552.00      23.49
 32.17     490.61      22.15
 32.27     560.00      23.66
 32.37     543.00      23.30
 32.47     528.00      22.98
 32.57     560.00      23.66
 32.67     525.00      22.91
 32.77     562.00      23.71
 32.87     545.00      23.35
 32.97     522.29      22.85
 33.07     527.89      22.98
 33.17     569.00      23.85
 33.27     490.00      22.14
 33.37     579.00      24.06
 33.47     580.70      24.10
 33.57     578.27      24.05
 33.67     598.00      24.45
 33.77     780.00      27.93
 33.87     838.00      28.95
 33.97     998.00      31.59
 34.07     987.13      31.42
 34.17    1017.00      31.89
 34.27     913.03      30.22
 34.37     795.00      28.20
 34.47     721.00      26.85
 34.57     580.00      24.08
 34.67     551.00      23.47
 34.77     585.77      24.20
 34.87     541.59      23.27
 34.97     528.00      22.98
 35.07     498.00      22.32
 35.17     532.00      23.07
 35.27     484.43      22.01
 35.37     503.30      22.43
 35.47     534.80      23.13
 35.57     507.00      22.52
 35.67     554.99      23.56
 35.77     523.00      22.87
 35.87     500.17      22.36
 35.97     531.00      23.04
 36.07     532.66      23.08
 36.17     515.00      22.69
 36.27     515.00      22.69
 36.37     516.00      22.72
 36.47     500.00      22.36
 36.57     474.85      21.79
 36.67     546.66      23.38
 36.77     515.00      22.69
 36.87     480.34      21.92
 36.97     474.00      21.77
 37.07     495.00      22.25
 37.17     541.15      23.26
 37.27     522.46      22.86
 37.37     514.00      22.67
 37.47     506.00      22.49
 37.57     510.00      22.58
 37.67     501.42      22.39
 37.77     503.00      22.43
 37.87     521.00      22.83
 37.97     497.00      22.29
 38.07     484.46      22.01
 38.17     499.47      22.35
 38.27     507.00      22.52
 38.37     500.00      22.36
 38.47     456.00      21.35
 38.57     529.00      23.00
 38.67     504.23      22.45
 38.77     506.92      22.51
 38.87     495.00      22.25
 38.97     506.12      22.50
 39.07     487.00      22.07
 39.17     520.00      22.80
 39.27     496.61      22.28
 39.37     479.00      21.89
 39.47     519.65      22.80
 39.57     514.00      22.67
 39.67     504.00      22.45
 39.77     522.89      22.87
 39.87     532.00      23.07
 39.97     520.53      22.82
 40.07     530.91      23.04
 40.17     483.00      21.98
 40.27     498.00      22.32
 40.37     556.00      23.58
 40.47     514.00      22.67
 40.57     466.00      21.59
 40.67     491.00      22.16
 40.77     510.57      22.60
 40.87     477.00      21.84
 40.97     497.00      22.29
 41.07     460.00      21.45
 41.17     457.00      21.38
 41.27     521.13      22.83
 41.37     466.00      21.59
 41.47     468.00      21.63
 41.57     520.00      22.80
 41.67     508.00      22.54
 41.77     524.69      22.91
 41.87     524.00      22.89
 41.97     540.68      23.25
 42.07     468.00      21.63
 42.17     511.00      22.61
 42.27     533.78      23.10
 42.37     551.00      23.47
 42.47     570.84      23.89
 42.57     559.68      23.66
 42.67     593.04      24.35
 42.77     638.94      25.28
 42.87     607.00      24.64
 42.97     587.00      24.23
 43.07     576.31      24.01
 43.17     533.25      23.09
 43.27     520.00      22.80
 43.37     526.00      22.93
 43.47     484.20      22.00
 43.57     484.00      22.00
 43.67     491.00      22.16
 43.77     498.00      22.32
 43.87     464.90      21.56
 43.97     479.00      21.89
 44.07     455.60      21.34
 44.17     472.57      21.74
 44.27     512.00      22.63
 44.37     530.00      23.02
 44.47     503.96      22.45
 44.57     487.94      22.09
 44.67     520.00      22.80
 44.77     488.00      22.09
 44.87     490.00      22.14
 44.97     506.00      22.49
 45.07     493.14      22.21
 45.17     526.05      22.94
 45.27     543.00      23.30
 45.37     526.76      22.95
 45.47     515.00      22.69
 45.57     482.43      21.96
 45.67     519.10      22.78
 45.77     464.13      21.54
 45.87     514.00      22.67
 45.97     473.00      21.75
 46.07     488.00      22.09
 46.17     511.80      22.62
 46.27     483.15      21.98
 46.37     520.00      22.80
 46.47     507.35      22.52
 46.57     477.56      21.85
 46.67     527.00      22.96
 46.77     529.78      23.02
 46.87     480.28      21.92
 46.97     534.00      23.11
 47.07     509.91      22.58
 47.17     534.00      23.11
 47.27     509.00      22.56
 47.37     546.00      23.37
 47.47     538.80      23.21
 47.57     559.00      23.64
 47.67     580.69      24.10
 47.77     562.00      23.71
 47.87     625.00      25.00
 47.97     619.00      24.88
 48.07     627.00      25.04
 48.17     592.00      24.33
 48.27     593.03      24.35
 48.37     562.00      23.71
 48.47     525.00      22.91
 48.57     531.00      23.04
 48.67     561.49      23.70
 48.77     533.66      23.10
 48.87     529.42      23.01
 48.97     538.00      23.19
 49.07     580.84      24.10
 49.17     554.28      23.54
 49.27     562.00      23.71
 49.37     595.00      24.39
 49.47     660.00      25.69
 49.57     684.00      26.15
 49.67     798.85      28.26
 49.77    1023.47      31.99
 49.87    1261.00      35.51
 49.97    1644.00      40.55
 50.07    2025.00      45.00
 50.17    2329.66      48.27
 50.27    2344.48      48.42
 50.37    2339.00      48.36
 50.47    2009.00      44.82
 50.57    1637.41      40.46
 50.67    1180.00      34.35
 50.77     955.00      30.90
 50.87     766.00      27.68
 50.97     660.00      25.69
 51.07     700.00      26.46
 51.17     608.47      24.67
 51.27     613.56      24.77
 51.37     568.00      23.83
 51.47     556.90      23.60
 51.57     600.50      24.51
 51.67     580.07      24.08
 51.77     528.00      22.98
 51.87     560.04      23.67
 51.97     576.40      24.01
 52.07     561.00      23.69
 52.17     490.34      22.14
 52.27     526.00      22.93
 52.37     578.00      24.04
 52.47     515.40      22.70
 52.57     581.00      24.10
 52.67     553.29      23.52
 52.77     559.84      23.66
 52.87     654.00      25.57
 52.97     669.00      25.87
 53.07     802.00      28.32
 53.17     860.00      29.33
 53.27     972.00      31.18
 53.37    1148.69      33.89
 53.47    1192.00      34.53
 53.57    1267.04      35.60
 53.67    1207.57      34.75
 53.77     980.00      31.30
 53.87     944.04      30.73
 53.97     830.00      28.81
 54.07     728.00      26.98
 54.17     634.00      25.18
 54.27     598.41      24.46
 54.37     590.00      24.29
 54.47     604.54      24.59
 54.57     564.99      23.77
 54.67     550.00      23.45
 54.77     568.00      23.83
 54.87     565.00      23.77
 54.97     569.00      23.85
 55.07     571.00      23.90
 55.17     591.00      24.31
 55.27     524.95      22.91
 55.37     515.00      22.69
 55.47     536.00      23.15
 55.57     531.00      23.04
 55.67     575.85      24.00
 55.77     607.40      24.65
 55.87     638.00      25.26
 55.97     610.19      24.70
 56.07     643.00      25.36
 56.17     800.30      28.29
 56.27     833.00      28.86
 56.37     976.00      31.24
 56.47    1280.00      35.78
 56.57    1677.54      40.96
 56.67    2060.00      45.39
 56.77    2221.00      47.13
 56.87    2461.00      49.61
 56.97    2494.00      49.94
 57.07    2434.00      49.34
 57.17    2153.43      46.41
 57.27    1869.00      43.23
 57.37    1449.58      38.07
 57.47    1198.00      34.61
 57.57     977.00      31.26
 57.67     886.00      29.77
 57.77     782.41      27.97
 57.87     718.00      26.80
 57.97     705.29      26.56
 58.07     718.00      26.80
 58.17     676.97      26.02
 58.27     721.00      26.85
 58.37     787.00      28.05
 58.47     906.87      30.11
 58.57     903.00      30.05
 58.67    1073.78      32.77
 58.77    1094.00      33.08
 58.87    1150.06      33.91
 58.97    1307.84      36.16
 59.07    1396.00      37.36
 59.17    1346.00      36.69
 59.27    1245.18      35.29
 59.37    1312.00      36.22
 59.47    1285.00      35.85
 59.57    1290.00      35.92
 59.67    1140.02      33.76
 59.77    1157.00      34.01
 59.87    1129.17      33.60
 59.97    1295.00      35.99
 60.07    1427.00      37.78
 60.17    1464.00      38.26
 60.27    1564.00      39.55
 60.37    1596.00      39.95
 60.47    1440.95      37.96
 60.57    1324.00      36.39
 60.67    1219.00      34.91
 60.77     995.45      31.55
 60.87     876.00      29.60
 60.97     733.55      27.08
 61.07     708.60      26.62
 61.17     673.00      25.94
 61.27     690.00      26.27
 61.37     619.58      24.89
 61.47     706.00      26.57
 61.57     700.08      26.46
 61.67     821.00      28.65
 61.77     965.09      31.07
 61.87    1036.00      32.19
 61.97    1131.00      33.63
 62.07    1319.34      36.32
 62.17    1267.00      35.59
 62.27    1336.00      36.55
 62.37    1316.00      36.28
 62.47    1250.74      35.37
 62.57    1059.48      32.55
 62.67     977.00      31.26
 62.77     852.00      29.19
 62.87     780.00      27.93
 62.97     645.00      25.40
 63.07     682.63      26.13
 63.17     627.00      25.04
 63.27     619.96      24.90
 63.37     527.58      22.97
 63.47     554.59      23.55
 63.57     561.09      23.69
 63.67     568.00      23.83
 63.77     600.00      24.49
 63.87     574.44      23.97
 63.97     624.00      24.98
 64.07     695.00      26.36
 64.17     764.00      27.64
 64.27     767.00      27.69
 64.37     842.00      29.02
 64.47     902.21      30.04
 64.57     955.00      30.90
 64.67     998.92      31.61
 64.77    1054.83      32.48
 64.87    1004.00      31.69
 64.97     908.00      30.13
 65.07     906.00      30.10
 65.17     859.51      29.32
 65.27     716.00      26.76
 65.37     688.00      26.23
 65.47     672.00      25.92
 65.57     681.00      26.10
 65.67     656.80      25.63
 65.77     606.05      24.62
 65.87     644.00      25.38
 65.97     600.84      24.51
 66.07     555.09      23.56
 66.17     599.56      24.49
 66.27     565.00      23.77
 66.37     582.69      24.14
 66.47     578.95      24.06
 66.57     522.00      22.85
 66.67     553.00      23.52
 66.77     548.00      23.41
 66.87     612.00      24.74
 66.97     567.00      23.81
 67.07     612.00      24.74
 67.17     716.29      26.76
 67.27     740.00      27.20
 67.37     847.00      29.10
 67.47     998.00      31.59
 67.57    1161.00      34.07
 67.67    1408.00      37.52
 67.77    1624.00      40.30
 67.87    1911.00      43.71
 67.97    2160.51      46.48
 68.07    2382.00      48.81
 68.17    2426.00      49.25
 68.27    2400.00      48.99
 68.37    2165.00      46.53
 68.47    1939.00      44.03
 68.57    1718.00      41.45
 68.67    1380.45      37.15
 68.77    1251.00      35.37
 68.87    1059.18      32.55
 68.97     865.00      29.41
 69.07     802.00      28.32
 69.17     726.00      26.94
 69.27     676.00      26.00
 69.37     650.76      25.51
 69.47     571.00      23.90
 69.57     554.00      23.54
 69.67     582.00      24.12
 69.77     575.00      23.98
 69.87     566.00      23.79
 69.97     551.00      23.47
 70.07     571.47      23.91
 70.17     604.12      24.58
 70.27     569.00      23.85
 70.37     598.00      24.45
 70.47     545.11      23.35
 70.57     557.00      23.60
 70.67     546.00      23.37
 70.77     622.00      24.94
 70.87     598.12      24.46
 70.97     573.00      23.94
 71.07     616.00      24.82
 71.17     710.00      26.65
 71.27     842.26      29.02
 71.37     842.00      29.02
 71.47    1003.00      31.67
 71.57    1179.00      34.34
 71.67    1357.00      36.84
 71.77    1511.62      38.88
 71.87    1630.00      40.37
 71.97    1822.00      42.68
 72.07    1900.75      43.60
 72.17    1865.00      43.19
 72.27    1861.00      43.14
 72.37    1702.00      41.26
 72.47    1518.00      38.96
 72.57    1400.36      37.42
 72.67    1210.00      34.79
 72.77    1053.00      32.45
 72.87     905.00      30.08
 72.97     810.69      28.47
 73.07     734.00      27.09
 73.17     737.96      27.17
 73.27     667.00      25.83
 73.37     665.14      25.79
 73.47     644.00      25.38
 73.57     626.00      25.02
 73.67     592.00      24.33
 73.77     575.00      23.98
 73.87     609.00      24.68
 73.97     560.00      23.66
 74.07     542.07      23.28
 74.17     620.37      24.91
 74.27     595.00      24.39
 74.37     561.00      23.69
 74.47     657.00      25.63
 74.57     636.00      25.22
 74.67     602.00      24.54
 74.77     583.30      24.15
 74.87     611.00      24.72
 74.97     533.99      23.11
 75.07     591.00      24.31
 75.17     575.25      23.98
 75.27     577.00      24.02
 75.37     604.00      24.58
 75.47     560.00      23.66
 75.57     583.00      24.15
 75.67     583.00      24.15
 75.77     559.00      23.64
 75.87     602.00      24.54
 75.97     607.65      24.65
 76.07     621.00      24.92
 76.17     636.00      25.22
 76.27     667.54      25.84
 76.37     674.99      25.98
 76.47     699.00      26.44
 76.57     687.39      26.22
 76.67     682.00      26.12
 76.77     714.52      26.73
 76.87     655.00      25.59
 76.97     664.00      25.77
 77.07     681.76      26.11
 77.17     638.38      25.27
 77.27     605.00      24.60
 77.37     596.00      24.41
 77.47     535.00      23.13
 77.57     580.73      24.10
 77.67     513.46      22.66
 77.77     509.00      22.56
 77.87     508.00      22.54
 77.97     536.00      23.15
 78.07     480.00      21.91
 78.17     479.00      21.89
 78.27     511.00      22.61
 78.37     506.28      22.50
 78.47     504.00      22.45
 78.57     470.00      21.68
 78.67     523.00      22.87
 78.77     546.00      23.37
 78.87     513.00      22.65
 78.97     484.71      22.02
 79.07     517.00      22.74
 79.17     545.00      23.35
 79.27     498.00      22.32
 79.37     486.00      22.05
 79.47     517.00      22.74
 79.57     524.00      22.89
 79.67     496.61      22.28
 79.77     543.04      23.30
 79.87     501.00      22.38
 79.97     525.00      22.91
 80.07     558.00      23.62
 80.17     522.09      22.85
 80.27     554.00      23.54
 80.37     541.00      23.26
 80.47     576.00      24.00
 80.57     565.00      23.77
 80.67     593.00      24.35
 80.77     605.00      24.60
 80.87     617.72      24.85
 80.97     650.70      25.51
 81.07     645.00      25.40
 81.17     692.00      26.31
 81.27     777.33      27.88
 81.37     785.50      28.03
 81.47     745.00      27.29
 81.57     785.21      28.02
 81.67     778.99      27.91
 81.77     771.47      27.78
 81.87     672.53      25.93
 81.97     730.00      27.02
 82.07     694.00      26.34
 82.17     648.00      25.46
 82.27     650.00      25.50
 82.37     613.02      24.76
 82.47     590.46      24.30
 82.57     576.08      24.00
 82.67     606.73      24.63
 82.77     572.00      23.92
 82.87     530.00      23.02
 82.97     537.00      23.17
 83.07     534.72      23.12
 83.17     536.00      23.15
 83.27     509.00      22.56
 83.37     552.21      23.50
 83.47     541.57      23.27
 83.57     509.69      22.58
 83.67     567.00      23.81
 83.77     528.72      22.99
 83.87     563.07      23.73
 83.97     566.00      23.79
 84.07     538.00      23.19
 84.17     593.25      24.36
 84.27     599.93      24.49
 84.37     593.35      24.36
 84.47     588.80      24.27
 84.57     520.94      22.82
 84.67     569.59      23.87
 84.77     585.00      24.19
 84.87     498.94      22.34
 84.97     502.50      22.42
 85.07     503.00      22.43
 85.17     543.73      23.32
 85.27     482.68      21.97
 85.37     513.70      22.66
 85.47     525.00      22.91
 85.57     530.39      23.03
 85.67     513.94      22.67
 85.77     508.80      22.56
 85.87     564.00      23.75
 85.97     517.00      22.74
 86.07     498.00      22.32
 86.17     545.97      23.37
 86.27     531.00      23.04
 86.37     546.20      23.37
 86.47     544.00      23.32
 86.57     519.00      22.78
 86.67     542.00      23.28
 86.77     578.00      24.04
 86.87     591.96      24.33
 86.97     570.00      23.87
 87.07     616.00      24.82
 87.17     598.00      24.45
 87.27     634.95      25.20
 87.37     646.00      25.42
 87.47     635.00      25.20
 87.57     599.00      24.47
 87.67     622.00      24.94
 87.77     568.61      23.85
 87.87     673.00      25.94
 87.97     620.53      24.91
 88.07     545.28      23.35
 88.17     569.58      23.87
 88.27     599.00      24.47
 88.37     570.00      23.87
 88.47     630.00      25.10
 88.57     577.61      24.03
 88.67     588.00      24.25
 88.77     537.14      23.18
 88.87     577.00      24.02
 88.97     593.00      24.35
 89.07     565.54      23.78
 89.17     598.00      24.45
 89.27     539.00      23.22
 89.37     600.00      24.49
 89.47     604.00      24.58
 89.57     585.00      24.19
 89.67     554.44      23.55
 89.77     544.00      23.32
 89.87     556.00      23.58
 89.97     552.00      23.49
 90.07     541.00      23.26
 90.17     510.52      22.59
 90.27     534.37      23.12
 90.37     498.00      22.32
 90.47     495.83      22.27
 90.57     538.08      23.20
 90.67     497.61      22.31
 90.77     516.00      22.72
 90.87     560.00      23.66
 90.97     556.67      23.59
 91.07     519.15      22.78
 91.17     525.00      22.91
 91.27     513.28      22.66
 91.37     483.00      21.98
 91.47     514.00      22.67
 91.57     512.69      22.64
 91.67     539.00      23.22
 91.77     539.14      23.22
 91.87     495.00      22.25
 91.97     519.73      22.80
 92.07     541.00      23.26
 92.17     586.00      24.21
 92.27     562.00      23.71
 92.37     559.56      23.65
 92.47     627.26      25.05
 92.57     591.00      24.31
 92.67     612.00      24.74
 92.77     642.32      25.34
 92.87     665.95      25.81
 92.97     680.00      26.08
 93.07     744.00      27.28
 93.17     734.00      27.09
 93.27     687.75      26.23
 93.37     778.00      27.89
 93.47     719.00      26.81
 93.57     778.92      27.91
 93.67     834.00      28.88
 93.77     802.75      28.33
 93.87     794.00      28.18
 93.97     787.23      28.06
 94.07     841.00      29.00
 94.17     835.00      28.90
 94.27     816.00      28.57
 94.37     838.00      28.95
 94.47     907.00      30.12
 94.57     873.00      29.55
 94.67     880.00      29.66
 94.77     891.00      29.85
 94.87     895.13      29.92
 94.97     920.00      30.33
 95.07     838.54      28.96
 95.17     909.00      30.15
 95.27     902.00      30.03
 95.37     836.00      28.91
 95.47     819.00      28.62
 95.57     805.00      28.37
 95.67     772.55      27.79
 95.77     732.00      27.06
 95.87     681.35      26.10
 95.97     720.72      26.85
 96.07     715.00      26.74
 96.17     665.70      25.80
 96.27     690.00      26.27
 96.37     723.00      26.89
 96.47     780.00      27.93
 96.57     752.00      27.42
 96.67     860.00      29.33
 96.77     927.00      30.45
 96.87    1054.76      32.48
 96.97    1087.00      32.97
 97.07    1114.00      33.38
 97.17    1234.92      35.14
 97.27    1235.00      35.14
 97.37    1305.00      36.12
 97.47    1399.00      37.40
 97.57    1430.93      37.83
 97.67    1430.00      37.82
 97.77    1353.00      36.78
 97.87    1389.60      37.28
 97.97    1345.00      36.67
 98.07    1247.29      35.32
 98.17    1278.83      35.76
 98.27    1169.27      34.19
 98.37    1113.00      33.36
 98.47    1074.00      32.77
 98.57     986.00      31.40
 98.67     927.00      30.45
 98.77     938.06      30.63
 98.87     819.00      28.62
 98.97     859.27      29.31
 99.07     826.00      28.74
 99.17     876.00      29.60
 99.27     846.69      29.10
 99.37     940.00      30.66
 99.47    1005.00      31.70
 99.57    1013.00      31.83
 99.67    1071.00      32.73
 99.77    1179.00      34.34
 99.87    1237.00      35.17
 99.97    1447.00      38.04
100.07    1562.00      39.52
100.17    1624.18      40.30
100.27    1625.00      40.31
100.37    1762.68      41.98
100.47    1798.00      42.40
100.57    1989.00      44.60
100.67    2027.00      45.02
100.77    2027.00      45.02
100.87    2026.00      45.01
100.97    2015.00      44.89
101.07    1937.00      44.01
101.17    1836.88      42.86
101.27    1850.46      43.02
101.37    1780.00      42.19
101.47    1726.00      41.55
101.57    1633.11      40.41
101.67    1533.00      39.15
101.77    1434.31      37.87
101.87    1334.09      36.53
101.97    1371.34      37.03
102.07    1260.85      35.51
102.17    1216.00      34.87
102.27    1128.00      33.59
102.37    1182.00      34.38
102.47    1155.00      33.99
102.57    1100.00      33.17
102.67    1067.00      32.66
102.77    1092.00      33.05
102.87    1030.00      32.09
102.97    1073.79      32.77
103.07    1059.00      32.54
103.17     940.00      30.66
103.27     891.00      29.85
103.37     872.00      29.53
103.47     827.60      28.77
103.57     791.00      28.12
103.67     746.00      27.31
103.77     684.53      26.16
103.87     723.94      26.91
103.97     694.23      26.35
104.07     671.00      25.90
104.17     623.00      24.96
104.27     552.25      23.50
104.37     613.30      24.76
104.47     560.00      23.66
104.57     547.00      23.39
104.67     537.34      23.18
104.77     495.72      22.26
104.87     556.00      23.58
104.97     570.00      23.87
105.07     508.46      22.55
105.17     565.00      23.77
105.27     523.08      22.87
105.37     527.00      22.96
105.47     569.00      23.85
105.57     559.67      23.66
105.67     506.38      22.50
105.77     529.00      23.00
105.87     537.93      23.19
105.97     581.00      24.10
106.07     576.82      24.02
106.17     560.00      23.66
106.27     570.00      23.87
106.37     557.00      23.60
106.47     623.00      24.96
106.57     587.02      24.23
106.67     626.00      25.02
106.77     625.00      25.00
106.87     639.00      25.28
106.97     657.00      25.63
107.07     642.00      25.34
107.17     695.62      26.37
107.27     667.00      25.83
107.37     703.00      26.51
107.47     662.00      25.73
107.57     716.92      26.78
107.67     709.00      26.63
107.77     713.00      26.70
107.87     685.70      26.19
107.97     688.00      26.23
108.07     656.79      25.63
108.17     720.49      26.84
108.27     686.00      26.19
108.37     616.00      24.82
108.47     698.30      26.43
108.57     683.03      26.13
108.67     661.00      25.71
108.77     672.00      25.92
108.87     734.99      27.11
108.97     713.00      26.70
109.07     706.00      26.57
109.17     660.00      25.69
109.27     663.00      25.75
109.37     680.00      26.08
109.47     667.00      25.83
109.57     664.00      25.77
109.67     661.55      25.72
109.77     605.15      24.60
109.87     616.78      24.84
109.97     608.61      24.67
110.07     619.09      24.88
110.17     569.00      23.85
110.27     613.00      24.76
110.37     561.00      23.69
110.47     589.00      24.27
110.57     557.00      23.60
110.67     552.00      23.49
110.77     562.00      23.71
110.87     521.00      22.83
110.97     515.22      22.70
111.07     518.00      22.76
111.17     498.04      22.32
111.27     534.00      23.11
111.37     549.26      23.44
111.47     565.98      23.79
111.57     571.86      23.91
111.67     520.58      22.82
111.77     518.01      22.76
111.87     523.00      22.87
111.97     541.00      23.26
112.07     528.00      22.98
112.17     575.00      23.98
112.27     592.88      24.35
112.37     547.08      23.39
112.47     618.00      24.86
112.57     580.21      24.09
112.67     545.00      23.35
112.77     559.00      23.64
112.87     556.00      23.58
112.97     569.00      23.85
113.07     661.93      25.73
113.17     673.86      25.96
113.27     680.74      26.09
113.37     667.00      25.83
113.47     640.00      25.30
113.57     680.90      26.09
113.67     702.00      26.50
113.77     662.00      25.73
113.87     744.12      27.28
113.97     748.00      27.35
114.07     802.00      28.32
114.17     843.00      29.03
114.27     897.00      29.95
114.37     969.18      31.13
114.47    1036.00      32.19
114.57    1176.00      34.29
114.67    1216.90      34.88
114.77    1507.00      38.82
114.87    1565.00      39.56
114.97    1758.00      41.93
115.07    1927.00      43.90
115.17    2157.26      46.45
115.27    2416.00      49.15
115.37    2704.00      52.00
115.47    3083.00      55.52
115.57    3434.87      58.61
115.67    3746.00      61.20
115.77    4019.98      63.40
115.87    4396.83      66.31
115.97    4674.00      68.37
116.07    5079.00      71.27
116.17    5576.87      74.68
116.27    5697.08      75.48
116.37    6110.51      78.17
116.47    6351.00      79.69
116.57    6639.33      81.48
116.67    6746.00      82.13
116.77    6715.00      81.95
116.87    6857.00      82.81
116.97    6780.00      82.34
117.07    6585.00      81.15
117.17    6344.00      79.65
117.27    5979.00      77.32
117.37    5737.00      75.74
117.47    5439.00      73.75
117.57    5020.00      70.85
117.67    4694.78      68.52
117.77    4426.00      66.53
117.87    4097.00      64.01
117.97    3731.00      61.08
118.07    3462.00      58.84
118.17    2960.26      54.41
118.27    2821.00      53.11
118.37    2436.79      49.36
118.47    2227.00      47.19
118.57    2057.06      45.35
118.67    1769.66      42.07
118.77    1540.74      39.25
118.87    1358.89      36.86
118.97    1287.00      35.87
119.07    1191.00      34.51
119.17    1075.85      32.80
119.27     995.00      31.54
119.37     873.10      29.55
119.47     861.00      29.34
119.57     780.30      27.93
119.67     724.00      26.91
119.77     769.31      27.74
119.87     729.00      27.00
119.97     688.00      26.23
120.07     676.05      26.00
120.17     661.69      25.72
120.27     622.00      24.94
120.37     593.00      24.35
120.47     594.00      24.37
120.57     562.00      23.71
120.67     599.02      24.47
120.77     599.00      24.47
120.87     553.00      23.52
120.97     621.93      24.94
121.07     581.00      24.10
121.17     585.00      24.19
121.27     587.00      24.23
121.37     575.00      23.98
121.47     532.00      23.07
121.57     552.00      23.49
121.67     579.63      24.08
121.77     595.14      24.40
121.87     595.00      24.39
121.97     608.00      24.66
122.07     573.35      23.94
122.17     663.00      25.75
122.27     631.86      25.14
122.37     579.25      24.07
122.47     636.00      25.22
122.57     642.00      25.34
122.67     625.00      25.00
122.77     627.80      25.06
122.87     614.00      24.78
122.97     625.02      25.00
123.07     632.83      25.16
123.17     609.00      24.68
123.27     654.50      25.58
123.37     640.77      25.31
123.47     677.00      26.02
123.57     661.75      25.72
123.67     642.00      25.34
123.77     651.00      25.51
123.87     602.92      24.55
123.97     624.00      24.98
124.07     609.48      24.69
124.17     586.18      24.21
124.27     640.00      25.30
124.37     592.00      24.33
124.47     601.00      24.52
124.57     590.00      24.29
124.67     596.00      24.41
124.77     585.00      24.19
124.87     543.00      23.30
124.97     580.00      24.08
