  9.97     698.00      26.42
 10.07     571.75      23.91
 10.17     706.00      26.57
 10.27     637.20      25.24
 10.37     621.70      24.93
 10.47     645.00      25.40
 10.57     644.00      25.38
 10.67     657.00      25.63
 10.77     673.00      25.94
 10.87     679.00      26.06
 10.97     659.00      25.67
 11.07     610.00      24.70
 11.17     623.84      24.98
 11.27     619.00      24.88
 11.37     592.01      24.33
 11.47     650.00      25.50
 11.57     622.33      24.95
 11.67     671.33      25.91
 11.77     630.00      25.10
 11.87     702.00      26.50
 11.97     684.85      26.17
 12.07     725.00      26.93
 12.17     766.00      27.68
 12.27     744.00      27.28
 12.37     752.00      27.42
 12.47     776.00      27.86
 12.57     659.00      25.67
 12.67     616.00      24.82
 12.77     638.15      25.26
 12.87     650.11      25.50
 12.97     627.36      25.05
 13.07     582.80      24.14
 13.17     626.86      25.04
 13.27     584.58      24.18
 13.37     646.00      25.42
 13.47     662.79      25.74
 13.57     596.00      24.41
 13.67     638.00      25.26
 13.77     676.19      26.00
 13.87     668.57      25.86
 13.97     555.00      23.56
 14.07     596.00      24.41
 14.17     645.00      25.40
 14.27     617.00      24.84
 14.37     589.00      24.27
 14.47     641.19      25.32
 14.57     650.26      25.50
 14.67     652.21      25.54
 14.77     600.54      24.51
 14.87     620.00      24.90
 14.97     598.00      24.45
 15.07     642.84      25.35
 15.17     615.44      24.81
 15.27     569.00      23.85
 15.37     606.00      24.62
 15.47     579.05      24.06
 15.57     593.00      24.35
 15.67     617.00      24.84
 15.77     582.00      24.12
 15.87     616.92      24.84
 15.97     640.23      25.30
 16.07     623.29      24.97
 16.17     629.74      25.09
 16.27     669.00      25.87
 16.37     642.78      25.35
 16.47     558.00      23.62
 16.57     567.00      23.81
 16.67     568.00      23.83
 16.77     612.48      24.75
 16.87     571.00      23.90
 16.97     626.00      25.02
 17.07     608.00      24.66
 17.17     596.05      24.41
 17.27     615.00      24.80
 17.37     602.00      24.54
 17.47     587.00      24.23
 17.57     647.00      25.44
 17.67     571.62      23.91
 17.77     569.00      23.85
 17.87     605.42      24.61
 17.97     586.37      24.22
 18.07     668.47      25.85
 18.17     589.00      24.27
 18.27     558.00      23.62
 18.37     639.61      25.29
 18.47     597.00      24.43
 18.57     586.16      24.21
 18.67     595.00      24.39
 18.77     598.00      24.45
 18.87     642.96      25.36
 18.97     577.95      24.04
 19.07     581.48      24.11
 19.17     586.00      24.21
 19.27     600.75      24.51
 19.37     596.73      24.43
 19.47     584.00      24.17
 19.57     590.00      24.29
 19.67     638.18      25.26
 19.77     603.00      24.56
 19.87     646.80      25.43
 19.97     569.00      23.85
 20.07     636.90      25.24
 20.17     604.00      24.58
 20.27     630.62      25.11
 20.37     603.00      24.56
 20.47     632.43      25.15
 20.57     594.00      24.37
 20.67     629.00      25.08
 20.77     592.00      24.33
 20.87     608.00      24.66
 20.97     603.00      24.56
 21.07     647.78      25.45
 21.17     629.25      25.08
 21.27     569.38      23.86
 21.37     660.81      25.71
 21.47     595.32      24.40
 21.57     610.00      24.70
 21.67     639.36      25.29
 21.77     605.00      24.60
 21.87     592.75      24.35
 21.97     633.00      25.16
 22.07     594.44      24.38
 22.17     582.00      24.12
 22.27     602.00      24.54
 22.37     627.00      25.04
 22.47     622.00      24.94
 22.57     636.00      25.22
 22.67     595.00      24.39
 22.77     602.83      24.55
 22.87     652.71      25.55
 22.97     608.00      24.66
 23.07     593.00      24.35
 23.17     667.11      25.83
 23.27     652.55      25.54
 23.37     588.00      24.25
 23.47     662.59      25.74
 23.57     603.00      24.56
 23.67     601.86      24.53
 23.77     636.00      25.22
 23.87     630.00      25.10
 23.97     590.00      24.29
 24.07     672.07      25.92
 24.17     624.00      24.98
 24.27     688.00      26.23
 24.37     657.11      25.63
 24.47     679.56      26.07
 24.57     624.84      25.00
 24.67     670.41      25.89
 24.77     703.38      26.52
 24.87     718.20      26.80
 24.97     683.00      26.13
 25.07     656.00      25.61
 25.17     719.47      26.82
 25.27     634.30      25.19
 25.37     648.00      25.46
 25.47     584.69      24.18
 25.57     608.00      24.66
 25.67     623.48      24.97
 25.77     646.00      25.42
 25.87     681.00      26.10
 25.97     616.48      24.83
 26.07     655.00      25.59
 26.17     669.00      25.87
 26.27     654.00      25.57
 26.37     676.00      26.00
 26.47     596.64      24.43
 26.57     650.00      25.50
 26.67     662.00      25.73
 26.77     657.00      25.63
 26.87     662.00      25.73
 26.97     688.00      26.23
 27.07     605.67      24.61
 27.17     663.00      25.75
 27.27     600.39      24.50
 27.37     568.04      23.83
 27.47     561.55      23.70
 27.57     688.00      26.23
 27.67     766.00      27.68
 27.77     617.92      24.86
 27.87     665.86      25.80
 27.97     638.96      25.28
 28.07     813.00      28.51
 28.17     899.00      29.98
 28.27     961.00      31.00
 28.37    1023.00      31.98
 28.47     909.96      30.17
 28.57     836.12      28.92
 28.67     887.00      29.78
 28.77     888.00      29.80
 28.87     819.55      28.63
 28.97     953.00      30.87
 29.07    1007.00      31.73
 29.17     951.00      30.84
 29.27     746.63      27.32
 29.37     851.00      29.17
 29.47     713.00      26.70
 29.57     642.40      25.35
 29.67     728.00      26.98
 29.77     727.00      26.96
 29.87     573.86      23.96
 29.97     714.00      26.72
 30.07     657.00      25.63
 30.17     610.25      24.70
 30.27     718.00      26.80
 30.37     657.00      25.63
 30.47     682.00      26.12
 30.57     667.00      25.83
 30.67     682.00      26.12
 30.77     667.00      25.83
 30.87     668.00      25.85
 30.97     673.00      25.94
 31.07     691.56      26.30
 31.17     728.00      26.98
 31.27     580.16      24.09
 31.37     641.00      25.32
 31.47     667.00      25.83
 31.57     587.43      24.24
 31.67     630.60      25.11
 31.77     626.36      25.03
 31.87     597.59      24.45
 31.97     580.51      24.09
 32.07     606.00      24.62
 32.17     616.31      24.83
 32.27     620.00      24.90
 32.37     582.00      24.12
 32.47     568.00      23.83
 32.57     591.38      24.32
 32.67     557.57      23.61
 32.77     563.00      23.73
 32.87     536.40      23.16
 32.97     575.00      23.98
 33.07     592.00      24.33
 33.17     633.78      25.17
 33.27     564.00      23.75
 33.37     593.00      24.35
 33.47     606.00      24.62
 33.57     651.64      25.53
 33.67     643.00      25.36
 33.77     762.78      27.62
 33.87     805.89      28.39
 33.97     903.66      30.06
 34.07     923.57      30.39
 34.17    1086.41      32.96
 34.27    1044.00      32.31
 34.37     952.00      30.85
 34.47     855.00      29.24
 34.57     719.00      26.81
 34.67     686.00      26.19
 34.77     696.72      26.40
 34.87     662.00      25.73
 34.97     572.00      23.92
 35.07     584.00      24.17
 35.17     576.00      24.00
 35.27     572.00      23.92
 35.37     592.00      24.33
 35.47     531.00      23.04
 35.57     527.26      22.96
 35.67     524.95      22.91
 35.77     521.00      22.83
 35.87     563.00      23.73
 35.97     520.00      22.80
 36.07     574.00      23.96
 36.17     559.88      23.66
 36.27     513.00      22.65
 36.37     528.00      22.98
 36.47     567.00      23.81
 36.57     546.00      23.37
 36.67     536.14      23.15
 36.77     542.00      23.28
 36.87     524.53      22.90
 36.97     572.00      23.92
 37.07     514.00      22.67
 37.17     584.72      24.18
 37.27     509.04      22.56
 37.37     534.46      23.12
 37.47     543.00      23.30
 37.57     540.00      23.24
 37.67     555.00      23.56
 37.77     536.00      23.15
 37.87     541.00      23.26
 37.97     558.00      23.62
 38.07     573.00      23.94
 38.17     584.40      24.17
 38.27     512.12      22.63
 38.37     593.04      24.35
 38.47     555.29      23.56
 38.57     494.00      22.23
 38.67     591.69      24.32
 38.77     580.72      24.10
 38.87     586.00      24.21
 38.97     527.00      22.96
 39.07     517.00      22.74
 39.17     558.00      23.62
 39.27     498.90      22.34
 39.37     546.54      23.38
 39.47     519.00      22.78
 39.57     542.16      23.28
 39.67     566.00      23.79
 39.77     549.00      23.43
 39.87     471.00      21.70
 39.97     510.00      22.58
 40.07     538.00      23.19
 40.17     544.00      23.32
 40.27     502.22      22.41
 40.37     554.00      23.54
 40.47     545.00      23.35
 40.57     500.00      22.36
 40.67     489.00      22.11
 40.77     530.00      23.02
 40.87     527.00      22.96
 40.97     504.64      22.46
 41.07     517.00      22.74
 41.17     529.00      23.00
 41.27     516.01      22.72
 41.37     531.13      23.05
 41.47     561.28      23.69
 41.57     503.00      22.43
 41.67     560.36      23.67
 41.77     538.00      23.19
 41.87     507.00      22.52
 41.97     515.00      22.69
 42.07     521.66      22.84
 42.17     538.00      23.19
 42.27     533.00      23.09
 42.37     538.00      23.19
 42.47     538.98      23.22
 42.57     628.77      25.08
 42.67     599.00      24.47
 42.77     663.68      25.76
 42.87     595.00      24.39
 42.97     645.57      25.41
 43.07     583.00      24.15
 43.17     574.00      23.96
 43.27     562.00      23.71
 43.37     610.00      24.70
 43.47     528.88      23.00
 43.57     510.00      22.58
 43.67     553.00      23.52
 43.77     532.00      23.07
 43.87     523.65      22.88
 43.97     541.00      23.26
 44.07     509.00      22.56
 44.17     518.95      22.78
 44.27     528.00      22.98
 44.37     533.00      23.09
 44.47     527.00      22.96
 44.57     530.76      23.04
 44.67     547.00      23.39
 44.77     535.81      23.15
 44.87     554.00      23.54
 44.97     533.00      23.09
 45.07     482.24      21.96
 45.17     528.00      22.98
 45.27     545.00      23.35
 45.37     516.51      22.73
 45.47     564.00      23.75
 45.57     542.19      23.28
 45.67     498.75      22.33
 45.77     539.00      23.22
 45.87     536.00      23.15
 45.97     522.75      22.86
 46.07     546.76      23.38
 46.17     574.50      23.97
 46.27     499.17      22.34
 46.37     529.00      23.00
 46.47     562.81      23.72
 46.57     507.00      22.52
 46.67     511.00      22.61
 46.77     479.66      21.90
 46.87     553.00      23.52
 46.97     514.00      22.67
 47.07     501.25      22.39
 47.17     544.00      23.32
 47.27     550.00      23.45
 47.37     540.52      23.25
 47.47     512.00      22.63
 47.57     557.00      23.60
 47.67     591.00      24.31
 47.77     550.00      23.45
 47.87     633.51      25.17
 47.97     628.00      25.06
 48.07     612.00      24.74
 48.17     649.00      25.48
 48.27     617.00      24.84
 48.37     574.00      23.96
 48.47     570.00      23.87
 48.57     591.00      24.31
 48.67     559.00      23.64
 48.77     572.60      23.93
 48.87     546.00      23.37
 48.97     566.00      23.79
 49.07     529.25      23.01
 49.17     577.00      24.02
 49.27     567.00      23.81
 49.37     615.00      24.80
 49.47     601.12      24.52
 49.57     646.00      25.42
 49.67     750.98      27.40
 49.77     860.32      29.33
 49.87     943.10      30.71
 49.97    1201.42      34.66
 50.07    1529.00      39.10
 50.17    1900.00      43.59
 50.27    2157.12      46.44
 50.37    2346.67      48.44
 50.47    2297.00      47.93
 50.57    2005.66      44.78
 50.67    1725.00      41.53
 50.77    1364.00      36.93
 50.87    1157.71      34.03
 50.97    1025.02      32.02
 51.07     829.00      28.79
 51.17     782.62      27.98
 51.27     699.00      26.44
 51.37     658.00      25.65
 51.47     712.85      26.70
 51.57     643.00      25.36
 51.67     581.54      24.12
 51.77     672.00      25.92
 51.87     598.00      24.45
 51.97     570.00      23.87
 52.07     619.00      24.88
 52.17     604.00      24.58
 52.27     550.99      23.47
 52.37     626.00      25.02
 52.47     593.00      24.35
 52.57     581.96      24.12
 52.67     563.74      23.74
 52.77     615.00      24.80
 52.87     629.13      25.08
 52.97     641.89      25.34
 53.07     647.00      25.44
 53.17     723.00      26.89
 53.27     779.73      27.92
 53.37     894.00      29.90
 53.47    1004.00      31.69
 53.57    1052.00      32.43
 53.67    1193.48      34.55
 53.77    1245.00      35.28
 53.87    1139.44      33.76
 53.97    1139.36      33.75
 54.07     962.00      31.02
 54.17     886.00      29.77
 54.27     777.00      27.87
 54.37     702.00      26.50
 54.47     670.00      25.88
 54.57     653.00      25.55
 54.67     608.32      24.66
 54.77     645.89      25.41
 54.87     636.00      25.22
 54.97     547.79      23.40
 55.07     649.00      25.48
 55.17     596.00      24.41
 55.27     641.00      25.32
 55.37     545.04      23.35
 55.47     561.75      23.70
 55.57     628.00      25.06
 55.67     583.02      24.15
 55.77     629.00      25.08
 55.87     661.00      25.71
 55.97     623.00      24.96
 56.07     722.22      26.87
 56.17     664.68      25.78
 56.27     739.04      27.19
 56.37     857.00      29.27
 56.47     990.00      31.46
 56.57    1184.00      34.41
 56.67    1559.79      39.49
 56.77    1773.45      42.11
 56.87    2091.00      45.73
 56.97    2359.00      48.57
 57.07    2615.00      51.14
 57.17    2565.00      50.65
 57.27    2405.00      49.04
 57.37    2129.21      46.14
 57.47    1797.00      42.39
 57.57    1481.00      38.48
 57.67    1242.00      35.24
 57.77    1014.14      31.85
 57.87     871.00      29.51
 57.97     854.00      29.22
 58.07     779.00      27.91
 58.17     787.00      28.05
 58.27     688.15      26.23
 58.37     784.85      28.02
 58.47     711.49      26.67
 58.57     760.00      27.57
 58.67     860.56      29.34
 58.77     946.20      30.76
 58.87    1009.00      31.76
 58.97    1168.00      34.18
 59.07    1206.00      34.73
 59.17    1211.00      34.80
 59.27    1322.00      36.36
 59.37    1309.00      36.18
 59.47    1253.00      35.40
 59.57    1225.00      35.00
 59.67    1190.00      34.50
 59.77    1115.58      33.40
 59.87    1150.00      33.91
 59.97    1133.83      33.67
 60.07    1212.03      34.81
 60.17    1429.00      37.80
 60.27    1433.00      37.85
 60.37    1585.00      39.81
 60.47    1550.00      39.37
 60.57    1584.00      39.80
 60.67    1525.64      39.06
 60.77    1388.00      37.26
 60.87    1234.00      35.13
 60.97    1047.00      32.36
 61.07     898.65      29.98
 61.17     824.00      28.71
 61.27     727.96      26.98
 61.37     754.02      27.46
 61.47     696.93      26.40
 61.57     727.00      26.96
 61.67     766.00      27.68
 61.77     750.37      27.39
 61.87     947.56      30.78
 61.97    1050.91      32.42
 62.07    1122.89      33.51
 62.17    1193.00      34.54
 62.27    1334.51      36.53
 62.37    1307.00      36.15
 62.47    1378.00      37.12
 62.57    1341.00      36.62
 62.67    1301.66      36.08
 62.77    1145.00      33.84
 62.87     998.58      31.60
 62.97     937.00      30.61
 63.07     730.00      27.02
 63.17     720.00      26.83
 63.27     636.00      25.22
 63.37     635.00      25.20
 63.47     663.00      25.75
 63.57     585.92      24.21
 63.67     626.00      25.02
 63.77     661.00      25.71
 63.87     655.05      25.59
 63.97     596.01      24.41
 64.07     601.10      24.52
 64.17     683.00      26.13
 64.27     697.03      26.40
 64.37     779.00      27.91
 64.47     851.00      29.17
 64.57     916.77      30.28
 64.67    1022.62      31.98
 64.77    1057.00      32.51
 64.87    1050.00      32.40
 64.97    1045.00      32.33
 65.07    1012.38      31.82
 65.17    1030.37      32.10
 65.27     977.11      31.26
 65.37     925.00      30.41
 65.47     867.77      29.46
 65.57     740.19      27.21
 65.67     714.00      26.72
 65.77     745.71      27.31
 65.87     684.00      26.15
 65.97     614.00      24.78
 66.07     632.84      25.16
 66.17     616.00      24.82
 66.27     622.41      24.95
 66.37     560.87      23.68
 66.47     603.00      24.56
 66.57     607.00      24.64
 66.67     631.00      25.12
 66.77     625.00      25.00
 66.87     598.00      24.45
 66.97     633.00      25.16
 67.07     603.00      24.56
 67.17     682.00      26.12
 67.27     690.00      26.27
 67.37     759.00      27.55
 67.47     765.00      27.66
 67.57     912.63      30.21
 67.67    1036.21      32.19
 67.77    1197.00      34.60
 67.87    1391.00      37.30
 67.97    1579.00      39.74
 68.07    1835.00      42.84
 68.17    2048.46      45.26
 68.27    2265.85      47.60
 68.37    2338.45      48.36
 68.47    2392.00      48.91
 68.57    2348.00      48.46
 68.67    2106.24      45.89
 68.77    1797.00      42.39
 68.87    1614.00      40.17
 68.97    1361.73      36.90
 69.07    1121.00      33.48
 69.17     977.15      31.26
 69.27     917.00      30.28
 69.37     868.96      29.48
 69.47     744.00      27.28
 69.57     702.00      26.50
 69.67     614.07      24.78
 69.77     653.00      25.55
 69.87     623.00      24.96
 69.97     636.00      25.22
 70.07     644.21      25.38
 70.17     637.64      25.25
 70.27     658.00      25.65
 70.37     611.00      24.72
 70.47     639.00      25.28
 70.57     669.00      25.87
 70.67     619.00      24.88
 70.77     643.00      25.36
 70.87     608.00      24.66
 70.97     627.00      25.04
 71.07     598.00      24.45
 71.17     667.00      25.83
 71.27     646.00      25.42
 71.37     724.02      26.91
 71.47     863.00      29.38
 71.57     896.00      29.93
 71.67    1008.00      31.75
 71.77    1191.00      34.51
 71.87    1311.00      36.21
 71.97    1518.73      38.97
 72.07    1657.00      40.71
 72.17    1707.00      41.32
 72.27    1829.94      42.78
 72.37    1861.00      43.14
 72.47    1834.00      42.83
 72.57    1791.00      42.32
 72.67    1648.00      40.60
 72.77    1471.58      38.36
 72.87    1358.55      36.86
 72.97    1114.00      33.38
 73.07    1053.00      32.45
 73.17     909.00      30.15
 73.27     766.52      27.69
 73.37     686.98      26.21
 73.47     729.62      27.01
 73.57     690.00      26.27
 73.67     577.77      24.04
 73.77     678.00      26.04
 73.87     618.00      24.86
 73.97     667.00      25.83
 74.07     540.81      23.26
 74.17     643.00      25.36
 74.27     604.52      24.59
 74.37     625.00      25.00
 74.47     530.10      23.02
 74.57     634.35      25.19
 74.67     672.00      25.92
 74.77     626.00      25.02
 74.87     631.00      25.12
 74.97     568.97      23.85
 75.07     638.71      25.27
 75.17     611.90      24.74
 75.27     644.00      25.38
 75.37     640.00      25.30
 75.47     638.00      25.26
 75.57     634.00      25.18
 75.67     604.00      24.58
 75.77     598.00      24.45
 75.87     636.00      25.22
 75.97     620.00      24.90
 76.07     630.00      25.10
 76.17     661.00      25.71
 76.27     608.00      24.66
 76.37     697.00      26.40
 76.47     673.00      25.94
 76.57     681.05      26.10
 76.67     710.00      26.65
 76.77     737.00      27.15
 76.87     730.00      27.02
 76.97     748.00      27.35
 77.07     713.86      26.72
 77.17     718.02      26.80
 77.27     680.00      26.08
 77.37     695.96      26.38
 77.47     642.00      25.34
 77.57     610.00      24.70
 77.67     575.61      23.99
 77.77     554.03      23.54
 77.87     581.00      24.10
 77.97     605.77      24.61
 78.07     554.42      23.55
 78.17     562.00      23.71
 78.27     601.58      24.53
 78.37     549.00      23.43
 78.47     557.31      23.61
 78.57     566.00      23.79
 78.67     510.00      22.58
 78.77     546.00      23.37
 78.87     554.00      23.54
 78.97     544.41      23.33
 79.07     534.00      23.11
 79.17     520.00      22.80
 79.27     576.00      24.00
 79.37     525.00      22.91
 79.47     547.48      23.40
 79.57     504.78      22.47
 79.67     528.00      22.98
 79.77     567.16      23.82
 79.87     514.00      22.67
 79.97     522.91      22.87
 80.07     559.00      23.64
 80.17     555.00      23.56
 80.27     567.00      23.81
 80.37     522.11      22.85
 80.47     634.27      25.18
 80.57     588.00      24.25
 80.67     585.00      24.19
 80.77     613.00      24.76
 80.87     645.00      25.40
 80.97     671.00      25.90
 81.07     632.00      25.14
 81.17     699.00      26.44
 81.27     674.00      25.96
 81.37     741.00      27.22
 81.47     768.22      27.72
 81.57     805.20      28.38
 81.67     721.77      26.87
 81.77     761.00      27.59
 81.87     721.00      26.85
 81.97     770.00      27.75
 82.07     786.00      28.04
 82.17     730.00      27.02
 82.27     719.00      26.81
 82.37     754.04      27.46
 82.47     698.93      26.44
 82.57     651.00      25.51
 82.67     659.00      25.67
 82.77     679.98      26.08
 82.87     611.00      24.72
 82.97     597.00      24.43
 83.07     561.78      23.70
 83.17     575.00      23.98
 83.27     643.17      25.36
 83.37     600.37      24.50
 83.47     513.00      22.65
 83.57     600.00      24.49
 83.67     547.00      23.39
 83.77     554.00      23.54
 83.87     550.00      23.45
 83.97     575.00      23.98
 84.07     593.47      24.36
 84.17     583.00      24.15
 84.27     569.00      23.85
 84.37     619.00      24.88
 84.47     553.00      23.52
 84.57     602.00      24.54
 84.67     585.00      24.19
 84.77     584.00      24.17
 84.87     558.00      23.62
 84.97     557.00      23.60
 85.07     583.84      24.16
 85.17     585.00      24.19
 85.27     603.32      24.56
 85.37     571.00      23.90
 85.47     537.00      23.17
 85.57     510.00      22.58
 85.67     538.00      23.19
 85.77     533.00      23.09
 85.87     510.00      22.58
 85.97     589.72      24.28
 86.07     547.00      23.39
 86.17     490.87      22.16
 86.27     534.00      23.11
 86.37     538.00      23.19
 86.47     611.00      24.72
 86.57     597.00      24.43
 86.67     588.00      24.25
 86.77     556.00      23.58
 86.87     575.00      23.98
 86.97     546.00      23.37
 87.07     578.00      24.04
 87.17     580.00      24.08
 87.27     608.00      24.66
 87.37     597.00      24.43
 87.47     616.00      24.82
 87.57     620.00      24.90
 87.67     656.00      25.61
 87.77     660.00      25.69
 87.87     690.00      26.27
 87.97     633.00      25.16
 88.07     665.15      25.79
 88.17     661.00      25.71
 88.27     651.86      25.53
 88.37     697.00      26.40
 88.47     644.00      25.38
 88.57     624.38      24.99
 88.67     616.24      24.82
 88.77     575.00      23.98
 88.87     594.84      24.39
 88.97     610.08      24.70
 89.07     598.00      24.45
 89.17     568.93      23.85
 89.27     605.73      24.61
 89.37     582.00      24.12
 89.47     592.30      24.34
 89.57     595.00      24.39
 89.67     573.72      23.95
 89.77     574.00      23.96
 89.87     626.12      25.02
 89.97     627.00      25.04
 90.07     652.00      25.53
 90.17     576.00      24.00
 90.27     552.00      23.49
 90.37     546.00      23.37
 90.47     563.00      23.73
 90.57     532.00      23.07
 90.67     585.00      24.19
 90.77     545.00      23.35
 90.87     539.29      23.22
 90.97     551.00      23.47
 91.07     499.00      22.34
 91.17     545.62      23.36
 91.27     489.00      22.11
 91.37     550.00      23.45
 91.47     529.00      23.00
 91.57     515.00      22.69
 91.67     508.00      22.54
 91.77     517.00      22.74
 91.87     525.00      22.91
 91.97     572.00      23.92
 92.07     552.00      23.49
 92.17     568.59      23.85
 92.27     534.40      23.12
 92.37     534.00      23.11
 92.47     563.00      23.73
 92.57     557.00      23.60
 92.67     608.00      24.66
 92.77     615.00      24.80
 92.87     619.77      24.90
 92.97     680.00      26.08
 93.07     659.00      25.67
 93.17     643.00      25.36
 93.27     720.18      26.84
 93.37     742.32      27.25
 93.47     756.00      27.50
 93.57     741.23      27.23
 93.67     796.00      28.21
 93.77     749.08      27.37
 93.87     774.00      27.82
 93.97     855.00      29.24
 94.07     809.97      28.46
 94.17     852.02      29.19
 94.27     868.00      29.46
 94.37     802.92      28.34
 94.47     879.00      29.65
 94.57     880.00      29.66
 94.67     841.46      29.01
 94.77     912.00      30.20
 94.87     925.49      30.42
 94.97     917.00      30.28
 95.07     921.00      30.35
 95.17     916.14      30.27
 95.27     936.00      30.59
 95.37     904.00      30.07
 95.47     842.80      29.03
 95.57     902.00      30.03
 95.67     863.00      29.38
 95.77     844.00      29.05
 95.87     817.00      28.58
 95.97     747.15      27.33
 96.07     747.00      27.33
 96.17     789.00      28.09
 96.27     732.00      27.06
 96.37     791.51      28.13
 96.47     763.00      27.62
 96.57     700.97      26.48
 96.67     808.00      28.43
 96.77     768.00      27.71
 96.87     822.00      28.67
 96.97     909.35      30.16
 97.07     950.00      30.82
 97.17     994.00      31.53
 97.27    1090.00      33.02
 97.37    1083.80      32.92
 97.47    1243.47      35.26
 97.57    1199.77      34.64
 97.67    1356.24      36.83
 97.77    1353.00      36.78
 97.87    1504.47      38.79
 97.97    1490.00      38.60
 98.07    1493.00      38.64
 98.17    1500.00      38.73
 98.27    1453.50      38.12
 98.37    1321.03      36.35
 98.47    1290.52      35.92
 98.57    1286.00      35.86
 98.67    1182.74      34.39
 98.77    1137.00      33.72
 98.87    1175.00      34.28
 98.97     975.37      31.23
 99.07     970.00      31.14
 99.17     929.00      30.48
 99.27     977.00      31.26
 99.37     927.00      30.45
 99.47     873.00      29.55
 99.57     892.00      29.87
 99.67     919.00      30.32
 99.77     974.25      31.21
 99.87    1042.00      32.28
 99.97    1132.55      33.65
100.07    1230.94      35.08
100.17    1179.00      34.34
100.27    1297.09      36.02
100.37    1370.49      37.02
100.47    1465.08      38.28
100.57    1624.00      40.30
100.67    1737.23      41.68
100.77    1811.00      42.56
100.87    1847.00      42.98
100.97    1959.57      44.27
101.07    1980.86      44.51
101.17    1983.11      44.53
101.27    1988.00      44.59
101.37    1935.00      43.99
101.47    1943.00      44.08
101.57    2006.00      44.79
101.67    1916.90      43.78
101.77    1716.21      41.43
101.87    1724.00      41.52
101.97    1643.00      40.53
102.07    1578.00      39.72
102.17    1590.65      39.88
102.27    1455.00      38.14
102.37    1428.00      37.79
102.47    1373.00      37.05
102.57    1302.34      36.09
102.67    1221.00      34.94
102.77    1216.00      34.87
102.87    1201.12      34.66
102.97    1159.38      34.05
103.07    1129.53      33.61
103.17    1094.00      33.08
103.27    1130.77      33.63
103.37    1047.15      32.36
103.47     954.00      30.89
103.57     981.69      31.33
103.67     932.00      30.53
103.77     944.00      30.72
103.87     908.00      30.13
103.97     842.00      29.02
104.07     816.00      28.57
104.17     767.56      27.70
104.27     716.09      26.76
104.37     715.52      26.75
104.47     667.00      25.83
104.57     667.00      25.83
104.67     642.53      25.35
104.77     659.00      25.67
104.87     612.00      24.74
104.97     603.00      24.56
105.07     594.00      24.37
105.17     612.36      24.75
105.27     600.00      24.49
105.37     594.00      24.37
105.47     531.00      23.04
105.57     530.51      23.03
105.67     566.00      23.79
105.77     555.61      23.57
105.87     515.07      22.70
105.97     584.77      24.18
106.07     525.00      22.91
106.17     549.00      23.43
106.27     600.00      24.49
106.37     608.00      24.66
106.47     558.00      23.62
106.57     570.50      23.89
106.67     573.00      23.94
106.77     621.00      24.92
106.87     616.00      24.82
106.97     631.00      25.12
107.07     598.23      24.46
107.17     613.31      24.77
107.27     606.00      24.62
107.37     725.98      26.94
107.47     718.55      26.81
107.57     695.00      26.36
107.67     668.34      25.85
107.77     720.19      26.84
107.87     683.20      26.14
107.97     705.00      26.55
108.07     774.54      27.83
108.17     737.00      27.15
108.27     709.00      26.63
108.37     734.39      27.10
108.47     741.78      27.24
108.57     690.00      26.27
108.67     694.08      26.35
108.77     699.00      26.44
108.87     677.63      26.03
108.97     688.00      26.23
109.07     687.70      26.22
109.17     705.00      26.55
109.27     702.00      26.50
109.37     674.12      25.96
109.47     716.00      26.76
109.57     701.00      26.48
109.67     723.00      26.89
109.77     699.21      26.44
109.87     728.90      27.00
109.97     703.00      26.51
110.07     698.00      26.42
110.17     698.00      26.42
110.27     608.66      24.67
110.37     677.00      26.02
110.47     641.00      25.32
110.57     673.00      25.94
110.67     560.00      23.66
110.77     603.24      24.56
110.87     583.00      24.15
110.97     532.34      23.07
111.07     540.00      23.24
111.17     525.00      22.91
111.27     583.00      24.15
111.37     576.00      24.00
111.47     598.00      24.45
111.57     590.00      24.29
111.67     576.00      24.00
111.77     553.00      23.52
111.87     567.00      23.81
111.97     514.24      22.68
112.07     554.04      23.54
112.17     513.93      22.67
112.27     564.00      23.75
112.37     524.37      22.90
112.47     582.00      24.12
112.57     578.00      24.04
112.67     558.00      23.62
112.77     589.00      24.27
112.87     562.00      23.71
112.97     588.00      24.25
113.07     614.00      24.78
113.17     633.98      25.18
113.27     619.00      24.88
113.37     617.00      24.84
113.47     623.00      24.96
113.57     608.00      24.66
113.67     626.81      25.04
113.77     639.94      25.30
113.87     625.58      25.01
113.97     687.00      26.21
114.07     676.00      26.00
114.17     731.00      27.04
114.27     702.00      26.50
114.37     712.00      26.68
114.47     726.00      26.94
114.57     873.52      29.56
114.67     815.00      28.55
114.77     915.00      30.25
114.87     988.00      31.43
114.97    1093.00      33.06
115.07    1230.00      35.07
115.17    1398.38      37.39
115.27    1539.22      39.23
115.37    1638.08      40.47
115.47    1747.80      41.81
115.57    2090.64      45.72
115.67    2456.00      49.56
115.77    2717.00      52.12
115.87    3067.00      55.38
115.97    3251.40      57.02
116.07    3570.00      59.75
116.17    3864.97      62.17
116.27    4202.58      64.83
116.37    4675.00      68.37
116.47    5183.00      71.99
116.57    5533.91      74.39
116.67    5673.49      75.32
116.77    6174.00      78.57
116.87    6535.14      80.84
116.97    6622.00      81.38
117.07    6906.00      83.10
117.17    7109.00      84.31
117.27    6977.00      83.53
117.37    7085.00      84.17
117.47    6820.09      82.58
117.57    6878.00      82.93
117.67    6504.48      80.65
117.77    6256.00      79.09
117.87    5967.00      77.25
117.97    5583.00      74.72
118.07    5345.10      73.11
118.17    4930.00      70.21
118.27    4672.00      68.35
118.37    4358.00      66.02
118.47    4038.97      63.55
118.57    3693.00      60.77
118.67    3263.00      57.12
118.77    2948.00      54.30
118.87    2701.78      51.98
118.97    2487.24      49.87
119.07    2142.33      46.29
119.17    1906.00      43.66
119.27    1721.00      41.48
119.37    1593.00      39.91
119.47    1487.00      38.56
119.57    1262.05      35.53
119.67    1250.00      35.36
119.77    1143.00      33.81
119.87     990.00      31.46
119.97    1019.93      31.94
120.07     909.00      30.15
120.17     914.00      30.23
120.27     820.00      28.64
120.37     751.00      27.40
120.47     781.80      27.96
120.57     724.00      26.91
120.67     673.00      25.94
120.77     761.00      27.59
120.87     680.00      26.08
120.97     687.00      26.21
121.07     631.00      25.12
121.17     641.78      25.33
121.27     664.79      25.78
121.37     622.00      24.94
121.47     619.00      24.88
121.57     634.00      25.18
121.67     596.99      24.43
121.77     625.00      25.00
121.87     686.16      26.19
121.97     600.00      24.49
122.07     573.41      23.95
122.17     673.75      25.96
122.27     598.00      24.45
122.37     649.00      25.48
122.47     636.00      25.22
122.57     667.00      25.83
122.67     636.00      25.22
122.77     647.00      25.44
122.87     678.95      26.06
122.97     685.00      26.17
123.07     673.00      25.94
123.17     652.00      25.53
123.27     708.03      26.61
123.37     674.00      25.96
123.47     725.65      26.94
123.57     649.00      25.48
123.67     659.00      25.67
123.77     664.56      25.78
123.87     641.23      25.32
123.97     722.00      26.87
124.07     709.00      26.63
124.17     642.00      25.34
124.27     682.00      26.12
124.37     662.00      25.73
124.47     653.96      25.57
124.57     628.45      25.07
124.67     630.37      25.11
124.77     640.00      25.30
124.87     623.00      24.96
124.97     602.00      24.54
