  9.97     601.00      24.52
 10.07     535.73      23.15
 10.17     623.00      24.96
 10.27     590.89      24.31
 10.37     596.82      24.43
 10.47     596.00      24.41
 10.57     572.78      23.93
 10.67     576.00      24.00
 10.77     639.00      25.28
 10.87     580.00      24.08
 10.97     591.00      24.31
 11.07     601.00      24.52
 11.17     613.00      24.76
 11.27     566.00      23.79
 11.37     548.37      23.42
 11.47     529.84      23.02
 11.57     599.33      24.48
 11.67     604.00      24.58
 11.77     624.33      24.99
 11.87     635.00      25.20
 11.97     668.00      25.85
 12.07     658.00      25.65
 12.17     683.00      26.13
 12.27     629.00      25.08
 12.37     661.26      25.72
 12.47     676.00      26.00
 12.57     582.41      24.13
 12.67     540.00      23.24
 12.77     593.53      24.36
 12.87     556.00      23.58
 12.97     549.45      23.44
 13.07     554.00      23.54
 13.17     543.00      23.30
 13.27     534.00      23.11
 13.37     517.00      22.74
 13.47     530.00      23.02
 13.57     567.06      23.81
 13.67     564.00      23.75
 13.77     540.00      23.24
 13.87     520.00      22.80
 13.97     590.00      24.29
 14.07     528.98      23.00
 14.17     585.35      24.19
 14.27     542.00      23.28
 14.37     528.00      22.98
 14.47     556.00      23.58
 14.57     594.00      24.37
 14.67     537.00      23.17
 14.77     579.68      24.08
 14.87     551.00      23.47
 14.97     598.00      24.45
 15.07     542.87      23.30
 15.17     551.00      23.47
 15.27     600.85      24.51
 15.37     548.00      23.41
 15.47     539.00      23.22
 15.57     539.00      23.22
 15.67     575.90      24.00
 15.77     552.00      23.49
 15.87     571.84      23.91
 15.97     573.22      23.94
 16.07     518.79      22.78
 16.17     517.86      22.76
 16.27     536.00      23.15
 16.37     538.00      23.19
 16.47     529.56      23.01
 16.57     541.00      23.26
 16.67     532.26      23.07
 16.77     555.51      23.57
 16.87     534.00      23.11
 16.97     576.00      24.00
 17.07     601.00      24.52
 17.17     521.20      22.83
 17.27     544.18      23.33
 17.37     510.00      22.58
 17.47     535.00      23.13
 17.57     545.00      23.35
 17.67     536.00      23.15
 17.77     596.23      24.42
 17.87     559.00      23.64
 17.97     576.22      24.00
 18.07     528.59      22.99
 18.17     525.72      22.93
 18.27     591.00      24.31
 18.37     561.00      23.69
 18.47     580.00      24.08
 18.57     575.00      23.98
 18.67     518.00      22.76
 18.77     528.00      22.98
 18.87     557.00      23.60
 18.97     567.80      23.83
 19.07     579.00      24.06
 19.17     533.21      23.09
 19.27     544.00      23.32
 19.37     517.00      22.74
 19.47     513.94      22.67
 19.57     527.34      22.96
 19.67     531.00      23.04
 19.77     575.00      23.98
 19.87     538.00      23.19
 19.97     566.00      23.79
 20.07     568.00      23.83
 20.17     513.77      22.67
 20.27     545.00      23.35
 20.37     531.04      23.04
 20.47     526.00      22.93
 20.57     585.26      24.19
 20.67     561.88      23.70
 20.77     569.66      23.87
 20.87     553.00      23.52
 20.97     563.00      23.73
 21.07     533.67      23.10
 21.17     515.28      22.70
 21.27     531.00      23.04
 21.37     552.00      23.49
 21.47     532.96      23.09
 21.57     551.00      23.47
 21.67     556.00      23.58
 21.77     547.00      23.39
 21.87     551.00      23.47
 21.97     525.95      22.93
 22.07     504.20      22.45
 22.17     553.00      23.52
 22.27     514.30      22.68
 22.37     566.00      23.79
 22.47     524.24      22.90
 22.57     595.00      24.39
 22.67     520.00      22.80
 22.77     581.31      24.11
 22.87     556.00      23.58
 22.97     532.81      23.08
 23.07     520.00      22.80
 23.17     538.00      23.19
 23.27     523.00      22.87
 23.37     591.36      24.32
 23.47     518.08      22.76
 23.57     583.00      24.15
 23.67     574.10      23.96
 23.77     593.40      24.36
 23.87     561.00      23.69
 23.97     599.16      24.48
 24.07     539.00      23.22
 24.17     567.00      23.81
 24.27     576.00      24.00
 24.37     569.00      23.85
 24.47     583.00      24.15
 24.57     635.00      25.20
 24.67     566.32      23.80
 24.77     589.00      24.27
 24.87     619.00      24.88
 24.97     572.86      23.93
 25.07     597.00      24.43
 25.17     559.09      23.65
 25.27     597.61      24.45
 25.37     576.00      24.00
 25.47     572.00      23.92
 25.57     544.00      23.32
 25.67     567.45      23.82
 25.77     618.00      24.86
 25.87     520.00      22.80
 25.97     538.00      23.19
 26.07     498.90      22.34
 26.17     524.00      22.89
 26.27     511.45      22.62
 26.37     544.00      23.32
 26.47     543.00      23.30
 26.57     573.00      23.94
 26.67     547.00      23.39
 26.77     581.95      24.12
 26.87     498.47      22.33
 26.97     521.00      22.83
 27.07     559.00      23.64
 27.17     534.98      23.13
 27.27     501.17      22.39
 27.37     587.00      24.23
 27.47     571.00      23.90
 27.57     557.00      23.60
 27.67     596.00      24.41
 27.77     584.00      24.17
 27.87     611.00      24.72
 27.97     669.00      25.87
 28.07     736.00      27.13
 28.17     928.00      30.46
 28.27     908.00      30.13
 28.37     895.00      29.92
 28.47     795.00      28.20
 28.57     738.15      27.17
 28.67     677.73      26.03
 28.77     763.00      27.62
 28.87     810.24      28.46
 28.97     813.00      28.51
 29.07     738.00      27.17
 29.17     687.96      26.23
 29.27     657.00      25.63
 29.37     614.89      24.80
 29.47     605.00      24.60
 29.57     571.18      23.90
 29.67     546.00      23.37
 29.77     552.00      23.49
 29.87     563.00      23.73
 29.97     595.00      24.39
 30.07     553.00      23.52
 30.17     553.58      23.53
 30.27     493.36      22.21
 30.37     590.00      24.29
 30.47     546.00      23.37
 30.57     581.00      24.10
 30.67     571.00      23.90
 30.77     566.00      23.79
 30.87     549.12      23.43
 30.97     557.61      23.61
 31.07     595.00      24.39
 31.17     629.00      25.08
 31.27     566.00      23.79
 31.37     564.00      23.75
 31.47     533.00      23.09
 31.57     548.64      23.42
 31.67     508.26      22.54
 31.77     541.00      23.26
 31.87     572.00      23.92
 31.97     539.00      23.22
 32.07     557.53      23.61
 32.17     549.00      23.43
 32.27     550.00      23.45
 32.37     576.00      24.00
 32.47     522.21      22.85
 32.57     574.69      23.97
 32.67     543.00      23.30
 32.77     533.87      23.11
 32.87     488.48      22.10
 32.97     565.00      23.77
 33.07     544.00      23.32
 33.17     548.00      23.41
 33.27     526.54      22.95
 33.37     613.00      24.76
 33.47     588.13      24.25
 33.57     619.61      24.89
 33.67     662.98      25.75
 33.77     733.00      27.07
 33.87     882.00      29.70
 33.97    1050.00      32.40
 34.07     973.29      31.20
 34.17    1023.00      31.98
 34.27     938.00      30.63
 34.37     812.00      28.50
 34.47     654.75      25.59
 34.57     631.00      25.12
 34.67     548.00      23.41
 34.77     551.79      23.49
 34.87     570.33      23.88
 34.97     540.00      23.24
 35.07     539.00      23.22
 35.17     527.00      22.96
 35.27     503.00      22.43
 35.37     534.58      23.12
 35.47     560.00      23.66
 35.57     571.00      23.90
 35.67     547.53      23.40
 35.77     527.00      22.96
 35.87     516.00      22.72
 35.97     541.00      23.26
 36.07     556.25      23.58
 36.17     526.23      22.94
 36.27     505.00      22.47
 36.37     480.00      21.91
 36.47     512.00      22.63
 36.57     507.00      22.52
 36.67     511.00      22.61
 36.77     527.00      22.96
 36.87     507.00      22.52
 36.97     528.00      22.98
 37.07     504.00      22.45
 37.17     499.00      22.34
 37.27     536.00      23.15
 37.37     523.84      22.89
 37.47     522.00      22.85
 37.57     541.00      23.26
 37.67     524.00      22.89
 37.77     506.00      22.49
 37.87     544.05      23.32
 37.97     527.81      22.97
 38.07     518.00      22.76
 38.17     449.00      21.19
 38.27     539.09      23.22
 38.37     513.00      22.65
 38.47     502.05      22.41
 38.57     487.76      22.09
 38.67     492.00      22.18
 38.77     497.00      22.29
 38.87     531.00      23.04
 38.97     508.00      22.54
 39.07     492.00      22.18
 39.17     482.64      21.97
 39.27     497.66      22.31
 39.37     535.60      23.14
 39.47     483.00      21.98
 39.57     485.00      22.02
 39.67     485.00      22.02
 39.77     472.00      21.73
 39.87     503.00      22.43
 39.97     514.00      22.67
 40.07     492.06      22.18
 40.17     498.00      22.32
 40.27     542.38      23.29
 40.37     480.35      21.92
 40.47     480.00      21.91
 40.57     521.26      22.83
 40.67     460.00      21.45
 40.77     505.00      22.47
 40.87     509.84      22.58
 40.97     515.95      22.71
 41.07     482.00      21.95
 41.17     480.00      21.91
 41.27     484.00      22.00
 41.37     528.19      22.98
 41.47     468.00      21.63
 41.57     489.14      22.12
 41.67     506.00      22.49
 41.77     561.00      23.69
 41.87     507.00      22.52
 41.97     474.00      21.77
 42.07     553.33      23.52
 42.17     494.00      22.23
 42.27     533.00      23.09
 42.37     525.00      22.91
 42.47     547.00      23.39
 42.57     626.35      25.03
 42.67     615.00      24.80
 42.77     581.00      24.10
 42.87     645.32      25.40
 42.97     585.00      24.19
 43.07     538.00      23.19
 43.17     542.00      23.28
 43.27     554.00      23.54
 43.37     512.00      22.63
 43.47     493.18      22.21
 43.57     501.00      22.38
 43.67     505.00      22.47
 43.77     494.45      22.24
 43.87     541.00      23.26
 43.97     494.00      22.23
 44.07     466.00      21.59
 44.17     521.00      22.83
 44.27     495.00      22.25
 44.37     525.00      22.91
 44.47     506.00      22.49
 44.57     468.75      21.65
 44.67     516.15      22.72
 44.77     463.00      21.52
 44.87     497.00      22.29
 44.97     499.00      22.34
 45.07     478.00      21.86
 45.17     469.20      21.66
 45.27     515.68      22.71
 45.37     444.00      21.07
 45.47     478.00      21.86
 45.57     535.00      23.13
 45.67     521.08      22.83
 45.77     490.69      22.15
 45.87     517.00      22.74
 45.97     520.00      22.80
 46.07     489.00      22.11
 46.17     471.00      21.70
 46.27     518.00      22.76
 46.37     499.00      22.34
 46.47     465.40      21.57
 46.57     491.00      22.16
 46.67     476.75      21.83
 46.77     483.00      21.98
 46.87     482.35      21.96
 46.97     514.00      22.67
 47.07     509.00      22.56
 47.17     543.21      23.31
 47.27     523.00      22.87
 47.37     539.00      23.22
 47.47     507.00      22.52
 47.57     549.00      23.43
 47.67     584.00      24.17
 47.77     545.08      23.35
 47.87     619.00      24.88
 47.97     592.00      24.33
 48.07     575.00      23.98
 48.17     565.00      23.77
 48.27     563.00      23.73
 48.37     538.00      23.19
 48.47     495.32      22.26
 48.57     509.00      22.56
 48.67     534.00      23.11
 48.77     531.82      23.06
 48.87     520.52      22.81
 48.97     483.00      21.98
 49.07     562.00      23.71
 49.17     584.00      24.17
 49.27     590.12      24.29
 49.37     578.00      24.04
 49.47     547.00      23.39
 49.57     680.29      26.08
 49.67     823.00      28.69
 49.77     957.99      30.95
 49.87    1197.52      34.61
 49.97    1620.05      40.25
 50.07    1986.00      44.56
 50.17    2330.00      48.27
 50.27    2379.00      48.77
 50.37    2182.00      46.71
 50.47    1913.00      43.74
 50.57    1587.56      39.84
 50.67    1137.89      33.73
 50.77     917.00      30.28
 50.87     746.00      27.31
 50.97     670.19      25.89
 51.07     676.00      26.00
 51.17     589.05      24.27
 51.27     641.40      25.33
 51.37     576.00      24.00
 51.47     597.00      24.43
 51.57     570.00      23.87
 51.67     561.00      23.69
 51.77     522.00      22.85
 51.87     493.14      22.21
 51.97     591.00      24.31
 52.07     545.65      23.36
 52.17     572.00      23.92
 52.27     535.00      23.13
 52.37     593.00      24.35
 52.47     540.83      23.26
 52.57     515.03      22.69
 52.67     568.00      23.83
 52.77     631.00      25.12
 52.87     627.00      25.04
 52.97     704.00      26.53
 53.07     761.67      27.60
 53.17     834.42      28.89
 53.27     952.64      30.86
 53.37    1120.00      33.47
 53.47    1132.00      33.65
 53.57    1194.00      34.55
 53.67    1191.37      34.52
 53.77    1078.00      32.83
 53.87     902.07      30.03
 53.97     855.71      29.25
 54.07     730.00      27.02
 54.17     680.52      26.09
 54.27     647.00      25.44
 54.37     606.00      24.62
 54.47     592.00      24.33
 54.57     590.07      24.29
 54.67     564.00      23.75
 54.77     504.28      22.46
 54.87     601.00      24.52
 54.97     531.00      23.04
 55.07     620.00      24.90
 55.17     605.00      24.60
 55.27     552.00      23.49
 55.37     584.66      24.18
 55.47     584.00      24.17
 55.57     585.00      24.19
 55.67     566.00      23.79
 55.77     595.00      24.39
 55.87     613.00      24.76
 55.97     657.00      25.63
 56.07     666.00      25.81
 56.17     785.26      28.02
 56.27     855.00      29.24
 56.37    1078.00      32.83
 56.47    1311.00      36.21
 56.57    1596.00      39.95
 56.67    1973.31      44.42
 56.77    2306.00      48.02
 56.87    2499.72      50.00
 56.97    2502.91      50.03
 57.07    2391.00      48.90
 57.17    2160.00      46.48
 57.27    1779.00      42.18
 57.37    1421.75      37.71
 57.47    1213.00      34.83
 57.57     939.00      30.64
 57.67     827.10      28.76
 57.77     745.83      27.31
 57.87     739.00      27.18
 57.97     664.81      25.78
 58.07     638.61      25.27
 58.17     729.00      27.00
 58.27     709.26      26.63
 58.37     810.00      28.46
 58.47     797.00      28.23
 58.57     927.00      30.45
 58.67     996.27      31.56
 58.77    1167.84      34.17
 58.87    1222.00      34.96
 58.97    1284.09      35.83
 59.07    1362.95      36.92
 59.17    1363.00      36.92
 59.27    1199.68      34.64
 59.37    1285.00      35.85
 59.47    1162.00      34.09
 59.57    1080.20      32.87
 59.67    1176.16      34.30
 59.77    1078.77      32.84
 59.87    1184.00      34.41
 59.97    1289.00      35.90
 60.07    1421.00      37.70
 60.17    1509.00      38.85
 60.27    1534.34      39.17
 60.37    1492.00      38.63
 60.47    1459.00      38.20
 60.57    1281.00      35.79
 60.67    1085.58      32.95
 60.77    1033.00      32.14
 60.87     817.00      28.58
 60.97     781.00      27.95
 61.07     664.00      25.77
 61.17     650.56      25.51
 61.27     654.00      25.57
 61.37     608.78      24.67
 61.47     667.00      25.83
 61.57     763.47      27.63
 61.67     777.00      27.87
 61.77     899.00      29.98
 61.87    1040.00      32.25
 61.97    1116.00      33.41
 62.07    1293.00      35.96
 62.17    1362.00      36.91
 62.27    1411.19      37.57
 62.37    1252.00      35.38
 62.47    1261.88      35.52
 62.57    1065.00      32.63
 62.67     931.00      30.51
 62.77     892.89      29.88
 62.87     750.00      27.39
 62.97     679.00      26.06
 63.07     664.30      25.77
 63.17     579.88      24.08
 63.27     578.53      24.05
 63.37     594.67      24.39
 63.47     603.00      24.56
 63.57     589.77      24.29
 63.67     582.00      24.12
 63.77     614.30      24.79
 63.87     641.00      25.32
 63.97     688.00      26.23
 64.07     658.00      25.65
 64.17     707.88      26.61
 64.27     811.00      28.48
 64.37     907.00      30.12
 64.47     973.00      31.19
 64.57     984.00      31.37
 64.67    1045.00      32.33
 64.77     975.16      31.23
 64.87    1050.00      32.40
 64.97     978.00      31.27
 65.07     897.00      29.95
 65.17     778.00      27.89
 65.27     797.00      28.23
 65.37     707.32      26.60
 65.47     684.00      26.15
 65.57     611.00      24.72
 65.67     584.00      24.17
 65.77     584.00      24.17
 65.87     581.00      24.10
 65.97     612.88      24.76
 66.07     592.00      24.33
 66.17     542.00      23.28
 66.27     541.00      23.26
 66.37     563.00      23.73
 66.47     593.00      24.35
 66.57     508.00      22.54
 66.67     602.00      24.54
 66.77     625.49      25.01
 66.87     571.55      23.91
 66.97     630.00      25.10
 67.07     630.00      25.10
 67.17     666.80      25.82
 67.27     755.19      27.48
 67.37     860.00      29.33
 67.47    1054.19      32.47
 67.57    1253.09      35.40
 67.67    1407.00      37.51
 67.77    1594.00      39.92
 67.87    1901.00      43.60
 67.97    2269.00      47.63
 68.07    2280.14      47.75
 68.17    2392.00      48.91
 68.27    2350.00      48.48
 68.37    2095.19      45.77
 68.47    2032.00      45.08
 68.57    1763.00      41.99
 68.67    1459.00      38.20
 68.77    1169.00      34.19
 68.87     967.00      31.10
 68.97     851.00      29.17
 69.07     739.00      27.18
 69.17     697.00      26.40
 69.27     692.27      26.31
 69.37     601.92      24.53
 69.47     587.00      24.23
 69.57     588.00      24.25
 69.67     581.00      24.10
 69.77     578.00      24.04
 69.87     610.00      24.70
 69.97     562.00      23.71
 70.07     594.00      24.37
 70.17     555.09      23.56
 70.27     534.00      23.11
 70.37     585.00      24.19
 70.47     529.38      23.01
 70.57     565.00      23.77
 70.67     625.26      25.01
 70.77     601.00      24.52
 70.87     599.78      24.49
 70.97     660.04      25.69
 71.07     648.03      25.46
 71.17     730.00      27.02
 71.27     768.00      27.71
 71.37     929.00      30.48
 71.47     999.00      31.61
 71.57    1161.00      34.07
 71.67    1351.00      36.76
 71.77    1474.83      38.40
 71.87    1655.00      40.68
 71.97    1803.00      42.46
 72.07    1961.70      44.29
 72.17    1956.97      44.24
 72.27    1836.60      42.86
 72.37    1594.84      39.94
 72.47    1451.98      38.10
 72.57    1305.00      36.12
 72.67    1165.00      34.13
 72.77    1006.68      31.73
 72.87     998.00      31.59
 72.97     822.00      28.67
 73.07     775.27      27.84
 73.17     697.49      26.41
 73.27     698.00      26.42
 73.37     620.41      24.91
 73.47     698.00      26.42
 73.57     668.00      25.85
 73.67     597.00      24.43
 73.77     566.00      23.79
 73.87     621.00      24.92
 73.97     588.00      24.25
 74.07     632.16      25.14
 74.17     610.00      24.70
 74.27     617.63      24.85
 74.37     619.00      24.88
 74.47     606.04      24.62
 74.57     581.29      24.11
 74.67     627.00      25.04
 74.77     572.26      23.92
 74.87     552.67      23.51
 74.97     549.66      23.44
 75.07     544.01      23.32
 75.17     588.00      24.25
 75.27     554.00      23.54
 75.37     598.09      24.46
 75.47     569.26      23.86
 75.57     579.00      24.06
 75.67     608.00      24.66
 75.77     565.00      23.77
 75.87     554.00      23.54
 75.97     610.00      24.70
 76.07     570.15      23.88
 76.17     609.27      24.68
 76.27     659.00      25.67
 76.37     682.71      26.13
 76.47     690.00      26.27
 76.57     652.00      25.53
 76.67     721.46      26.86
 76.77     696.35      26.39
 76.87     663.00      25.75
 76.97     661.00      25.71
 77.07     648.00      25.46
 77.17     604.00      24.58
 77.27     605.11      24.60
 77.37     605.13      24.60
 77.47     579.00      24.06
 77.57     508.71      22.55
 77.67     543.11      23.30
 77.77     559.52      23.65
 77.87     532.00      23.07
 77.97     572.08      23.92
 78.07     525.00      22.91
 78.17     501.06      22.38
 78.27     529.00      23.00
 78.37     479.62      21.90
 78.47     506.00      22.49
 78.57     484.00      22.00
 78.67     495.00      22.25
 78.77     477.00      21.84
 78.87     512.15      22.63
 78.97     516.00      22.72
 79.07     517.00      22.74
 79.17     540.86      23.26
 79.27     513.00      22.65
 79.37     527.67      22.97
 79.47     493.92      22.22
 79.57     535.30      23.14
 79.67     509.92      22.58
 79.77     526.00      22.93
 79.87     567.00      23.81
 79.97     536.00      23.15
 80.07     583.00      24.15
 80.17     584.00      24.17
 80.27     512.25      22.63
 80.37     607.00      24.64
 80.47     559.89      23.66
 80.57     601.24      24.52
 80.67     635.00      25.20
 80.77     659.00      25.67
 80.87     683.00      26.13
 80.97     662.00      25.73
 81.07     742.72      27.25
 81.17     679.82      26.07
 81.27     763.71      27.64
 81.37     710.00      26.65
 81.47     728.51      26.99
 81.57     782.00      27.96
 81.67     699.00      26.44
 81.77     733.00      27.07
 81.87     703.50      26.52
 81.97     684.19      26.16
 82.07     667.00      25.83
 82.17     690.00      26.27
 82.27     636.00      25.22
 82.37     646.00      25.42
 82.47     579.00      24.06
 82.57     594.00      24.37
 82.67     614.64      24.79
 82.77     559.17      23.65
 82.87     555.00      23.56
 82.97     535.00      23.13
 83.07     560.00      23.66
 83.17     576.00      24.00
 83.27     562.00      23.71
 83.37     548.00      23.41
 83.47     527.00      22.96
 83.57     535.00      23.13
 83.67     515.31      22.70
 83.77     521.31      22.83
 83.87     509.00      22.56
 83.97     604.18      24.58
 84.07     616.21      24.82
 84.17     604.92      24.60
 84.27     567.45      23.82
 84.37     579.06      24.06
 84.47     595.59      24.40
 84.57     583.41      24.15
 84.67     564.00      23.75
 84.77     497.75      22.31
 84.87     533.00      23.09
 84.97     492.44      22.19
 85.07     535.00      23.13
 85.17     546.00      23.37
 85.27     533.00      23.09
 85.37     542.00      23.28
 85.47     554.95      23.56
 85.57     560.78      23.68
 85.67     528.00      22.98
 85.77     564.00      23.75
 85.87     527.00      22.96
 85.97     516.57      22.73
 86.07     548.00      23.41
 86.17     532.00      23.07
 86.27     483.77      21.99
 86.37     504.00      22.45
 86.47     535.00      23.13
 86.57     574.00      23.96
 86.67     553.00      23.52
 86.77     527.00      22.96
 86.87     558.61      23.63
 86.97     585.39      24.19
 87.07     544.62      23.34
 87.17     620.45      24.91
 87.27     636.62      25.23
 87.37     680.00      26.08
 87.47     631.00      25.12
 87.57     632.97      25.16
 87.67     607.16      24.64
 87.77     668.00      25.85
 87.87     621.00      24.92
 87.97     607.00      24.64
 88.07     563.00      23.73
 88.17     575.00      23.98
 88.27     591.00      24.31
 88.37     631.00      25.12
 88.47     605.14      24.60
 88.57     524.02      22.89
 88.67     521.00      22.83
 88.77     565.00      23.77
 88.87     610.00      24.70
 88.97     558.00      23.62
 89.07     590.85      24.31
 89.17     578.67      24.06
 89.27     590.00      24.29
 89.37     596.00      24.41
 89.47     617.49      24.85
 89.57     567.17      23.82
 89.67     615.58      24.81
 89.77     590.00      24.29
 89.87     609.96      24.70
 89.97     567.00      23.81
 90.07     575.58      23.99
 90.17     498.00      22.32
 90.27     499.00      22.34
 90.37     521.00      22.83
 90.47     484.00      22.00
 90.57     486.00      22.05
 90.67     491.65      22.17
 90.77     501.00      22.38
 90.87     532.00      23.07
 90.97     478.23      21.87
 91.07     509.00      22.56
 91.17     551.00      23.47
 91.27     546.50      23.38
 91.37     509.35      22.57
 91.47     527.00      22.96
 91.57     496.00      22.27
 91.67     554.29      23.54
 91.77     529.00      23.00
 91.87     529.00      23.00
 91.97     536.25      23.16
 92.07     473.00      21.75
 92.17     548.44      23.42
 92.27     557.00      23.60
 92.37     534.00      23.11
 92.47     628.00      25.06
 92.57     656.00      25.61
 92.67     609.00      24.68
 92.77     619.00      24.88
 92.87     620.12      24.90
 92.97     665.00      25.79
 93.07     674.09      25.96
 93.17     743.00      27.26
 93.27     749.00      27.37
 93.37     727.00      26.96
 93.47     732.57      27.07
 93.57     767.00      27.69
 93.67     803.00      28.34
 93.77     828.00      28.77
 93.87     848.00      29.12
 93.97     853.00      29.21
 94.07     870.00      29.50
 94.17     880.64      29.68
 94.27     813.00      28.51
 94.37     826.00      28.74
 94.47     879.36      29.65
 94.57     868.00      29.46
 94.67     849.00      29.14
 94.77     920.06      30.33
 94.87     940.00      30.66
 94.97     867.00      29.44
 95.07     890.00      29.83
 95.17     943.00      30.71
 95.27     830.00      28.81
 95.37     818.00      28.60
 95.47     796.00      28.21
 95.57     756.00      27.50
 95.67     731.38      27.04
 95.77     726.00      26.94
 95.87     658.07      25.65
 95.97     669.29      25.87
 96.07     663.00      25.75
 96.17     666.00      25.81
 96.27     757.35      27.52
 96.37     783.00      27.98
 96.47     760.00      27.57
 96.57     787.32      28.06
 96.67     833.95      28.88
 96.77     959.00      30.97
 96.87    1038.38      32.22
 96.97    1120.00      33.47
 97.07    1201.55      34.66
 97.17    1255.91      35.44
 97.27    1213.00      34.83
 97.37    1322.00      36.36
 97.47    1379.00      37.13
 97.57    1364.48      36.94
 97.67    1393.00      37.32
 97.77    1436.00      37.89
 97.87    1430.00      37.82
 97.97    1388.00      37.26
 98.07    1226.00      35.01
 98.17    1259.00      35.48
 98.27    1165.00      34.13
 98.37    1151.87      33.94
 98.47    1030.00      32.09
 98.57    1021.25      31.96
 98.67     895.00      29.92
 98.77     925.00      30.41
 98.87     832.00      28.84
 98.97     898.34      29.97
 99.07     831.00      28.83
 99.17     906.31      30.10
 99.27     860.00      29.33
 99.37     888.00      29.80
 99.47     999.83      31.62
 99.57    1021.00      31.95
 99.67    1168.42      34.18
 99.77    1166.18      34.15
 99.87    1279.00      35.76
 99.97    1459.00      38.20
100.07    1488.68      38.58
100.17    1592.00      39.90
100.27    1694.00      41.16
100.37    1877.99      43.34
100.47    1822.00      42.68
100.57    1908.00      43.68
100.67    2079.00      45.60
100.77    1909.00      43.69
100.87    2057.00      45.35
100.97    1959.49      44.27
101.07    2006.00      44.79
101.17    1948.00      44.14
101.27    1793.00      42.34
101.37    1767.00      42.04
101.47    1722.00      41.50
101.57    1672.71      40.90
101.67    1501.19      38.75
101.77    1486.57      38.56
101.87    1391.00      37.30
101.97    1330.00      36.47
102.07    1267.00      35.59
102.17    1213.84      34.84
102.27    1252.00      35.38
102.37    1169.00      34.19
102.47    1148.48      33.89
102.57    1085.00      32.94
102.67    1089.00      33.00
102.77    1144.00      33.82
102.87    1030.22      32.10
102.97    1014.00      31.84
103.07     935.32      30.58
103.17     998.44      31.60
103.27     850.59      29.16
103.37     872.00      29.53
103.47     848.00      29.12
103.57     832.00      28.84
103.67     786.00      28.04
103.77     735.00      27.11
103.87     723.00      26.89
103.97     671.00      25.90
104.07     611.00      24.72
104.17     618.00      24.86
104.27     574.64      23.97
104.37     570.00      23.87
104.47     597.66      24.45
104.57     585.77      24.20
104.67     570.00      23.87
104.77     532.00      23.07
104.87     564.91      23.77
104.97     511.81      22.62
105.07     474.81      21.79
105.17     499.11      22.34
105.27     512.00      22.63
105.37     485.12      22.03
105.47     572.00      23.92
105.57     540.59      23.25
105.67     551.27      23.48
105.77     545.00      23.35
105.87     530.00      23.02
105.97     574.45      23.97
106.07     557.70      23.62
106.17     558.00      23.62
106.27     546.00      23.37
106.37     590.81      24.31
106.47     564.00      23.75
106.57     604.00      24.58
106.67     618.00      24.86
106.77     668.38      25.85
106.87     619.00      24.88
106.97     631.00      25.12
107.07     645.71      25.41
107.17     683.00      26.13
107.27     651.00      25.51
107.37     651.00      25.51
107.47     658.02      25.65
107.57     702.00      26.50
107.67     659.00      25.67
107.77     651.97      25.53
107.87     702.00      26.50
107.97     688.26      26.23
108.07     689.00      26.25
108.17     729.96      27.02
108.27     672.00      25.92
108.37     705.00      26.55
108.47     671.77      25.92
108.57     668.28      25.85
108.67     657.00      25.63
108.77     693.00      26.32
108.87     652.00      25.53
108.97     653.14      25.56
109.07     727.00      26.96
109.17     664.85      25.78
109.27     660.00      25.69
109.37     654.00      25.57
109.47     694.00      26.34
109.57     693.69      26.34
109.67     643.00      25.36
109.77     649.00      25.48
109.87     604.00      24.58
109.97     619.00      24.88
110.07     586.00      24.21
110.17     612.30      24.74
110.27     576.00      24.00
110.37     578.22      24.05
110.47     578.00      24.04
110.57     550.00      23.45
110.67     522.32      22.85
110.77     552.39      23.50
110.87     564.39      23.76
110.97     563.00      23.73
111.07     524.00      22.89
111.17     539.34      23.22
111.27     487.41      22.08
111.37     558.00      23.62
111.47     524.73      22.91
111.57     506.87      22.51
111.67     530.00      23.02
111.77     573.00      23.94
111.87     557.00      23.60
111.97     580.46      24.09
112.07     571.76      23.91
112.17     600.18      24.50
112.27     524.70      22.91
112.37     570.80      23.89
112.47     570.00      23.87
112.57     600.58      24.51
112.67     565.00      23.77
112.77     565.00      23.77
112.87     563.00      23.73
112.97     592.00      24.33
113.07     625.00      25.00
113.17     585.56      24.20
113.27     634.00      25.18
113.37     678.00      26.04
113.47     627.23      25.04
113.57     718.39      26.80
113.67     707.54      26.60
113.77     689.94      26.27
113.87     715.00      26.74
113.97     739.43      27.19
114.07     855.16      29.24
114.17     832.00      28.84
114.27     979.59      31.30
114.37     986.00      31.40
114.47    1070.00      32.71
114.57    1207.00      34.74
114.67    1347.00      36.70
114.77    1443.00      37.99
114.87    1560.00      39.50
114.97    1842.00      42.92
115.07    1951.91      44.18
115.17    2260.00      47.54
115.27    2418.27      49.18
115.37    2754.00      52.48
115.47    2942.00      54.24
115.57    3375.00      58.09
115.67    3646.81      60.39
115.77    4238.00      65.10
115.87    4372.18      66.12
115.97    4779.00      69.13
116.07    5141.00      71.70
116.17    5452.92      73.84
116.27    5857.00      76.53
116.37    6260.00      79.12
116.47    6384.73      79.90
116.57    6502.33      80.64
116.67    6714.00      81.94
116.77    6761.32      82.23
116.87    6847.01      82.75
116.97    6813.00      82.54
117.07    6437.01      80.23
117.17    6282.54      79.26
117.27    6060.00      77.85
117.37    5793.22      76.11
117.47    5530.70      74.37
117.57    4841.00      69.58
117.67    4653.00      68.21
117.77    4284.00      65.45
117.87    4064.00      63.75
117.97    3768.00      61.38
118.07    3279.53      57.27
118.17    3035.00      55.09
118.27    2587.42      50.87
118.37    2391.00      48.90
118.47    2162.00      46.50
118.57    1861.00      43.14
118.67    1662.00      40.77
118.77    1575.03      39.69
118.87    1398.00      37.39
118.97    1308.13      36.17
119.07    1087.21      32.97
119.17    1009.63      31.77
119.27     968.04      31.11
119.37     940.00      30.66
119.47     860.38      29.33
119.57     793.00      28.16
119.67     739.00      27.18
119.77     755.11      27.48
119.87     648.00      25.46
119.97     710.36      26.65
120.07     628.00      25.06
120.17     640.00      25.30
120.27     596.00      24.41
120.37     607.00      24.64
120.47     605.00      24.60
120.57     628.19      25.06
120.67     601.70      24.53
120.77     537.00      23.17
120.87     624.25      24.98
120.97     586.40      24.22
121.07     585.00      24.19
121.17     589.00      24.27
121.27     580.00      24.08
121.37     578.00      24.04
121.47     532.00      23.07
121.57     541.56      23.27
121.67     605.00      24.60
121.77     593.93      24.37
121.87     617.37      24.85
121.97     629.00      25.08
122.07     610.72      24.71
122.17     640.34      25.30
122.27     636.00      25.22
122.37     618.29      24.87
122.47     578.30      24.05
122.57     672.00      25.92
122.67     634.00      25.18
122.77     621.00      24.92
122.87     683.00      26.13
122.97     573.00      23.94
123.07     682.09      26.12
123.17     628.00      25.06
123.27     587.83      24.25
123.37     680.62      26.09
123.47     609.00      24.68
123.57     594.62      24.38
123.67     614.00      24.78
123.77     614.70      24.79
123.87     619.00      24.88
123.97     630.00      25.10
124.07     652.00      25.53
124.17     632.00      25.14
124.27     606.00      24.62
124.37     644.00      25.38
124.47     653.00      25.55
124.57     610.00      24.70
124.67     613.00      24.76
124.77     620.00      24.90
124.87     597.38      24.44
124.97     553.00      23.52
