  9.97     600.00      24.49
 10.07     615.00      24.80
 10.17     616.00      24.82
 10.27     563.00      23.73
 10.37     569.00      23.85
 10.47     543.00      23.30
 10.57     583.00      24.15
 10.67     599.52      24.49
 10.77     605.00      24.60
 10.87     591.00      24.31
 10.97     579.00      24.06
 11.07     553.00      23.52
 11.17     623.00      24.96
 11.27     610.00      24.70
 11.37     549.74      23.45
 11.47     633.00      25.16
 11.57     601.00      24.52
 11.67     597.00      24.43
 11.77     624.05      24.98
 11.87     638.00      25.26
 11.97     653.00      25.55
 12.07     728.00      26.98
 12.17     703.20      26.52
 12.27     698.00      26.42
 12.37     651.00      25.51
 12.47     611.00      24.72
 12.57     599.00      24.47
 12.67     613.00      24.76
 12.77     544.58      23.34
 12.87     554.00      23.54
 12.97     579.00      24.06
 13.07     533.00      23.09
 13.17     589.89      24.29
 13.27     597.00      24.43
 13.37     570.00      23.87
 13.47     566.00      23.79
 13.57     542.00      23.28
 13.67     537.00      23.17
 13.77     529.96      23.02
 13.87     534.00      23.11
 13.97     608.99      24.68
 14.07     560.13      23.67
 14.17     575.31      23.99
 14.27     570.04      23.88
 14.37     537.00      23.17
 14.47     618.98      24.88
 14.57     536.95      23.17
 14.67     593.00      24.35
 14.77     569.00      23.85
 14.87     536.00      23.15
 14.97     505.00      22.47
 15.07     517.75      22.75
 15.17     514.00      22.67
 15.27     568.00      23.83
 15.37     565.32      23.78
 15.47     568.00      23.83
 15.57     519.57      22.79
 15.67     626.00      25.02
 15.77     574.00      23.96
 15.87     582.00      24.12
 15.97     579.00      24.06
 16.07     542.00      23.28
 16.17     555.00      23.56
 16.27     555.00      23.56
 16.37     558.00      23.62
 16.47     542.32      23.29
 16.57     560.00      23.66
 16.67     521.61      22.84
 16.77     583.00      24.15
 16.87     537.52      23.18
 16.97     541.00      23.26
 17.07     548.00      23.41
 17.17     545.00      23.35
 17.27     556.96      23.60
 17.37     595.19      24.40
 17.47     615.43      24.81
 17.57     542.00      23.28
 17.67     568.00      23.83
 17.77     571.95      23.92
 17.87     530.25      23.03
 17.97     599.00      24.47
 18.07     572.62      23.93
 18.17     543.00      23.30
 18.27     580.00      24.08
 18.37     558.00      23.62
 18.47     547.00      23.39
 18.57     585.00      24.19
 18.67     480.00      21.91
 18.77     558.00      23.62
 18.87     517.64      22.75
 18.97     598.79      24.47
 19.07     507.00      22.52
 19.17     597.00      24.43
 19.27     609.13      24.68
 19.37     608.59      24.67
 19.47     556.00      23.58
 19.57     585.10      24.19
 19.67     596.15      24.42
 19.77     535.00      23.13
 19.87     511.00      22.61
 19.97     565.65      23.78
 20.07     560.50      23.67
 20.17     587.00      24.23
 20.27     551.00      23.47
 20.37     558.00      23.62
 20.47     548.00      23.41
 20.57     607.34      24.64
 20.67     578.41      24.05
 20.77     586.00      24.21
 20.87     579.00      24.06
 20.97     526.00      22.93
 21.07     549.00      23.43
 21.17     564.00      23.75
 21.27     616.00      24.82
 21.37     577.96      24.04
 21.47     533.17      23.09
 21.57     569.00      23.85
 21.67     591.00      24.31
 21.77     570.28      23.88
 21.87     563.00      23.73
 21.97     560.00      23.66
 22.07     518.62      22.77
 22.17     582.31      24.13
 22.27     528.00      22.98
 22.37     602.83      24.55
 22.47     550.00      23.45
 22.57     512.27      22.63
 22.67     581.00      24.10
 22.77     538.00      23.19
 22.87     551.30      23.48
 22.97     542.68      23.30
 23.07     569.00      23.85
 23.17     554.00      23.54
 23.27     577.44      24.03
 23.37     550.00      23.45
 23.47     556.81      23.60
 23.57     553.00      23.52
 23.67     542.00      23.28
 23.77     513.00      22.65
 23.87     546.00      23.37
 23.97     587.66      24.24
 24.07     539.00      23.22
 24.17     566.00      23.79
 24.27     550.00      23.45
 24.37     557.00      23.60
 24.47     579.32      24.07
 24.57     590.00      24.29
 24.67     601.00      24.52
 24.77     605.68      24.61
 24.87     633.00      25.16
 24.97     557.00      23.60
 25.07     606.00      24.62
 25.17     590.00      24.29
 25.27     599.00      24.47
 25.37     562.00      23.71
 25.47     540.00      23.24
 25.57     554.61      23.55
 25.67     583.00      24.15
 25.77     539.00      23.22
 25.87     571.00      23.90
 25.97     538.00      23.19
 26.07     520.00      22.80
 26.17     509.31      22.57
 26.27     501.00      22.38
 26.37     574.00      23.96
 26.47     501.59      22.40
 26.57     596.00      24.41
 26.67     561.05      23.69
 26.77     572.48      23.93
 26.87     551.00      23.47
 26.97     497.91      22.31
 27.07     576.00      24.00
 27.17     542.07      23.28
 27.27     549.00      23.43
 27.37     582.00      24.12
 27.47     571.00      23.90
 27.57     510.91      22.60
 27.67     535.00      23.13
 27.77     573.00      23.94
 27.87     619.00      24.88
 27.97     662.00      25.73
 28.07     775.00      27.84
 28.17     930.00      30.50
 28.27     987.00      31.42
 28.37     968.00      31.11
 28.47     836.00      28.91
 28.57     669.00      25.87
 28.67     713.00      26.70
 28.77     715.00      26.74
 28.87     791.50      28.13
 28.97     871.73      29.53
 29.07     833.00      28.86
 29.17     709.00      26.63
 29.27     643.24      25.36
 29.37     601.00      24.52
 29.47     558.80      23.64
 29.57     623.00      24.96
 29.67     637.00      25.24
 29.77     530.69      23.04
 29.87     616.00      24.82
 29.97     571.32      23.90
 30.07     537.45      23.18
 30.17     598.59      24.47
 30.27     565.78      23.79
 30.37     553.00      23.52
 30.47     574.54      23.97
 30.57     555.42      23.57
 30.67     582.00      24.12
 30.77     619.00      24.88
 30.87     590.00      24.29
 30.97     620.71      24.91
 31.07     553.61      23.53
 31.17     627.00      25.04
 31.27     522.68      22.86
 31.37     527.00      22.96
 31.47     522.00      22.85
 31.57     586.00      24.21
 31.67     510.00      22.58
 31.77     529.00      23.00
 31.87     536.63      23.17
 31.97     571.67      23.91
 32.07     520.00      22.80
 32.17     553.00      23.52
 32.27     507.49      22.53
 32.37     587.00      24.23
 32.47     589.00      24.27
 32.57     505.60      22.49
 32.67     502.00      22.41
 32.77     549.00      23.43
 32.87     536.00      23.15
 32.97     592.00      24.33
 33.07     547.00      23.39
 33.17     526.00      22.93
 33.27     579.00      24.06
 33.37     557.32      23.61
 33.47     542.00      23.28
 33.57     526.23      22.94
 33.67     619.00      24.88
 33.77     737.47      27.16
 33.87     796.14      28.22
 33.97     983.86      31.37
 34.07    1019.67      31.93
 34.17    1072.08      32.74
 34.27     888.00      29.80
 34.37     791.00      28.12
 34.47     635.00      25.20
 34.57     533.00      23.09
 34.67     584.00      24.17
 34.77     537.00      23.17
 34.87     527.00      22.96
 34.97     548.00      23.41
 35.07     547.00      23.39
 35.17     483.00      21.98
 35.27     523.00      22.87
 35.37     526.30      22.94
 35.47     532.00      23.07
 35.57     545.54      23.36
 35.67     468.32      21.64
 35.77     517.09      22.74
 35.87     514.00      22.67
 35.97     479.55      21.90
 36.07     497.00      22.29
 36.17     529.00      23.00
 36.27     474.92      21.79
 36.37     521.76      22.84
 36.47     484.54      22.01
 36.57     483.00      21.98
 36.67     538.00      23.19
 36.77     527.00      22.96
 36.87     553.26      23.52
 36.97     506.00      22.49
 37.07     505.08      22.47
 37.17     540.60      23.25
 37.27     468.34      21.64
 37.37     509.00      22.56
 37.47     498.65      22.33
 37.57     533.00      23.09
 37.67     512.00      22.63
 37.77     516.00      22.72
 37.87     507.00      22.52
 37.97     499.00      22.34
 38.07     541.00      23.26
 38.17     534.00      23.11
 38.27     516.00      22.72
 38.37     526.00      22.93
 38.47     484.00      22.00
 38.57     477.00      21.84
 38.67     500.39      22.37
 38.77     511.00      22.61
 38.87     532.17      23.07
 38.97     511.03      22.61
 39.07     539.00      23.22
 39.17     506.00      22.49
 39.27     520.48      22.81
 39.37     506.19      22.50
 39.47     475.00      21.79
 39.57     519.15      22.78
 39.67     555.00      23.56
 39.77     553.15      23.52
 39.87     517.00      22.74
 39.97     569.00      23.85
 40.07     539.66      23.23
 40.17     479.72      21.90
 40.27     541.61      23.27
 40.37     518.99      22.78
 40.47     469.00      21.66
 40.57     494.00      22.23
 40.67     493.00      22.20
 40.77     518.00      22.76
 40.87     554.25      23.54
 40.97     460.00      21.45
 41.07     509.00      22.56
 41.17     479.00      21.89
 41.27     536.00      23.15
 41.37     480.00      21.91
 41.47     499.00      22.34
 41.57     479.38      21.89
 41.67     536.00      23.15
 41.77     511.00      22.61
 41.87     516.87      22.73
 41.97     474.00      21.77
 42.07     476.16      21.82
 42.17     477.22      21.85
 42.27     537.00      23.17
 42.37     578.00      24.04
 42.47     586.00      24.21
 42.57     578.00      24.04
 42.67     636.78      25.23
 42.77     587.00      24.23
 42.87     589.12      24.27
 42.97     589.92      24.29
 43.07     587.24      24.23
 43.17     571.48      23.91
 43.27     499.73      22.35
 43.37     497.00      22.29
 43.47     507.00      22.52
 43.57     468.00      21.63
 43.67     476.59      21.83
 43.77     494.00      22.23
 43.87     482.00      21.95
 43.97     539.00      23.22
 44.07     495.00      22.25
 44.17     495.00      22.25
 44.27     479.70      21.90
 44.37     537.31      23.18
 44.47     477.00      21.84
 44.57     482.75      21.97
 44.67     460.00      21.45
 44.77     518.00      22.76
 44.87     522.00      22.85
 44.97     520.00      22.80
 45.07     468.00      21.63
 45.17     497.00      22.29
 45.27     508.00      22.54
 45.37     515.00      22.69
 45.47     467.97      21.63
 45.57     526.64      22.95
 45.67     507.00      22.52
 45.77     494.29      22.23
 45.87     489.00      22.11
 45.97     464.34      21.55
 46.07     501.00      22.38
 46.17     495.00      22.25
 46.27     493.00      22.20
 46.37     459.40      21.43
 46.47     505.00      22.47
 46.57     490.00      22.14
 46.67     542.13      23.28
 46.77     491.85      22.18
 46.87     480.00      21.91
 46.97     522.35      22.86
 47.07     545.00      23.35
 47.17     529.44      23.01
 47.27     507.00      22.52
 47.37     509.00      22.56
 47.47     535.00      23.13
 47.57     541.19      23.26
 47.67     622.00      24.94
 47.77     576.00      24.00
 47.87     580.00      24.08
 47.97     591.00      24.31
 48.07     597.83      24.45
 48.17     562.00      23.71
 48.27     561.78      23.70
 48.37     529.61      23.01
 48.47     505.53      22.48
 48.57     543.00      23.30
 48.67     489.00      22.11
 48.77     583.80      24.16
 48.87     573.10      23.94
 48.97     534.00      23.11
 49.07     563.15      23.73
 49.17     544.00      23.32
 49.27     660.00      25.69
 49.37     674.00      25.96
 49.47     723.00      26.89
 49.57     823.00      28.69
 49.67     942.00      30.69
 49.77    1118.00      33.44
 49.87    1434.00      37.87
 49.97    1756.00      41.90
 50.07    2194.00      46.84
 50.17    2593.00      50.92
 50.27    2428.00      49.27
 50.37    2324.17      48.21
 50.47    1960.00      44.27
 50.57    1509.00      38.85
 50.67    1204.08      34.70
 50.77     965.02      31.06
 50.87     733.00      27.07
 50.97     650.00      25.50
 51.07     627.00      25.04
 51.17     650.00      25.50
 51.27     627.38      25.05
 51.37     603.00      24.56
 51.47     583.66      24.16
 51.57     531.00      23.04
 51.67     575.00      23.98
 51.77     488.20      22.10
 51.87     559.00      23.64
 51.97     560.52      23.68
 52.07     542.00      23.28
 52.17     480.49      21.92
 52.27     573.54      23.95
 52.37     547.00      23.39
 52.47     561.00      23.69
 52.57     547.78      23.40
 52.67     543.00      23.30
 52.77     543.00      23.30
 52.87     647.00      25.44
 52.97     710.00      26.65
 53.07     785.00      28.02
 53.17     871.00      29.51
 53.27     982.00      31.34
 53.37    1118.00      33.44
 53.47    1093.00      33.06
 53.57    1156.00      34.00
 53.67    1121.00      33.48
 53.77     995.59      31.55
 53.87     921.00      30.35
 53.97     725.00      26.93
 54.07     669.00      25.87
 54.17     581.00      24.10
 54.27     572.00      23.92
 54.37     571.37      23.90
 54.47     578.00      24.04
 54.57     557.00      23.60
 54.67     571.00      23.90
 54.77     552.00      23.49
 54.87     517.00      22.74
 54.97     567.00      23.81
 55.07     559.00      23.64
 55.17     548.32      23.42
 55.27     563.67      23.74
 55.37     563.48      23.74
 55.47     577.91      24.04
 55.57     552.00      23.49
 55.67     529.48      23.01
 55.77     546.00      23.37
 55.87     612.00      24.74
 55.97     655.88      25.61
 56.07     634.00      25.18
 56.17     741.00      27.22
 56.27     817.00      28.58
 56.37    1061.87      32.59
 56.47    1353.00      36.78
 56.57    1767.00      42.04
 56.67    2065.09      45.44
 56.77    2340.00      48.37
 56.87    2628.00      51.26
 56.97    2652.60      51.50
 57.07    2453.00      49.53
 57.17    2173.00      46.62
 57.27    1773.09      42.11
 57.37    1317.93      36.30
 57.47    1121.00      33.48
 57.57     888.00      29.80
 57.67     784.02      28.00
 57.77     713.00      26.70
 57.87     607.45      24.65
 57.97     699.41      26.45
 58.07     682.00      26.12
 58.17     733.00      27.07
 58.27     772.84      27.80
 58.37     908.40      30.14
 58.47    1019.29      31.93
 58.57    1069.00      32.70
 58.67    1234.00      35.13
 58.77    1367.60      36.98
 58.87    1490.00      38.60
 58.97    1627.47      40.34
 59.07    1629.00      40.36
 59.17    1532.00      39.14
 59.27    1530.00      39.12
 59.37    1384.95      37.21
 59.47    1233.00      35.11
 59.57    1247.00      35.31
 59.67    1211.75      34.81
 59.77    1073.00      32.76
 59.87    1188.00      34.47
 59.97    1314.00      36.25
 60.07    1429.00      37.80
 60.17    1582.00      39.77
 60.27    1570.62      39.63
 60.37    1564.00      39.55
 60.47    1574.00      39.67
 60.57    1314.00      36.25
 60.67    1104.39      33.23
 60.77     996.00      31.56
 60.87     826.34      28.75
 60.97     708.00      26.61
 61.07     659.00      25.67
 61.17     603.94      24.58
 61.27     642.00      25.34
 61.37     633.00      25.16
 61.47     641.00      25.32
 61.57     696.84      26.40
 61.67     783.00      27.98
 61.77     934.00      30.56
 61.87    1073.00      32.76
 61.97    1198.00      34.61
 62.07    1349.00      36.73
 62.17    1437.00      37.91
 62.27    1385.00      37.22
 62.37    1411.99      37.58
 62.47    1240.00      35.21
 62.57    1131.20      33.63
 62.67     913.13      30.22
 62.77     767.00      27.69
 62.87     696.00      26.38
 62.97     646.00      25.42
 63.07     617.00      24.84
 63.17     583.00      24.15
 63.27     542.51      23.29
 63.37     526.00      22.93
 63.47     552.00      23.49
 63.57     519.01      22.78
 63.67     547.07      23.39
 63.77     574.17      23.96
 63.87     630.00      25.10
 63.97     659.00      25.67
 64.07     629.25      25.08
 64.17     722.00      26.87
 64.27     806.08      28.39
 64.37     842.00      29.02
 64.47     947.00      30.77
 64.57    1045.94      32.34
 64.67     982.05      31.34
 64.77    1000.00      31.62
 64.87     980.00      31.30
 64.97     983.00      31.35
 65.07     868.00      29.46
 65.17     784.00      28.00
 65.27     682.65      26.13
 65.37     725.00      26.93
 65.47     615.34      24.81
 65.57     615.00      24.80
 65.67     593.00      24.35
 65.77     569.33      23.86
 65.87     568.00      23.83
 65.97     571.00      23.90
 66.07     583.00      24.15
 66.17     535.00      23.13
 66.27     569.00      23.85
 66.37     522.00      22.85
 66.47     563.36      23.74
 66.57     599.56      24.49
 66.67     563.00      23.73
 66.77     561.00      23.69
 66.87     529.39      23.01
 66.97     596.51      24.42
 67.07     558.00      23.62
 67.17     646.00      25.42
 67.27     755.00      27.48
 67.37     845.81      29.08
 67.47     923.79      30.39
 67.57    1169.00      34.19
 67.67    1460.61      38.22
 67.77    1778.89      42.18
 67.87    2013.00      44.87
 67.97    2273.00      47.68
 68.07    2395.00      48.94
 68.17    2415.77      49.15
 68.27    2310.00      48.06
 68.37    2094.00      45.76
 68.47    1836.44      42.85
 68.57    1571.00      39.64
 68.67    1267.94      35.61
 68.77     985.00      31.38
 68.87     909.00      30.15
 68.97     754.00      27.46
 69.07     657.74      25.65
 69.17     626.10      25.02
 69.27     633.27      25.16
 69.37     637.00      25.24
 69.47     548.08      23.41
 69.57     597.00      24.43
 69.67     610.00      24.70
 69.77     583.51      24.16
 69.87     540.00      23.24
 69.97     551.00      23.47
 70.07     587.06      24.23
 70.17     570.00      23.87
 70.27     521.19      22.83
 70.37     571.20      23.90
 70.47     536.00      23.15
 70.57     563.00      23.73
 70.67     540.99      23.26
 70.77     589.08      24.27
 70.87     597.00      24.43
 70.97     630.00      25.10
 71.07     638.92      25.28
 71.17     652.00      25.53
 71.27     789.79      28.10
 71.37     894.00      29.90
 71.47    1016.00      31.87
 71.57    1184.34      34.41
 71.67    1350.00      36.74
 71.77    1509.37      38.85
 71.87    1801.00      42.44
 71.97    1869.62      43.24
 72.07    1857.12      43.09
 72.17    1943.00      44.08
 72.27    1776.21      42.15
 72.37    1670.00      40.87
 72.47    1599.00      39.99
 72.57    1429.00      37.80
 72.67    1274.00      35.69
 72.77    1073.75      32.77
 72.87     999.84      31.62
 72.97     962.64      31.03
 73.07     903.33      30.06
 73.17     813.41      28.52
 73.27     775.00      27.84
 73.37     760.00      27.57
 73.47     597.00      24.43
 73.57     630.72      25.11
 73.67     629.00      25.08
 73.77     576.00      24.00
 73.87     584.93      24.19
 73.97     609.00      24.68
 74.07     585.00      24.19
 74.17     608.39      24.67
 74.27     609.19      24.68
 74.37     621.00      24.92
 74.47     637.00      25.24
 74.57     586.92      24.23
 74.67     536.57      23.16
 74.77     630.00      25.10
 74.87     596.00      24.41
 74.97     547.41      23.40
 75.07     557.75      23.62
 75.17     570.00      23.87
 75.27     558.00      23.62
 75.37     578.00      24.04
 75.47     538.00      23.19
 75.57     541.00      23.26
 75.67     563.00      23.73
 75.77     534.36      23.12
 75.87     560.38      23.67
 75.97     646.00      25.42
 76.07     613.00      24.76
 76.17     608.32      24.66
 76.27     690.00      26.27
 76.37     660.00      25.69
 76.47     697.00      26.40
 76.57     654.00      25.57
 76.67     721.00      26.85
 76.77     669.71      25.88
 76.87     703.00      26.51
 76.97     681.00      26.10
 77.07     627.82      25.06
 77.17     573.03      23.94
 77.27     559.00      23.64
 77.37     554.00      23.54
 77.47     549.00      23.43
 77.57     496.21      22.28
 77.67     557.93      23.62
 77.77     522.00      22.85
 77.87     517.00      22.74
 77.97     542.00      23.28
 78.07     481.76      21.95
 78.17     522.00      22.85
 78.27     537.91      23.19
 78.37     547.00      23.39
 78.47     539.00      23.22
 78.57     489.00      22.11
 78.67     479.00      21.89
 78.77     572.00      23.92
 78.87     569.00      23.85
 78.97     477.03      21.84
 79.07     561.33      23.69
 79.17     521.82      22.84
 79.27     574.14      23.96
 79.37     519.00      22.78
 79.47     576.42      24.01
 79.57     489.00      22.11
 79.67     544.49      23.33
 79.77     559.86      23.66
 79.87     562.00      23.71
 79.97     498.00      22.32
 80.07     548.53      23.42
 80.17     577.10      24.02
 80.27     526.00      22.93
 80.37     575.15      23.98
 80.47     581.00      24.10
 80.57     580.00      24.08
 80.67     602.00      24.54
 80.77     666.50      25.82
 80.87     627.00      25.04
 80.97     671.00      25.90
 81.07     715.24      26.74
 81.17     724.00      26.91
 81.27     793.38      28.17
 81.37     799.00      28.27
 81.47     783.00      27.98
 81.57     749.00      27.37
 81.67     806.00      28.39
 81.77     697.00      26.40
 81.87     661.80      25.73
 81.97     661.00      25.71
 82.07     672.00      25.92
 82.17     628.84      25.08
 82.27     607.69      24.65
 82.37     637.00      25.24
 82.47     582.00      24.12
 82.57     646.90      25.43
 82.67     601.00      24.52
 82.77     558.52      23.63
 82.87     597.60      24.45
 82.97     569.13      23.86
 83.07     553.59      23.53
 83.17     554.00      23.54
 83.27     608.00      24.66
 83.37     562.00      23.71
 83.47     546.00      23.37
 83.57     534.00      23.11
 83.67     601.00      24.52
 83.77     599.75      24.49
 83.87     528.00      22.98
 83.97     573.55      23.95
 84.07     554.00      23.54
 84.17     573.00      23.94
 84.27     568.25      23.84
 84.37     572.42      23.93
 84.47     562.00      23.71
 84.57     577.00      24.02
 84.67     554.00      23.54
 84.77     560.00      23.66
 84.87     520.00      22.80
 84.97     547.87      23.41
 85.07     536.00      23.15
 85.17     498.00      22.32
 85.27     522.00      22.85
 85.37     498.00      22.32
 85.47     547.00      23.39
 85.57     498.00      22.32
 85.67     506.40      22.50
 85.77     514.00      22.67
 85.87     512.00      22.63
 85.97     531.00      23.04
 86.07     545.00      23.35
 86.17     509.00      22.56
 86.27     538.00      23.19
 86.37     562.00      23.71
 86.47     557.00      23.60
 86.57     531.00      23.04
 86.67     511.19      22.61
 86.77     553.00      23.52
 86.87     624.27      24.99
 86.97     575.00      23.98
 87.07     621.00      24.92
 87.17     576.52      24.01
 87.27     617.81      24.86
 87.37     659.36      25.68
 87.47     603.99      24.58
 87.57     616.42      24.83
 87.67     674.15      25.96
 87.77     649.00      25.48
 87.87     636.00      25.22
 87.97     621.64      24.93
 88.07     557.46      23.61
 88.17     611.00      24.72
 88.27     597.00      24.43
 88.37     591.00      24.31
 88.47     556.00      23.58
 88.57     562.00      23.71
 88.67     598.15      24.46
 88.77     537.86      23.19
 88.87     643.00      25.36
 88.97     580.00      24.08
 89.07     592.00      24.33
 89.17     629.00      25.08
 89.27     631.72      25.13
 89.37     597.00      24.43
 89.47     603.00      24.56
 89.57     580.00      24.08
 89.67     623.23      24.96
 89.77     606.67      24.63
 89.87     615.00      24.80
 89.97     554.00      23.54
 90.07     578.51      24.05
 90.17     533.00      23.09
 90.27     575.70      23.99
 90.37     542.48      23.29
 90.47     487.00      22.07
 90.57     505.67      22.49
 90.67     545.95      23.37
 90.77     549.13      23.43
 90.87     480.13      21.91
 90.97     506.00      22.49
 91.07     548.62      23.42
 91.17     511.20      22.61
 91.27     525.00      22.91
 91.37     493.89      22.22
 91.47     512.39      22.64
 91.57     509.52      22.57
 91.67     520.00      22.80
 91.77     533.00      23.09
 91.87     561.29      23.69
 91.97     570.00      23.87
 92.07     547.00      23.39
 92.17     595.00      24.39
 92.27     588.00      24.25
 92.37     591.91      24.33
 92.47     561.60      23.70
 92.57     602.68      24.55
 92.67     658.00      25.65
 92.77     742.00      27.24
 92.87     728.00      26.98
 92.97     737.51      27.16
 93.07     761.00      27.59
 93.17     701.53      26.49
 93.27     737.00      27.15
 93.37     767.88      27.71
 93.47     862.48      29.37
 93.57     847.00      29.10
 93.67     858.17      29.29
 93.77     881.00      29.68
 93.87     903.00      30.05
 93.97     882.46      29.71
 94.07     874.00      29.56
 94.17     834.78      28.89
 94.27     871.92      29.53
 94.37     839.00      28.97
 94.47     889.00      29.82
 94.57     899.00      29.98
 94.67     946.00      30.76
 94.77     903.00      30.05
 94.87     956.00      30.92
 94.97     917.89      30.30
 95.07     888.23      29.80
 95.17     912.88      30.21
 95.27     782.84      27.98
 95.37     891.00      29.85
 95.47     720.00      26.83
 95.57     759.00      27.55
 95.67     704.23      26.54
 95.77     727.00      26.96
 95.87     691.00      26.29
 95.97     690.00      26.27
 96.07     715.65      26.75
 96.17     675.00      25.98
 96.27     648.75      25.47
 96.37     715.00      26.74
 96.47     719.61      26.83
 96.57     867.00      29.44
 96.67     878.00      29.63
 96.77     936.00      30.59
 96.87     986.06      31.40
 96.97    1044.00      32.31
 97.07    1141.00      33.78
 97.17    1217.00      34.89
 97.27    1350.00      36.74
 97.37    1346.00      36.69
 97.47    1453.31      38.12
 97.57    1366.00      36.96
 97.67    1458.00      38.18
 97.77    1390.00      37.28
 97.87    1371.00      37.03
 97.97    1345.00      36.67
 98.07    1288.39      35.89
 98.17    1161.00      34.07
 98.27    1153.00      33.96
 98.37    1036.35      32.19
 98.47     970.00      31.14
 98.57     888.80      29.81
 98.67     900.54      30.01
 98.77     858.00      29.29
 98.87     798.55      28.26
 98.97     791.47      28.13
 99.07     819.77      28.63
 99.17     784.00      28.00
 99.27     887.00      29.78
 99.37     873.00      29.55
 99.47     922.00      30.36
 99.57    1064.00      32.62
 99.67    1136.00      33.70
 99.77    1208.00      34.76
 99.87    1336.00      36.55
 99.97    1431.91      37.84
100.07    1592.38      39.90
100.17    1755.00      41.89
100.27    1881.08      43.37
100.37    1875.41      43.31
100.47    1998.47      44.70
100.57    2030.00      45.06
100.67    2093.00      45.75
100.77    2147.00      46.34
100.87    2102.00      45.85
100.97    2067.00      45.46
101.07    1907.78      43.68
101.17    2006.69      44.80
101.27    1914.00      43.75
101.37    1805.00      42.49
101.47    1673.00      40.90
101.57    1601.72      40.02
101.67    1509.95      38.86
101.77    1405.00      37.48
101.87    1375.93      37.09
101.97    1209.80      34.78
102.07    1244.00      35.27
102.17    1159.00      34.04
102.27    1106.00      33.26
102.37    1124.00      33.53
102.47    1116.36      33.41
102.57    1080.00      32.86
102.67    1098.00      33.14
102.77    1009.00      31.76
102.87    1030.00      32.09
102.97     966.00      31.08
103.07     937.00      30.61
103.17     891.00      29.85
103.27     863.00      29.38
103.37     826.00      28.74
103.47     783.65      27.99
103.57     716.56      26.77
103.67     729.00      27.00
103.77     660.00      25.69
103.87     607.00      24.64
103.97     623.28      24.97
104.07     615.00      24.80
104.17     576.00      24.00
104.27     598.00      24.45
104.37     525.42      22.92
104.47     567.00      23.81
104.57     527.00      22.96
104.67     564.00      23.75
104.77     499.00      22.34
104.87     532.00      23.07
104.97     531.00      23.04
105.07     539.00      23.22
105.17     560.55      23.68
105.27     558.29      23.63
105.37     517.00      22.74
105.47     554.00      23.54
105.57     549.00      23.43
105.67     584.00      24.17
105.77     583.15      24.15
105.87     515.19      22.70
105.97     548.00      23.41
106.07     548.00      23.41
106.17     553.00      23.52
106.27     557.00      23.60
106.37     616.00      24.82
106.47     575.00      23.98
106.57     630.00      25.10
106.67     655.00      25.59
106.77     605.72      24.61
106.87     618.00      24.86
106.97     641.00      25.32
107.07     719.83      26.83
107.17     675.00      25.98
107.27     714.00      26.72
107.37     753.45      27.45
107.47     712.46      26.69
107.57     695.00      26.36
107.67     710.00      26.65
107.77     653.00      25.55
107.87     694.00      26.34
107.97     719.60      26.83
108.07     675.54      25.99
108.17     630.00      25.10
108.27     693.07      26.33
108.37     699.63      26.45
108.47     670.00      25.88
108.57     685.00      26.17
108.67     727.86      26.98
108.77     688.16      26.23
108.87     727.79      26.98
108.97     651.87      25.53
109.07     662.00      25.73
109.17     676.00      26.00
109.27     662.00      25.73
109.37     677.00      26.02
109.47     653.41      25.56
109.57     627.00      25.04
109.67     603.00      24.56
109.77     606.85      24.63
109.87     630.00      25.10
109.97     611.00      24.72
110.07     580.00      24.08
110.17     604.00      24.58
110.27     523.99      22.89
110.37     564.00      23.75
110.47     565.00      23.77
110.57     540.33      23.24
110.67     538.01      23.19
110.77     498.46      22.33
110.87     542.00      23.28
110.97     555.00      23.56
111.07     583.90      24.16
111.17     519.00      22.78
111.27     536.00      23.15
111.37     568.07      23.83
111.47     511.03      22.61
111.57     560.00      23.66
111.67     561.00      23.69
111.77     514.00      22.67
111.87     545.00      23.35
111.97     539.00      23.22
112.07     589.88      24.29
112.17     544.00      23.32
112.27     536.79      23.17
112.37     535.79      23.15
112.47     544.03      23.32
112.57     597.24      24.44
112.67     568.95      23.85
112.77     606.97      24.64
112.87     631.00      25.12
112.97     674.00      25.96
113.07     698.00      26.42
113.17     713.00      26.70
113.27     723.45      26.90
113.37     801.00      28.30
113.47     821.71      28.67
113.57     846.18      29.09
113.67     835.61      28.91
113.77     845.62      29.08
113.87     946.00      30.76
113.97    1002.00      31.65
114.07    1135.00      33.69
114.17    1159.00      34.04
114.27    1165.00      34.13
114.37    1288.00      35.89
114.47    1351.00      36.76
114.57    1434.57      37.88
114.67    1511.00      38.87
114.77    1707.00      41.32
114.87    1829.79      42.78
114.97    2052.00      45.30
115.07    2325.00      48.22
115.17    2483.00      49.83
115.27    2740.00      52.35
115.37    3115.00      55.81
115.47    3303.93      57.48
115.57    3688.00      60.73
115.67    3880.00      62.29
115.77    4482.00      66.95
115.87    4694.00      68.51
115.97    4994.00      70.67
116.07    5477.00      74.01
116.17    5730.00      75.70
116.27    6246.00      79.03
116.37    6445.00      80.28
116.47    6706.00      81.89
116.57    7047.23      83.95
116.67    7254.00      85.17
116.77    7061.54      84.03
116.87    6975.55      83.52
116.97    6842.00      82.72
117.07    6638.00      81.47
117.17    6397.49      79.98
117.27    5896.46      76.79
117.37    5587.27      74.75
117.47    5088.00      71.33
117.57    4878.00      69.84
117.67    4702.00      68.57
117.77    4164.92      64.54
117.87    3823.00      61.83
117.97    3471.08      58.92
118.07    3037.73      55.12
118.17    2709.32      52.05
118.27    2294.42      47.90
118.37    2147.00      46.34
118.47    1857.98      43.10
118.57    1649.40      40.61
118.67    1487.11      38.56
118.77    1297.00      36.01
118.87    1225.12      35.00
118.97    1147.74      33.88
119.07     976.03      31.24
119.17     910.00      30.17
119.27     902.27      30.04
119.37     833.00      28.86
119.47     769.00      27.73
119.57     698.09      26.42
119.67     704.00      26.53
119.77     602.00      24.54
119.87     629.00      25.08
119.97     684.00      26.15
120.07     569.00      23.85
120.17     612.60      24.75
120.27     626.09      25.02
120.37     562.61      23.72
120.47     578.00      24.04
120.57     625.00      25.00
120.67     545.00      23.35
120.77     572.99      23.94
120.87     577.00      24.02
120.97     593.00      24.35
121.07     546.00      23.37
121.17     601.50      24.53
121.27     530.41      23.03
121.37     550.91      23.47
121.47     564.00      23.75
121.57     525.00      22.91
121.67     544.00      23.32
121.77     639.69      25.29
121.87     558.00      23.62
121.97     613.30      24.76
122.07     628.26      25.07
122.17     641.00      25.32
122.27     646.00      25.42
122.37     665.00      25.79
122.47     630.76      25.11
122.57     636.79      25.23
122.67     681.46      26.10
122.77     662.00      25.73
122.87     659.00      25.67
122.97     661.00      25.71
123.07     688.00      26.23
123.17     671.00      25.90
123.27     640.00      25.30
123.37     619.25      24.88
123.47     669.45      25.87
123.57     647.00      25.44
123.67     643.18      25.36
123.77     573.00      23.94
123.87     622.00      24.94
123.97     599.00      24.47
124.07     623.00      24.96
124.17     596.31      24.42
124.27     597.62      24.45
124.37     612.00      24.74
124.47     553.08      23.52
124.57     635.00      25.20
124.67     566.00      23.79
124.77     618.00      24.86
124.87     588.15      24.25
124.97     586.00      24.21
