  9.97     634.00      25.18
 10.07     584.41      24.17
 10.17     564.31      23.76
 10.27     606.35      24.62
 10.37     562.13      23.71
 10.47     581.00      24.10
 10.57     588.00      24.25
 10.67     522.95      22.87
 10.77     573.00      23.94
 10.87     557.23      23.61
 10.97     562.00      23.71
 11.07     588.71      24.26
 11.17     622.00      24.94
 11.27     544.00      23.32
 11.37     596.00      24.41
 11.47     576.61      24.01
 11.57     572.00      23.92
 11.67     539.88      23.24
 11.77     622.00      24.94
 11.87     618.00      24.86
 11.97     645.00      25.40
 12.07     664.00      25.77
 12.17     670.00      25.88
 12.27     643.06      25.36
 12.37     626.00      25.02
 12.47     633.00      25.16
 12.57     625.00      25.00
 12.67     568.66      23.85
 12.77     544.00      23.32
 12.87     536.00      23.15
 12.97     573.00      23.94
 13.07     589.37      24.28
 13.17     545.00      23.35
 13.27     533.00      23.09
 13.37     607.45      24.65
 13.47     587.73      24.24
 13.57     575.88      24.00
 13.67     557.64      23.61
 13.77     537.00      23.17
 13.87     555.63      23.57
 13.97     576.00      24.00
 14.07     535.02      23.13
 14.17     546.00      23.37
 14.27     570.00      23.87
 14.37     547.00      23.39
 14.47     587.93      24.25
 14.57     560.10      23.67
 14.67     539.00      23.22
 14.77     550.64      23.47
 14.87     553.00      23.52
 14.97     527.00      22.96
 15.07     536.00      23.15
 15.17     562.00      23.71
 15.27     535.00      23.13
 15.37     560.00      23.66
 15.47     566.00      23.79
 15.57     558.00      23.62
 15.67     597.24      24.44
 15.77     523.00      22.87
 15.87     584.13      24.17
 15.97     526.00      22.93
 16.07     609.00      24.68
 16.17     565.09      23.77
 16.27     529.00      23.00
 16.37     539.00      23.22
 16.47     526.00      22.93
 16.57     503.00      22.43
 16.67     590.55      24.30
 16.77     546.98      23.39
 16.87     558.00      23.62
 16.97     515.25      22.70
 17.07     547.00      23.39
 17.17     517.25      22.74
 17.27     588.07      24.25
 17.37     513.86      22.67
 17.47     560.00      23.66
 17.57     575.00      23.98
 17.67     545.00      23.35
 17.77     579.00      24.06
 17.87     568.00      23.83
 17.97     604.13      24.58
 18.07     532.23      23.07
 18.17     511.00      22.61
 18.27     562.00      23.71
 18.37     592.88      24.35
 18.47     566.00      23.79
 18.57     541.00      23.26
 18.67     528.92      23.00
 18.77     542.00      23.28
 18.87     553.33      23.52
 18.97     576.00      24.00
 19.07     511.75      22.62
 19.17     565.43      23.78
 19.27     567.00      23.81
 19.37     558.00      23.62
 19.47     552.97      23.52
 19.57     541.00      23.26
 19.67     549.00      23.43
 19.77     582.00      24.12
 19.87     551.00      23.47
 19.97     572.68      23.93
 20.07     551.00      23.47
 20.17     571.00      23.90
 20.27     571.00      23.90
 20.37     572.00      23.92
 20.47     561.00      23.69
 20.57     505.39      22.48
 20.67     558.00      23.62
 20.77     582.00      24.12
 20.87     571.00      23.90
 20.97     550.00      23.45
 21.07     562.00      23.71
 21.17     514.75      22.69
 21.27     552.00      23.49
 21.37     563.00      23.73
 21.47     505.00      22.47
 21.57     542.00      23.28
 21.67     589.80      24.29
 21.77     554.00      23.54
 21.87     531.00      23.04
 21.97     566.00      23.79
 22.07     557.00      23.60
 22.17     577.00      24.02
 22.27     552.00      23.49
 22.37     567.88      23.83
 22.47     552.33      23.50
 22.57     564.00      23.75
 22.67     517.00      22.74
 22.77     512.75      22.64
 22.87     551.77      23.49
 22.97     530.00      23.02
 23.07     530.00      23.02
 23.17     575.76      24.00
 23.27     557.00      23.60
 23.37     526.00      22.93
 23.47     498.71      22.33
 23.57     553.44      23.53
 23.67     567.00      23.81
 23.77     541.00      23.26
 23.87     536.00      23.15
 23.97     538.00      23.19
 24.07     541.98      23.28
 24.17     568.00      23.83
 24.27     534.95      23.13
 24.37     553.00      23.52
 24.47     563.00      23.73
 24.57     552.29      23.50
 24.67     595.00      24.39
 24.77     616.00      24.82
 24.87     619.00      24.88
 24.97     616.79      24.84
 25.07     642.71      25.35
 25.17     562.91      23.73
 25.27     535.86      23.15
 25.37     546.00      23.37
 25.47     553.88      23.53
 25.57     569.00      23.85
 25.67     570.00      23.87
 25.77     582.00      24.12
 25.87     583.00      24.15
 25.97     571.00      23.90
 26.07     527.47      22.97
 26.17     603.00      24.56
 26.27     532.85      23.08
 26.37     585.00      24.19
 26.47     499.05      22.34
 26.57     524.00      22.89
 26.67     536.50      23.16
 26.77     571.02      23.90
 26.87     548.25      23.41
 26.97     500.58      22.37
 27.07     523.69      22.88
 27.17     538.00      23.19
 27.27     494.60      22.24
 27.37     569.29      23.86
 27.47     598.00      24.45
 27.57     588.00      24.25
 27.67     591.00      24.31
 27.77     527.87      22.98
 27.87     615.00      24.80
 27.97     647.00      25.44
 28.07     780.00      27.93
 28.17     837.00      28.93
 28.27     873.14      29.55
 28.37     973.30      31.20
 28.47     834.00      28.88
 28.57     729.30      27.01
 28.67     708.00      26.61
 28.77     716.92      26.78
 28.87     781.00      27.95
 28.97     849.00      29.14
 29.07     790.00      28.11
 29.17     703.58      26.53
 29.27     639.88      25.30
 29.37     565.00      23.77
 29.47     577.00      24.02
 29.57     583.00      24.15
 29.67     568.00      23.83
 29.77     599.00      24.47
 29.87     497.48      22.30
 29.97     564.64      23.76
 30.07     541.00      23.26
 30.17     565.95      23.79
 30.27     491.09      22.16
 30.37     561.00      23.69
 30.47     645.00      25.40
 30.57     548.01      23.41
 30.67     570.00      23.87
 30.77     540.98      23.26
 30.87     591.00      24.31
 30.97     603.73      24.57
 31.07     619.85      24.90
 31.17     590.00      24.29
 31.27     543.27      23.31
 31.37     583.07      24.15
 31.47     488.78      22.11
 31.57     518.00      22.76
 31.67     552.00      23.49
 31.77     500.09      22.36
 31.87     545.00      23.35
 31.97     551.00      23.47
 32.07     496.97      22.29
 32.17     530.30      23.03
 32.27     553.52      23.53
 32.37     530.61      23.03
 32.47     529.00      23.00
 32.57     542.00      23.28
 32.67     534.76      23.12
 32.77     511.00      22.61
 32.87     508.00      22.54
 32.97     530.00      23.02
 33.07     539.00      23.22
 33.17     559.00      23.64
 33.27     522.67      22.86
 33.37     554.74      23.55
 33.47     541.00      23.26
 33.57     651.00      25.51
 33.67     581.00      24.10
 33.77     748.00      27.35
 33.87     837.24      28.94
 33.97     902.00      30.03
 34.07    1003.79      31.68
 34.17    1044.00      32.31
 34.27     887.00      29.78
 34.37     757.00      27.51
 34.47     674.50      25.97
 34.57     581.00      24.10
 34.67     592.78      24.35
 34.77     546.00      23.37
 34.87     518.00      22.76
 34.97     521.00      22.83
 35.07     510.24      22.59
 35.17     477.38      21.85
 35.27     527.47      22.97
 35.37     497.00      22.29
 35.47     493.00      22.20
 35.57     519.00      22.78
 35.67     495.00      22.25
 35.77     480.00      21.91
 35.87     506.00      22.49
 35.97     508.00      22.54
 36.07     503.00      22.43
 36.17     497.02      22.29
 36.27     512.00      22.63
 36.37     470.00      21.68
 36.47     508.21      22.54
 36.57     496.00      22.27
 36.67     476.48      21.83
 36.77     497.00      22.29
 36.87     516.00      22.72
 36.97     528.00      22.98
 37.07     491.00      22.16
 37.17     503.47      22.44
 37.27     507.23      22.52
 37.37     504.75      22.47
 37.47     524.60      22.90
 37.57     473.00      21.75
 37.67     500.00      22.36
 37.77     526.05      22.94
 37.87     529.00      23.00
 37.97     542.00      23.28
 38.07     496.86      22.29
 38.17     469.00      21.66
 38.27     485.00      22.02
 38.37     490.00      22.14
 38.47     473.00      21.75
 38.57     532.00      23.07
 38.67     514.00      22.67
 38.77     508.31      22.55
 38.87     497.00      22.29
 38.97     519.77      22.80
 39.07     461.57      21.48
 39.17     485.00      22.02
 39.27     489.00      22.11
 39.37     477.00      21.84
 39.47     493.00      22.20
 39.57     536.30      23.16
 39.67     487.00      22.07
 39.77     515.82      22.71
 39.87     492.44      22.19
 39.97     476.00      21.82
 40.07     486.03      22.05
 40.17     504.00      22.45
 40.27     480.42      21.92
 40.37     472.06      21.73
 40.47     456.00      21.35
 40.57     473.00      21.75
 40.67     466.00      21.59
 40.77     483.00      21.98
 40.87     511.00      22.61
 40.97     501.00      22.38
 41.07     462.00      21.49
 41.17     489.34      22.12
 41.27     530.00      23.02
 41.37     498.00      22.32
 41.47     535.56      23.14
 41.57     524.00      22.89
 41.67     531.15      23.05
 41.77     482.00      21.95
 41.87     492.00      22.18
 41.97     495.00      22.25
 42.07     466.00      21.59
 42.17     508.00      22.54
 42.27     541.00      23.26
 42.37     544.00      23.32
 42.47     575.00      23.98
 42.57     603.12      24.56
 42.67     561.00      23.69
 42.77     590.13      24.29
 42.87     567.00      23.81
 42.97     580.00      24.08
 43.07     564.16      23.75
 43.17     573.11      23.94
 43.27     489.00      22.11
 43.37     497.53      22.31
 43.47     456.00      21.35
 43.57     471.02      21.70
 43.67     494.73      22.24
 43.77     482.00      21.95
 43.87     454.39      21.32
 43.97     479.00      21.89
 44.07     540.00      23.24
 44.17     488.00      22.09
 44.27     503.00      22.43
 44.37     456.00      21.35
 44.47     520.00      22.80
 44.57     496.00      22.27
 44.67     520.00      22.80
 44.77     537.22      23.18
 44.87     505.06      22.47
 44.97     515.00      22.69
 45.07     455.70      21.35
 45.17     487.00      22.07
 45.27     537.50      23.18
 45.37     506.00      22.49
 45.47     510.60      22.60
 45.57     452.00      21.26
 45.67     471.00      21.70
 45.77     506.07      22.50
 45.87     480.68      21.92
 45.97     467.00      21.61
 46.07     478.00      21.86
 46.17     505.00      22.47
 46.27     485.00      22.02
 46.37     536.00      23.15
 46.47     530.00      23.02
 46.57     519.00      22.78
 46.67     510.00      22.58
 46.77     518.40      22.77
 46.87     507.00      22.52
 46.97     458.66      21.42
 47.07     524.00      22.89
 47.17     526.54      22.95
 47.27     517.00      22.74
 47.37     551.00      23.47
 47.47     493.00      22.20
 47.57     537.00      23.17
 47.67     562.00      23.71
 47.77     559.38      23.65
 47.87     553.00      23.52
 47.97     592.75      24.35
 48.07     597.75      24.45
 48.17     565.58      23.78
 48.27     564.00      23.75
 48.37     529.00      23.00
 48.47     558.00      23.62
 48.57     561.23      23.69
 48.67     514.38      22.68
 48.77     574.50      23.97
 48.87     504.39      22.46
 48.97     496.00      22.27
 49.07     518.00      22.76
 49.17     517.35      22.75
 49.27     556.34      23.59
 49.37     622.97      24.96
 49.47     611.00      24.72
 49.57     713.82      26.72
 49.67     790.00      28.11
 49.77     938.00      30.63
 49.87    1257.00      35.45
 49.97    1639.12      40.49
 50.07    1920.71      43.83
 50.17    2281.00      47.76
 50.27    2389.00      48.88
 50.37    2272.00      47.67
 50.47    2066.72      45.46
 50.57    1673.00      40.90
 50.67    1294.00      35.97
 50.77     997.55      31.58
 50.87     882.11      29.70
 50.97     713.00      26.70
 51.07     673.01      25.94
 51.17     581.98      24.12
 51.27     602.28      24.54
 51.37     593.94      24.37
 51.47     588.00      24.25
 51.57     597.56      24.44
 51.67     544.25      23.33
 51.77     568.50      23.84
 51.87     554.83      23.55
 51.97     571.43      23.90
 52.07     513.00      22.65
 52.17     564.00      23.75
 52.27     577.09      24.02
 52.37     547.46      23.40
 52.47     545.00      23.35
 52.57     592.00      24.33
 52.67     603.00      24.56
 52.77     546.25      23.37
 52.87     630.60      25.11
 52.97     717.00      26.78
 53.07     768.00      27.71
 53.17     827.70      28.77
 53.27     926.36      30.44
 53.37    1014.70      31.85
 53.47    1186.65      34.45
 53.57    1118.68      33.45
 53.67    1128.00      33.59
 53.77    1056.00      32.50
 53.87    1013.00      31.83
 53.97     856.00      29.26
 54.07     784.00      28.00
 54.17     661.00      25.71
 54.27     667.23      25.83
 54.37     610.08      24.70
 54.47     611.00      24.72
 54.57     579.00      24.06
 54.67     596.00      24.41
 54.77     572.00      23.92
 54.87     586.00      24.21
 54.97     543.00      23.30
 55.07     529.65      23.01
 55.17     546.39      23.38
 55.27     589.00      24.27
 55.37     589.00      24.27
 55.47     561.00      23.69
 55.57     571.00      23.90
 55.67     605.00      24.60
 55.77     631.93      25.14
 55.87     588.00      24.25
 55.97     620.00      24.90
 56.07     691.38      26.29
 56.17     737.11      27.15
 56.27     831.04      28.83
 56.37    1022.00      31.97
 56.47    1225.21      35.00
 56.57    1521.00      39.00
 56.67    1883.20      43.40
 56.77    2239.00      47.32
 56.87    2574.69      50.74
 56.97    2587.00      50.86
 57.07    2560.60      50.60
 57.17    2261.00      47.55
 57.27    1967.00      44.35
 57.37    1553.00      39.41
 57.47    1268.00      35.61
 57.57    1083.58      32.92
 57.67     852.00      29.19
 57.77     805.31      28.38
 57.87     696.37      26.39
 57.97     653.00      25.55
 58.07     697.00      26.40
 58.17     685.44      26.18
 58.27     796.00      28.21
 58.37     761.00      27.59
 58.47     818.00      28.60
 58.57     895.00      29.92
 58.67     968.00      31.11
 58.77    1123.00      33.51
 58.87    1169.00      34.19
 58.97    1207.88      34.75
 59.07    1341.01      36.62
 59.17    1339.25      36.60
 59.27    1328.00      36.44
 59.37    1161.60      34.08
 59.47    1259.00      35.48
 59.57    1219.98      34.93
 59.67    1168.00      34.18
 59.77    1137.00      33.72
 59.87    1243.00      35.26
 59.97    1283.00      35.82
 60.07    1367.61      36.98
 60.17    1568.00      39.60
 60.27    1559.00      39.48
 60.37    1513.00      38.90
 60.47    1478.00      38.44
 60.57    1378.00      37.12
 60.67    1269.00      35.62
 60.77    1077.00      32.82
 60.87     907.30      30.12
 60.97     761.09      27.59
 61.07     758.00      27.53
 61.17     681.00      26.10
 61.27     676.44      26.01
 61.37     649.00      25.48
 61.47     712.07      26.68
 61.57     713.00      26.70
 61.67     829.00      28.79
 61.77     884.00      29.73
 61.87     955.00      30.90
 61.97    1122.00      33.50
 62.07    1335.20      36.54
 62.17    1301.00      36.07
 62.27    1390.15      37.28
 62.37    1323.00      36.37
 62.47    1281.00      35.79
 62.57    1166.00      34.15
 62.67    1004.00      31.69
 62.77     875.00      29.58
 62.87     765.74      27.67
 62.97     718.00      26.80
 63.07     651.00      25.51
 63.17     615.79      24.82
 63.27     604.75      24.59
 63.37     561.58      23.70
 63.47     603.92      24.57
 63.57     583.29      24.15
 63.67     547.00      23.39
 63.77     617.00      24.84
 63.87     622.00      24.94
 63.97     615.17      24.80
 64.07     624.00      24.98
 64.17     767.00      27.69
 64.27     725.62      26.94
 64.37     811.36      28.48
 64.47     852.12      29.19
 64.57     972.90      31.19
 64.67    1011.00      31.80
 64.77    1035.00      32.17
 64.87    1045.00      32.33
 64.97     941.00      30.68
 65.07     906.87      30.11
 65.17     874.00      29.56
 65.27     795.64      28.21
 65.37     727.08      26.96
 65.47     659.00      25.67
 65.57     639.94      25.30
 65.67     625.62      25.01
 65.77     585.00      24.19
 65.87     626.80      25.04
 65.97     628.12      25.06
 66.07     550.67      23.47
 66.17     580.00      24.08
 66.27     520.00      22.80
 66.37     562.46      23.72
 66.47     510.00      22.58
 66.57     535.00      23.13
 66.67     567.00      23.81
 66.77     554.40      23.55
 66.87     578.00      24.04
 66.97     643.63      25.37
 67.07     592.85      24.35
 67.17     689.00      26.25
 67.27     698.00      26.42
 67.37     837.00      28.93
 67.47    1011.00      31.80
 67.57    1093.00      33.06
 67.67    1378.00      37.12
 67.77    1608.79      40.11
 67.87    1866.00      43.20
 67.97    2107.40      45.91
 68.07    2159.51      46.47
 68.17    2341.00      48.38
 68.27    2340.00      48.37
 68.37    2239.00      47.32
 68.47    1959.29      44.26
 68.57    1802.00      42.45
 68.67    1536.00      39.19
 68.77    1266.00      35.58
 68.87    1127.00      33.57
 68.97     934.00      30.56
 69.07     836.00      28.91
 69.17     731.00      27.04
 69.27     685.00      26.17
 69.37     581.35      24.11
 69.47     603.00      24.56
 69.57     591.00      24.31
 69.67     614.00      24.78
 69.77     604.00      24.58
 69.87     581.00      24.10
 69.97     550.00      23.45
 70.07     575.00      23.98
 70.17     567.00      23.81
 70.27     518.79      22.78
 70.37     572.00      23.92
 70.47     561.55      23.70
 70.57     579.00      24.06
 70.67     536.12      23.15
 70.77     568.00      23.83
 70.87     564.00      23.75
 70.97     598.00      24.45
 71.07     613.00      24.76
 71.17     678.00      26.04
 71.27     769.66      27.74
 71.37     846.00      29.09
 71.47    1011.59      31.81
 71.57    1071.00      32.73
 71.67    1282.00      35.81
 71.77    1386.00      37.23
 71.87    1512.00      38.88
 71.97    1746.00      41.79
 72.07    1836.59      42.86
 72.17    1924.00      43.86
 72.27    1852.00      43.03
 72.37    1786.00      42.26
 72.47    1641.00      40.51
 72.57    1429.14      37.80
 72.67    1230.00      35.07
 72.77    1045.00      32.33
 72.87    1005.00      31.70
 72.97     842.67      29.03
 73.07     801.00      28.30
 73.17     754.12      27.46
 73.27     712.00      26.68
 73.37     716.12      26.76
 73.47     622.00      24.94
 73.57     603.00      24.56
 73.67     623.27      24.97
 73.77     599.00      24.47
 73.87     583.00      24.15
 73.97     518.00      22.76
 74.07     601.00      24.52
 74.17     533.00      23.09
 74.27     601.54      24.53
 74.37     594.00      24.37
 74.47     563.00      23.73
 74.57     570.48      23.88
 74.67     688.00      26.23
 74.77     638.00      25.26
 74.87     653.00      25.55
 74.97     602.00      24.54
 75.07     641.00      25.32
 75.17     585.00      24.19
 75.27     507.58      22.53
 75.37     593.87      24.37
 75.47     578.00      24.04
 75.57     568.79      23.85
 75.67     539.00      23.22
 75.77     513.13      22.65
 75.87     596.00      24.41
 75.97     591.00      24.31
 76.07     611.00      24.72
 76.17     643.00      25.36
 76.27     630.00      25.10
 76.37     636.00      25.22
 76.47     727.00      26.96
 76.57     626.00      25.02
 76.67     691.00      26.29
 76.77     638.00      25.26
 76.87     664.98      25.79
 76.97     698.70      26.43
 77.07     632.00      25.14
 77.17     589.00      24.27
 77.27     568.83      23.85
 77.37     593.00      24.35
 77.47     596.23      24.42
 77.57     579.98      24.08
 77.67     526.43      22.94
 77.77     551.00      23.47
 77.87     550.41      23.46
 77.97     514.00      22.67
 78.07     522.00      22.85
 78.17     507.00      22.52
 78.27     495.67      22.26
 78.37     520.00      22.80
 78.47     550.66      23.47
 78.57     476.00      21.82
 78.67     525.43      22.92
 78.77     542.00      23.28
 78.87     483.66      21.99
 78.97     574.00      23.96
 79.07     570.00      23.87
 79.17     503.62      22.44
 79.27     512.00      22.63
 79.37     474.00      21.77
 79.47     519.00      22.78
 79.57     527.00      22.96
 79.67     529.00      23.00
 79.77     554.00      23.54
 79.87     486.37      22.05
 79.97     580.00      24.08
 80.07     554.37      23.55
 80.17     542.00      23.28
 80.27     502.43      22.41
 80.37     583.86      24.16
 80.47     540.00      23.24
 80.57     574.00      23.96
 80.67     587.37      24.24
 80.77     594.00      24.37
 80.87     614.00      24.78
 80.97     673.00      25.94
 81.07     679.00      26.06
 81.17     699.00      26.44
 81.27     699.47      26.45
 81.37     756.19      27.50
 81.47     740.00      27.20
 81.57     792.00      28.14
 81.67     717.00      26.78
 81.77     778.24      27.90
 81.87     751.83      27.42
 81.97     713.00      26.70
 82.07     702.00      26.50
 82.17     712.00      26.68
 82.27     630.23      25.10
 82.37     569.00      23.85
 82.47     598.00      24.45
 82.57     534.00      23.11
 82.67     565.00      23.77
 82.77     572.22      23.92
 82.87     566.00      23.79
 82.97     513.00      22.65
 83.07     513.38      22.66
 83.17     506.00      22.49
 83.27     573.56      23.95
 83.37     574.58      23.97
 83.47     522.00      22.85
 83.57     509.00      22.56
 83.67     478.00      21.86
 83.77     582.08      24.13
 83.87     524.00      22.89
 83.97     534.45      23.12
 84.07     599.27      24.48
 84.17     554.65      23.55
 84.27     516.87      22.73
 84.37     569.00      23.85
 84.47     597.57      24.45
 84.57     471.00      21.70
 84.67     568.68      23.85
 84.77     585.00      24.19
 84.87     536.00      23.15
 84.97     544.00      23.32
 85.07     525.00      22.91
 85.17     485.94      22.04
 85.27     471.58      21.72
 85.37     496.00      22.27
 85.47     508.00      22.54
 85.57     516.00      22.72
 85.67     552.23      23.50
 85.77     546.15      23.37
 85.87     521.16      22.83
 85.97     529.23      23.00
 86.07     545.00      23.35
 86.17     545.95      23.37
 86.27     472.99      21.75
 86.37     545.59      23.36
 86.47     539.00      23.22
 86.57     525.25      22.92
 86.67     506.00      22.49
 86.77     568.00      23.83
 86.87     535.00      23.13
 86.97     600.35      24.50
 87.07     581.00      24.10
 87.17     611.58      24.73
 87.27     673.00      25.94
 87.37     598.00      24.45
 87.47     620.44      24.91
 87.57     628.00      25.06
 87.67     573.81      23.95
 87.77     596.35      24.42
 87.87     595.99      24.41
 87.97     648.00      25.46
 88.07     577.01      24.02
 88.17     597.00      24.43
 88.27     574.00      23.96
 88.37     588.00      24.25
 88.47     557.38      23.61
 88.57     617.00      24.84
 88.67     540.00      23.24
 88.77     567.00      23.81
 88.87     577.95      24.04
 88.97     560.00      23.66
 89.07     600.00      24.49
 89.17     529.84      23.02
 89.27     624.00      24.98
 89.37     532.15      23.07
 89.47     587.00      24.23
 89.57     597.00      24.43
 89.67     597.00      24.43
 89.77     593.93      24.37
 89.87     606.30      24.62
 89.97     564.00      23.75
 90.07     574.00      23.96
 90.17     534.00      23.11
 90.27     555.00      23.56
 90.37     537.00      23.17
 90.47     527.00      22.96
 90.57     489.00      22.11
 90.67     542.00      23.28
 90.77     482.00      21.95
 90.87     537.00      23.17
 90.97     475.00      21.79
 91.07     544.04      23.32
 91.17     506.00      22.49
 91.27     502.00      22.41
 91.37     476.00      21.82
 91.47     502.00      22.41
 91.57     509.68      22.58
 91.67     515.00      22.69
 91.77     538.00      23.19
 91.87     572.48      23.93
 91.97     545.71      23.36
 92.07     495.00      22.25
 92.17     524.00      22.89
 92.27     605.80      24.61
 92.37     562.45      23.72
 92.47     584.00      24.17
 92.57     644.57      25.39
 92.67     610.00      24.70
 92.77     614.00      24.78
 92.87     694.00      26.34
 92.97     658.00      25.65
 93.07     685.00      26.17
 93.17     712.85      26.70
 93.27     735.00      27.11
 93.37     784.13      28.00
 93.47     719.00      26.81
 93.57     747.00      27.33
 93.67     803.13      28.34
 93.77     772.00      27.78
 93.87     763.00      27.62
 93.97     817.00      28.58
 94.07     816.40      28.57
 94.17     838.00      28.95
 94.27     859.00      29.31
 94.37     844.00      29.05
 94.47     801.48      28.31
 94.57     899.00      29.98
 94.67     916.00      30.27
 94.77     939.00      30.64
 94.87     920.00      30.33
 94.97     857.92      29.29
 95.07     904.00      30.07
 95.17     873.00      29.55
 95.27     818.00      28.60
 95.37     823.71      28.70
 95.47     774.00      27.82
 95.57     794.22      28.18
 95.67     756.73      27.51
 95.77     746.00      27.31
 95.87     720.00      26.83
 95.97     692.00      26.31
 96.07     651.23      25.52
 96.17     726.00      26.94
 96.27     717.86      26.79
 96.37     753.80      27.46
 96.47     774.00      27.82
 96.57     790.00      28.11
 96.67     793.00      28.16
 96.77     913.05      30.22
 96.87     943.00      30.71
 96.97    1096.67      33.12
 97.07    1145.73      33.85
 97.17    1151.06      33.93
 97.27    1241.00      35.23
 97.37    1300.00      36.06
 97.47    1430.00      37.82
 97.57    1374.00      37.07
 97.67    1428.00      37.79
 97.77    1421.00      37.70
 97.87    1392.00      37.31
 97.97    1308.61      36.17
 98.07    1331.16      36.49
 98.17    1248.00      35.33
 98.27    1155.00      33.99
 98.37    1126.00      33.56
 98.47    1098.00      33.14
 98.57    1059.88      32.56
 98.67     952.00      30.85
 98.77     916.05      30.27
 98.87     847.48      29.11
 98.97     898.00      29.97
 99.07     820.00      28.64
 99.17     822.27      28.68
 99.27     882.00      29.70
 99.37     884.00      29.73
 99.47     946.00      30.76
 99.57    1007.00      31.73
 99.67    1098.95      33.15
 99.77    1125.95      33.56
 99.87    1244.00      35.27
 99.97    1339.00      36.59
100.07    1370.89      37.03
100.17    1554.00      39.42
100.27    1715.56      41.42
100.37    1693.00      41.15
100.47    1863.96      43.17
100.57    1894.00      43.52
100.67    2023.00      44.98
100.77    2089.00      45.71
100.87    2025.96      45.01
100.97    1921.26      43.83
101.07    2035.00      45.11
101.17    1885.00      43.42
101.27    1823.00      42.70
101.37    1726.54      41.55
101.47    1835.00      42.84
101.57    1699.58      41.23
101.67    1533.00      39.15
101.77    1449.56      38.07
101.87    1472.00      38.37
101.97    1352.00      36.77
102.07    1322.00      36.36
102.17    1325.65      36.41
102.27    1281.40      35.80
102.37    1284.00      35.83
102.47    1154.00      33.97
102.57    1160.26      34.06
102.67    1146.00      33.85
102.77    1055.00      32.48
102.87    1058.00      32.53
102.97    1056.00      32.50
103.07     966.95      31.10
103.17     966.64      31.09
103.27     962.00      31.02
103.37     904.00      30.07
103.47     797.00      28.23
103.57     812.52      28.50
103.67     809.00      28.44
103.77     774.00      27.82
103.87     729.00      27.00
103.97     706.00      26.57
104.07     642.00      25.34
104.17     653.00      25.55
104.27     573.00      23.94
104.37     606.00      24.62
104.47     586.00      24.21
104.57     623.00      24.96
104.67     570.15      23.88
104.77     546.00      23.37
104.87     553.00      23.52
104.97     583.00      24.15
105.07     505.39      22.48
105.17     573.00      23.94
105.27     522.00      22.85
105.37     556.80      23.60
105.47     547.85      23.41
105.57     541.00      23.26
105.67     566.84      23.81
105.77     539.53      23.23
105.87     575.00      23.98
105.97     573.07      23.94
106.07     602.00      24.54
106.17     583.00      24.15
106.27     593.00      24.35
106.37     560.00      23.66
106.47     620.92      24.92
106.57     646.00      25.42
106.67     605.00      24.60
106.77     636.55      25.23
106.87     605.00      24.60
106.97     668.63      25.86
107.07     640.00      25.30
107.17     640.87      25.32
107.27     644.42      25.39
107.37     682.00      26.12
107.47     728.30      26.99
107.57     651.00      25.51
107.67     671.00      25.90
107.77     645.00      25.40
107.87     650.29      25.50
107.97     648.00      25.46
108.07     640.00      25.30
108.17     690.35      26.27
108.27     666.00      25.81
108.37     673.00      25.94
108.47     682.34      26.12
108.57     701.44      26.48
108.67     663.00      25.75
108.77     665.00      25.79
108.87     658.94      25.67
108.97     719.22      26.82
109.07     649.79      25.49
109.17     698.00      26.42
109.27     692.00      26.31
109.37     696.00      26.38
109.47     617.00      24.84
109.57     622.00      24.94
109.67     660.00      25.69
109.77     620.65      24.91
109.87     640.22      25.30
109.97     634.00      25.18
110.07     618.00      24.86
110.17     670.00      25.88
110.27     605.00      24.60
110.37     602.00      24.54
110.47     585.00      24.19
110.57     517.46      22.75
110.67     582.21      24.13
110.77     545.00      23.35
110.87     536.00      23.15
110.97     539.00      23.22
111.07     535.00      23.13
111.17     521.00      22.83
111.27     551.00      23.47
111.37     562.27      23.71
111.47     522.93      22.87
111.57     563.00      23.73
111.67     573.00      23.94
111.77     527.46      22.97
111.87     531.00      23.04
111.97     524.00      22.89
112.07     600.26      24.50
112.17     576.00      24.00
112.27     566.00      23.79
112.37     522.00      22.85
112.47     523.00      22.87
112.57     574.75      23.97
112.67     598.00      24.45
112.77     545.00      23.35
112.87     593.65      24.36
112.97     627.00      25.04
113.07     588.00      24.25
113.17     572.00      23.92
113.27     653.52      25.56
113.37     609.00      24.68
113.47     668.00      25.85
113.57     654.00      25.57
113.67     683.43      26.14
113.77     686.00      26.19
113.87     732.78      27.07
113.97     744.68      27.29
114.07     785.00      28.02
114.17     809.22      28.45
114.27     907.00      30.12
114.37     982.19      31.34
114.47    1010.00      31.78
114.57    1048.00      32.37
114.67    1193.00      34.54
114.77    1330.00      36.47
114.87    1460.32      38.21
114.97    1726.00      41.55
115.07    1894.00      43.52
115.17    2031.71      45.07
115.27    2281.08      47.76
115.37    2465.57      49.65
115.47    2842.00      53.31
115.57    3068.11      55.39
115.67    3551.00      59.59
115.77    3686.00      60.71
115.87    4027.00      63.46
115.97    4447.00      66.69
116.07    4914.00      70.10
116.17    5197.00      72.09
116.27    5691.62      75.44
116.37    5931.00      77.01
116.47    6312.16      79.45
116.57    6533.00      80.83
116.67    6642.00      81.50
116.77    6660.00      81.61
116.87    6785.00      82.37
116.97    6799.00      82.46
117.07    6717.00      81.96
117.17    6562.00      81.01
117.27    6337.00      79.61
117.37    6044.23      77.74
117.47    5837.16      76.40
117.57    5356.00      73.18
117.67    4963.00      70.45
117.77    4844.00      69.60
117.87    4449.01      66.70
117.97    4113.00      64.13
118.07    3673.00      60.61
118.17    3425.00      58.52
118.27    3102.00      55.70
118.37    2649.32      51.47
118.47    2482.00      49.82
118.57    2170.00      46.58
118.67    1999.21      44.71
118.77    1750.36      41.84
118.87    1542.00      39.27
118.97    1342.00      36.63
119.07    1213.00      34.83
119.17    1224.00      34.99
119.27    1062.00      32.59
119.37    1023.00      31.98
119.47     889.00      29.82
119.57     819.00      28.62
119.67     794.00      28.18
119.77     768.01      27.71
119.87     750.00      27.39
119.97     657.46      25.64
120.07     647.00      25.44
120.17     658.00      25.65
120.27     625.00      25.00
120.37     657.03      25.63
120.47     611.00      24.72
120.57     610.02      24.70
120.67     578.13      24.04
120.77     641.38      25.33
120.87     548.00      23.41
120.97     587.00      24.23
121.07     577.00      24.02
121.17     595.59      24.40
121.27     588.00      24.25
121.37     562.00      23.71
121.47     525.00      22.91
121.57     578.00      24.04
121.67     596.42      24.42
121.77     625.78      25.02
121.87     540.01      23.24
121.97     559.00      23.64
122.07     579.69      24.08
122.17     650.00      25.50
122.27     642.00      25.34
122.37     570.90      23.89
122.47     619.00      24.88
122.57     629.19      25.08
122.67     635.00      25.20
122.77     636.00      25.22
122.87     642.92      25.36
122.97     599.00      24.47
123.07     624.96      25.00
123.17     581.79      24.12
123.27     615.78      24.81
123.37     681.00      26.10
123.47     646.00      25.42
123.57     682.79      26.13
123.67     602.00      24.54
123.77     602.00      24.54
123.87     650.30      25.50
123.97     644.00      25.38
124.07     634.00      25.18
124.17     590.00      24.29
124.27     575.67      23.99
124.37     553.63      23.53
124.47     558.84      23.64
124.57     623.00      24.96
124.67     581.00      24.10
124.77     576.32      24.01
124.87     590.74      24.31
124.97     573.00      23.94
