  9.97     586.00      24.21
 10.07     563.90      23.75
 10.17     587.00      24.23
 10.27     578.00      24.04
 10.37     592.00      24.33
 10.47     596.00      24.41
 10.57     587.00      24.23
 10.67     561.00      23.69
 10.77     533.00      23.09
 10.87     603.00      24.56
 10.97     555.00      23.56
 11.07     621.00      24.92
 11.17     564.00      23.75
 11.27     566.00      23.79
 11.37     576.00      24.00
 11.47     566.10      23.79
 11.57     550.00      23.45
 11.67     604.49      24.59
 11.77     602.00      24.54
 11.87     557.10      23.60
 11.97     662.00      25.73
 12.07     627.88      25.06
 12.17     672.00      25.92
 12.27     677.00      26.02
 12.37     712.12      26.69
 12.47     637.00      25.24
 12.57     594.00      24.37
 12.67     562.38      23.71
 12.77     583.23      24.15
 12.87     555.00      23.56
 12.97     597.87      24.45
 13.07     507.00      22.52
 13.17     614.00      24.78
 13.27     545.00      23.35
 13.37     599.32      24.48
 13.47     558.00      23.62
 13.57     565.00      23.77
 13.67     548.42      23.42
 13.77     588.41      24.26
 13.87     568.05      23.83
 13.97     530.72      23.04
 14.07     544.00      23.32
 14.17     574.00      23.96
 14.27     566.35      23.80
 14.37     554.00      23.54
 14.47     597.30      24.44
 14.57     533.00      23.09
 14.67     550.00      23.45
 14.77     640.00      25.30
 14.87     572.79      23.93
 14.97     598.07      24.46
 15.07     538.00      23.19
 15.17     553.00      23.52
 15.27     569.00      23.85
 15.37     550.83      23.47
 15.47     571.23      23.90
 15.57     524.77      22.91
 15.67     608.13      24.66
 15.77     561.00      23.69
 15.87     535.91      23.15
 15.97     520.43      22.81
 16.07     607.69      24.65
 16.17     577.00      24.02
 16.27     530.00      23.02
 16.37     533.00      23.09
 16.47     558.00      23.62
 16.57     593.54      24.36
 16.67     560.00      23.66
 16.77     596.20      24.42
 16.87     552.00      23.49
 16.97     602.45      24.54
 17.07     578.00      24.04
 17.17     550.00      23.45
 17.27     544.00      23.32
 17.37     606.67      24.63
 17.47     587.00      24.23
 17.57     568.00      23.83
 17.67     531.00      23.04
 17.77     532.00      23.07
 17.87     514.00      22.67
 17.97     512.00      22.63
 18.07     564.00      23.75
 18.17     547.66      23.40
 18.27     531.00      23.04
 18.37     574.00      23.96
 18.47     579.00      24.06
 18.57     534.34      23.12
 18.67     562.00      23.71
 18.77     556.47      23.59
 18.87     560.00      23.66
 18.97     556.00      23.58
 19.07     563.00      23.73
 19.17     569.00      23.85
 19.27     598.18      24.46
 19.37     537.00      23.17
 19.47     569.00      23.85
 19.57     574.43      23.97
 19.67     524.04      22.89
 19.77     522.00      22.85
 19.87     514.00      22.67
 19.97     537.52      23.18
 20.07     531.00      23.04
 20.17     521.00      22.83
 20.27     539.00      23.22
 20.37     618.00      24.86
 20.47     576.60      24.01
 20.57     562.00      23.71
 20.67     600.40      24.50
 20.77     539.35      23.22
 20.87     580.27      24.09
 20.97     534.19      23.11
 21.07     583.00      24.15
 21.17     547.00      23.39
 21.27     558.00      23.62
 21.37     530.00      23.02
 21.47     525.00      22.91
 21.57     539.00      23.22
 21.67     541.00      23.26
 21.77     523.00      22.87
 21.87     510.00      22.58
 21.97     552.00      23.49
 22.07     511.85      22.62
 22.17     571.00      23.90
 22.27     560.00      23.66
 22.37     516.00      22.72
 22.47     533.23      23.09
 22.57     593.32      24.36
 22.67     540.00      23.24
 22.77     540.50      23.25
 22.87     506.70      22.51
 22.97     538.00      23.19
 23.07     550.00      23.45
 23.17     563.00      23.73
 23.27     545.00      23.35
 23.37     535.00      23.13
 23.47     575.53      23.99
 23.57     541.00      23.26
 23.67     593.00      24.35
 23.77     569.56      23.87
 23.87     505.02      22.47
 23.97     549.00      23.43
 24.07     521.00      22.83
 24.17     557.00      23.60
 24.27     573.00      23.94
 24.37     598.00      24.45
 24.47     605.78      24.61
 24.57     617.92      24.86
 24.67     624.00      24.98
 24.77     572.00      23.92
 24.87     640.77      25.31
 24.97     661.49      25.72
 25.07     552.45      23.50
 25.17     569.00      23.85
 25.27     575.45      23.99
 25.37     564.50      23.76
 25.47     526.00      22.93
 25.57     509.99      22.58
 25.67     571.00      23.90
 25.77     545.00      23.35
 25.87     528.88      23.00
 25.97     545.00      23.35
 26.07     517.25      22.74
 26.17     592.00      24.33
 26.27     590.00      24.29
 26.37     523.75      22.89
 26.47     540.00      23.24
 26.57     568.14      23.84
 26.67     568.00      23.83
 26.77     521.00      22.83
 26.87     593.00      24.35
 26.97     526.00      22.93
 27.07     598.00      24.45
 27.17     571.00      23.90
 27.27     581.00      24.10
 27.37     575.48      23.99
 27.47     547.00      23.39
 27.57     568.00      23.83
 27.67     530.59      23.03
 27.77     581.00      24.10
 27.87     599.00      24.47
 27.97     647.00      25.44
 28.07     768.86      27.73
 28.17     900.12      30.00
 28.27     945.00      30.74
 28.37     903.00      30.05
 28.47     877.44      29.62
 28.57     691.20      26.29
 28.67     692.00      26.31
 28.77     733.00      27.07
 28.87     792.00      28.14
 28.97     778.58      27.90
 29.07     770.76      27.76
 29.17     750.09      27.39
 29.27     659.00      25.67
 29.37     589.00      24.27
 29.47     609.00      24.68
 29.57     535.40      23.14
 29.67     565.00      23.77
 29.77     592.00      24.33
 29.87     515.63      22.71
 29.97     593.00      24.35
 30.07     563.00      23.73
 30.17     529.23      23.01
 30.27     543.00      23.30
 30.37     568.00      23.83
 30.47     579.18      24.07
 30.57     572.00      23.92
 30.67     516.75      22.73
 30.77     588.00      24.25
 30.87     572.00      23.92
 30.97     619.27      24.89
 31.07     623.00      24.96
 31.17     546.60      23.38
 31.27     565.00      23.77
 31.37     538.00      23.19
 31.47     553.25      23.52
 31.57     566.00      23.79
 31.67     569.42      23.86
 31.77     563.72      23.74
 31.87     568.11      23.84
 31.97     612.00      24.74
 32.07     560.97      23.68
 32.17     572.00      23.92
 32.27     509.00      22.56
 32.37     564.00      23.75
 32.47     557.00      23.60
 32.57     556.00      23.58
 32.67     511.00      22.61
 32.77     550.00      23.45
 32.87     509.00      22.56
 32.97     581.00      24.10
 33.07     534.00      23.11
 33.17     530.49      23.03
 33.27     554.31      23.54
 33.37     557.00      23.60
 33.47     589.97      24.29
 33.57     601.83      24.53
 33.67     594.00      24.37
 33.77     751.00      27.40
 33.87     786.73      28.05
 33.97    1004.00      31.69
 34.07    1043.00      32.30
 34.17     966.52      31.09
 34.27     876.60      29.61
 34.37     839.00      28.97
 34.47     710.00      26.65
 34.57     664.49      25.78
 34.67     537.00      23.17
 34.77     528.00      22.98
 34.87     548.45      23.42
 34.97     533.00      23.09
 35.07     557.00      23.60
 35.17     527.00      22.96
 35.27     493.28      22.21
 35.37     518.98      22.78
 35.47     531.11      23.05
 35.57     555.00      23.56
 35.67     549.00      23.43
 35.77     480.00      21.91
 35.87     525.00      22.91
 35.97     472.18      21.73
 36.07     518.37      22.77
 36.17     538.41      23.20
 36.27     515.04      22.69
 36.37     485.00      22.02
 36.47     507.39      22.53
 36.57     475.00      21.79
 36.67     498.00      22.32
 36.77     550.00      23.45
 36.87     466.00      21.59
 36.97     501.00      22.38
 37.07     512.00      22.63
 37.17     512.00      22.63
 37.27     500.00      22.36
 37.37     532.49      23.08
 37.47     532.00      23.07
 37.57     492.00      22.18
 37.67     533.00      23.09
 37.77     510.00      22.58
 37.87     529.00      23.00
 37.97     524.66      22.91
 38.07     535.78      23.15
 38.17     518.10      22.76
 38.27     512.00      22.63
 38.37     489.00      22.11
 38.47     482.48      21.97
 38.57     486.11      22.05
 38.67     463.60      21.53
 38.77     471.00      21.70
 38.87     469.14      21.66
 38.97     473.00      21.75
 39.07     502.17      22.41
 39.17     500.00      22.36
 39.27     483.51      21.99
 39.37     509.00      22.56
 39.47     520.91      22.82
 39.57     536.82      23.17
 39.67     507.00      22.52
 39.77     475.00      21.79
 39.87     497.74      22.31
 39.97     491.12      22.16
 40.07     526.61      22.95
 40.17     478.27      21.87
 40.27     460.00      21.45
 40.37     458.36      21.41
 40.47     475.00      21.79
 40.57     508.00      22.54
 40.67     527.94      22.98
 40.77     499.00      22.34
 40.87     521.02      22.83
 40.97     463.02      21.52
 41.07     507.00      22.52
 41.17     480.00      21.91
 41.27     491.00      22.16
 41.37     518.53      22.77
 41.47     502.11      22.41
 41.57     518.46      22.77
 41.67     478.14      21.87
 41.77     501.00      22.38
 41.87     544.00      23.32
 41.97     540.12      23.24
 42.07     527.42      22.97
 42.17     540.45      23.25
 42.27     512.00      22.63
 42.37     537.04      23.17
 42.47     582.48      24.13
 42.57     572.00      23.92
 42.67     603.67      24.57
 42.77     612.00      24.74
 42.87     640.25      25.30
 42.97     578.00      24.04
 43.07     539.00      23.22
 43.17     560.00      23.66
 43.27     529.05      23.00
 43.37     481.88      21.95
 43.47     515.00      22.69
 43.57     467.58      21.62
 43.67     518.00      22.76
 43.77     541.00      23.26
 43.87     474.34      21.78
 43.97     513.00      22.65
 44.07     490.71      22.15
 44.17     553.00      23.52
 44.27     503.40      22.44
 44.37     492.00      22.18
 44.47     483.00      21.98
 44.57     530.68      23.04
 44.67     472.00      21.73
 44.77     491.00      22.16
 44.87     503.00      22.43
 44.97     481.00      21.93
 45.07     534.62      23.12
 45.17     488.00      22.09
 45.27     468.00      21.63
 45.37     500.00      22.36
 45.47     507.00      22.52
 45.57     500.00      22.36
 45.67     520.00      22.80
 45.77     507.00      22.52
 45.87     471.00      21.70
 45.97     541.00      23.26
 46.07     473.71      21.76
 46.17     504.00      22.45
 46.27     503.13      22.43
 46.37     471.00      21.70
 46.47     483.60      21.99
 46.57     481.00      21.93
 46.67     495.85      22.27
 46.77     525.00      22.91
 46.87     523.00      22.87
 46.97     518.76      22.78
 47.07     541.33      23.27
 47.17     496.00      22.27
 47.27     504.00      22.45
 47.37     508.00      22.54
 47.47     523.00      22.87
 47.57     556.00      23.58
 47.67     551.00      23.47
 47.77     542.35      23.29
 47.87     602.12      24.54
 47.97     554.46      23.55
 48.07     634.00      25.18
 48.17     613.00      24.76
 48.27     537.00      23.17
 48.37     562.00      23.71
 48.47     504.00      22.45
 48.57     528.00      22.98
 48.67     496.00      22.27
 48.77     522.00      22.85
 48.87     525.46      22.92
 48.97     523.99      22.89
 49.07     525.00      22.91
 49.17     530.00      23.02
 49.27     524.00      22.89
 49.37     601.48      24.53
 49.47     573.75      23.95
 49.57     690.73      26.28
 49.67     833.00      28.86
 49.77     980.00      31.30
 49.87    1278.00      35.75
 49.97    1600.73      40.01
 50.07    1924.00      43.86
 50.17    2372.00      48.70
 50.27    2375.84      48.74
 50.37    2300.00      47.96
 50.47    1884.00      43.41
 50.57    1645.00      40.56
 50.67    1196.00      34.58
 50.77     942.00      30.69
 50.87     796.00      28.21
 50.97     709.00      26.63
 51.07     665.00      25.79
 51.17     657.67      25.65
 51.27     616.00      24.82
 51.37     600.00      24.49
 51.47     535.03      23.13
 51.57     580.00      24.08
 51.67     556.40      23.59
 51.77     585.00      24.19
 51.87     539.39      23.22
 51.97     541.00      23.26
 52.07     514.00      22.67
 52.17     558.00      23.62
 52.27     545.00      23.35
 52.37     579.00      24.06
 52.47     582.00      24.12
 52.57     562.50      23.72
 52.67     573.00      23.94
 52.77     589.00      24.27
 52.87     575.04      23.98
 52.97     617.62      24.85
 53.07     749.00      27.37
 53.17     870.00      29.50
 53.27     991.00      31.48
 53.37    1112.00      33.35
 53.47    1177.00      34.31
 53.57    1243.00      35.26
 53.67    1210.63      34.79
 53.77    1043.00      32.30
 53.87     940.00      30.66
 53.97     844.00      29.05
 54.07     732.00      27.06
 54.17     621.00      24.92
 54.27     574.54      23.97
 54.37     582.00      24.12
 54.47     584.21      24.17
 54.57     563.00      23.73
 54.67     543.00      23.30
 54.77     513.39      22.66
 54.87     575.00      23.98
 54.97     548.00      23.41
 55.07     592.00      24.33
 55.17     502.12      22.41
 55.27     509.44      22.57
 55.37     549.00      23.43
 55.47     591.00      24.31
 55.57     539.41      23.23
 55.67     592.00      24.33
 55.77     617.77      24.86
 55.87     606.00      24.62
 55.97     657.00      25.63
 56.07     684.00      26.15
 56.17     720.41      26.84
 56.27     817.00      28.58
 56.37     984.00      31.37
 56.47    1285.00      35.85
 56.57    1614.00      40.17
 56.67    2051.74      45.30
 56.77    2235.06      47.28
 56.87    2606.64      51.06
 56.97    2488.00      49.88
 57.07    2453.00      49.53
 57.17    2222.35      47.14
 57.27    1865.37      43.19
 57.37    1538.88      39.23
 57.47    1170.21      34.21
 57.57    1032.80      32.14
 57.67     855.00      29.24
 57.77     750.47      27.39
 57.87     775.00      27.84
 57.97     667.00      25.83
 58.07     706.00      26.57
 58.17     676.00      26.00
 58.27     716.00      26.76
 58.37     809.62      28.45
 58.47     845.00      29.07
 58.57     885.00      29.75
 58.67    1075.00      32.79
 58.77    1076.00      32.80
 58.87    1166.00      34.15
 58.97    1237.00      35.17
 59.07    1318.00      36.30
 59.17    1343.61      36.66
 59.27    1216.74      34.88
 59.37    1256.91      35.45
 59.47    1213.00      34.83
 59.57    1175.92      34.29
 59.67    1197.00      34.60
 59.77    1140.34      33.77
 59.87    1260.00      35.50
 59.97    1282.00      35.81
 60.07    1416.95      37.64
 60.17    1457.00      38.17
 60.27    1527.36      39.08
 60.37    1475.79      38.42
 60.47    1464.00      38.26
 60.57    1279.79      35.77
 60.67    1119.00      33.45
 60.77    1023.00      31.98
 60.87     830.45      28.82
 60.97     734.55      27.10
 61.07     701.00      26.48
 61.17     644.04      25.38
 61.27     694.70      26.36
 61.37     691.00      26.29
 61.47     677.00      26.02
 61.57     721.79      26.87
 61.67     845.00      29.07
 61.77     894.85      29.91
 61.87    1073.00      32.76
 61.97    1162.14      34.09
 62.07    1300.00      36.06
 62.17    1356.00      36.82
 62.27    1336.00      36.55
 62.37    1300.00      36.06
 62.47    1207.00      34.74
 62.57    1107.00      33.27
 62.67    1020.56      31.95
 62.77     810.00      28.46
 62.87     752.00      27.42
 62.97     647.00      25.44
 63.07     660.78      25.71
 63.17     597.00      24.43
 63.27     564.00      23.75
 63.37     569.00      23.85
 63.47     573.00      23.94
 63.57     547.98      23.41
 63.67     600.00      24.49
 63.77     562.00      23.71
 63.87     648.00      25.46
 63.97     670.38      25.89
 64.07     663.00      25.75
 64.17     735.00      27.11
 64.27     821.00      28.65
 64.37     902.61      30.04
 64.47     922.00      30.36
 64.57     933.00      30.55
 64.67    1012.00      31.81
 64.77     956.94      30.93
 64.87    1005.00      31.70
 64.97     944.00      30.72
 65.07     888.00      29.80
 65.17     856.00      29.26
 65.27     802.00      28.32
 65.37     711.07      26.67
 65.47     654.00      25.57
 65.57     589.00      24.27
 65.67     592.17      24.33
 65.77     594.93      24.39
 65.87     573.00      23.94
 65.97     533.59      23.10
 66.07     526.00      22.93
 66.17     551.00      23.47
 66.27     582.00      24.12
 66.37     555.70      23.57
 66.47     511.00      22.61
 66.57     590.00      24.29
 66.67     572.00      23.92
 66.77     526.00      22.93
 66.87     557.31      23.61
 66.97     575.68      23.99
 67.07     627.82      25.06
 67.17     695.75      26.38
 67.27     708.00      26.61
 67.37     844.14      29.05
 67.47    1032.43      32.13
 67.57    1167.37      34.17
 67.67    1320.78      36.34
 67.77    1671.00      40.88
 67.87    1900.00      43.59
 67.97    2185.00      46.74
 68.07    2312.79      48.09
 68.17    2447.00      49.47
 68.27    2241.60      47.35
 68.37    2236.00      47.29
 68.47    2058.00      45.37
 68.57    1723.00      41.51
 68.67    1552.00      39.40
 68.77    1206.00      34.73
 68.87    1038.00      32.22
 68.97     941.72      30.69
 69.07     763.00      27.62
 69.17     751.00      27.40
 69.27     641.26      25.32
 69.37     614.86      24.80
 69.47     632.00      25.14
 69.57     611.55      24.73
 69.67     605.00      24.60
 69.77     567.00      23.81
 69.87     561.00      23.69
 69.97     554.00      23.54
 70.07     610.32      24.70
 70.17     540.00      23.24
 70.27     567.00      23.81
 70.37     566.16      23.79
 70.47     576.00      24.00
 70.57     575.30      23.99
 70.67     558.00      23.62
 70.77     536.00      23.15
 70.87     592.00      24.33
 70.97     603.00      24.56
 71.07     664.00      25.77
 71.17     712.15      26.69
 71.27     781.00      27.95
 71.37     931.23      30.52
 71.47     968.00      31.11
 71.57    1208.00      34.76
 71.67    1326.49      36.42
 71.77    1449.00      38.07
 71.87    1616.00      40.20
 71.97    1750.00      41.83
 72.07    1867.49      43.21
 72.17    1854.00      43.06
 72.27    1791.00      42.32
 72.37    1614.18      40.18
 72.47    1616.00      40.20
 72.57    1321.02      36.35
 72.67    1181.00      34.37
 72.77    1098.65      33.15
 72.87     938.00      30.63
 72.97     846.00      29.09
 73.07     765.00      27.66
 73.17     680.00      26.08
 73.27     726.00      26.94
 73.37     692.00      26.31
 73.47     628.00      25.06
 73.57     570.00      23.87
 73.67     582.00      24.12
 73.77     620.00      24.90
 73.87     539.00      23.22
 73.97     603.57      24.57
 74.07     586.00      24.21
 74.17     617.00      24.84
 74.27     585.00      24.19
 74.37     654.00      25.57
 74.47     652.00      25.53
 74.57     591.00      24.31
 74.67     586.12      24.21
 74.77     594.00      24.37
 74.87     596.41      24.42
 74.97     627.00      25.04
 75.07     613.00      24.76
 75.17     552.17      23.50
 75.27     594.91      24.39
 75.37     572.00      23.92
 75.47     595.00      24.39
 75.57     566.62      23.80
 75.67     537.00      23.17
 75.77     576.45      24.01
 75.87     588.00      24.25
 75.97     576.00      24.00
 76.07     651.01      25.51
 76.17     584.00      24.17
 76.27     644.00      25.38
 76.37     701.00      26.48
 76.47     684.00      26.15
 76.57     722.00      26.87
 76.67     710.65      26.66
 76.77     688.94      26.25
 76.87     689.84      26.26
 76.97     684.03      26.15
 77.07     663.00      25.75
 77.17     633.00      25.16
 77.27     627.38      25.05
 77.37     562.00      23.71
 77.47     540.04      23.24
 77.57     514.75      22.69
 77.67     519.00      22.78
 77.77     544.00      23.32
 77.87     558.76      23.64
 77.97     532.00      23.07
 78.07     552.00      23.49
 78.17     538.00      23.19
 78.27     510.00      22.58
 78.37     520.81      22.82
 78.47     485.00      22.02
 78.57     484.00      22.00
 78.67     470.00      21.68
 78.77     522.00      22.85
 78.87     498.60      22.33
 78.97     519.00      22.78
 79.07     459.00      21.42
 79.17     478.00      21.86
 79.27     538.00      23.19
 79.37     539.00      23.22
 79.47     462.00      21.49
 79.57     538.35      23.20
 79.67     511.00      22.61
 79.77     514.42      22.68
 79.87     500.00      22.36
 79.97     511.42      22.61
 80.07     506.31      22.50
 80.17     499.00      22.34
 80.27     518.77      22.78
 80.37     558.00      23.62
 80.47     600.96      24.51
 80.57     568.42      23.84
 80.67     576.00      24.00
 80.77     605.00      24.60
 80.87     668.00      25.85
 80.97     647.70      25.45
 81.07     674.00      25.96
 81.17     720.29      26.84
 81.27     701.00      26.48
 81.37     764.00      27.64
 81.47     749.00      27.37
 81.57     722.00      26.87
 81.67     725.00      26.93
 81.77     719.00      26.81
 81.87     694.00      26.34
 81.97     721.00      26.85
 82.07     694.00      26.34
 82.17     642.57      25.35
 82.27     664.12      25.77
 82.37     659.57      25.68
 82.47     626.00      25.02
 82.57     575.00      23.98
 82.67     562.00      23.71
 82.77     540.86      23.26
 82.87     507.00      22.52
 82.97     517.00      22.74
 83.07     521.00      22.83
 83.17     576.56      24.01
 83.27     571.00      23.90
 83.37     555.00      23.56
 83.47     532.00      23.07
 83.57     503.00      22.43
 83.67     524.43      22.90
 83.77     560.00      23.66
 83.87     560.00      23.66
 83.97     601.26      24.52
 84.07     612.27      24.74
 84.17     526.84      22.95
 84.27     509.00      22.56
 84.37     584.00      24.17
 84.47     552.74      23.51
 84.57     521.75      22.84
 84.67     515.00      22.69
 84.77     530.00      23.02
 84.87     515.34      22.70
 84.97     487.63      22.08
 85.07     546.83      23.38
 85.17     493.26      22.21
 85.27     490.00      22.14
 85.37     549.64      23.44
 85.47     505.40      22.48
 85.57     521.00      22.83
 85.67     495.00      22.25
 85.77     546.43      23.38
 85.87     527.00      22.96
 85.97     511.00      22.61
 86.07     500.89      22.38
 86.17     513.00      22.65
 86.27     521.00      22.83
 86.37     537.00      23.17
 86.47     570.00      23.87
 86.57     553.00      23.52
 86.67     574.00      23.96
 86.77     543.00      23.30
 86.87     533.56      23.10
 86.97     630.00      25.10
 87.07     627.00      25.04
 87.17     612.45      24.75
 87.27     598.55      24.47
 87.37     609.00      24.68
 87.47     632.83      25.16
 87.57     645.00      25.40
 87.67     636.00      25.22
 87.77     636.00      25.22
 87.87     592.00      24.33
 87.97     612.00      24.74
 88.07     564.35      23.76
 88.17     582.00      24.12
 88.27     595.00      24.39
 88.37     604.96      24.60
 88.47     596.00      24.41
 88.57     572.00      23.92
 88.67     597.00      24.43
 88.77     572.35      23.92
 88.87     611.00      24.72
 88.97     593.00      24.35
 89.07     528.75      22.99
 89.17     584.08      24.17
 89.27     582.00      24.12
 89.37     600.00      24.49
 89.47     598.00      24.45
 89.57     596.00      24.41
 89.67     583.79      24.16
 89.77     599.00      24.47
 89.87     572.00      23.92
 89.97     606.00      24.62
 90.07     528.00      22.98
 90.17     524.00      22.89
 90.27     501.00      22.38
 90.37     467.00      21.61
 90.47     539.00      23.22
 90.57     521.04      22.83
 90.67     487.90      22.09
 90.77     517.00      22.74
 90.87     512.00      22.63
 90.97     542.99      23.30
 91.07     510.13      22.59
 91.17     507.00      22.52
 91.27     559.00      23.64
 91.37     508.00      22.54
 91.47     513.97      22.67
 91.57     515.00      22.69
 91.67     493.00      22.20
 91.77     532.00      23.07
 91.87     495.67      22.26
 91.97     577.00      24.02
 92.07     557.00      23.60
 92.17     544.61      23.34
 92.27     584.00      24.17
 92.37     610.88      24.72
 92.47     579.00      24.06
 92.57     642.93      25.36
 92.67     654.00      25.57
 92.77     676.00      26.00
 92.87     655.99      25.61
 92.97     692.68      26.32
 93.07     687.00      26.21
 93.17     740.00      27.20
 93.27     706.00      26.57
 93.37     705.00      26.55
 93.47     769.00      27.73
 93.57     723.00      26.89
 93.67     743.00      27.26
 93.77     791.88      28.14
 93.87     772.20      27.79
 93.97     845.41      29.08
 94.07     851.00      29.17
 94.17     852.00      29.19
 94.27     795.68      28.21
 94.37     879.87      29.66
 94.47     907.82      30.13
 94.57     824.85      28.72
 94.67     899.00      29.98
 94.77     893.00      29.88
 94.87     953.00      30.87
 94.97     927.00      30.45
 95.07     915.00      30.25
 95.17     891.00      29.85
 95.27     845.00      29.07
 95.37     830.00      28.81
 95.47     794.00      28.18
 95.57     764.00      27.64
 95.67     767.00      27.69
 95.77     741.12      27.22
 95.87     720.24      26.84
 95.97     668.00      25.85
 96.07     692.00      26.31
 96.17     713.00      26.70
 96.27     701.00      26.48
 96.37     735.00      27.11
 96.47     815.00      28.55
 96.57     867.16      29.45
 96.67     879.28      29.65
 96.77     982.70      31.35
 96.87    1015.00      31.86
 96.97    1056.00      32.50
 97.07    1123.00      33.51
 97.17    1248.19      35.33
 97.27    1284.00      35.83
 97.37    1343.00      36.65
 97.47    1334.72      36.53
 97.57    1439.72      37.94
 97.67    1428.00      37.79
 97.77    1404.85      37.48
 97.87    1452.62      38.11
 97.97    1390.67      37.29
 98.07    1310.00      36.19
 98.17    1276.00      35.72
 98.27    1244.27      35.27
 98.37    1102.00      33.20
 98.47    1036.10      32.19
 98.57     956.00      30.92
 98.67     931.00      30.51
 98.77     956.78      30.93
 98.87     921.21      30.35
 98.97     781.00      27.95
 99.07     854.75      29.24
 99.17     858.00      29.29
 99.27     896.00      29.93
 99.37     899.78      30.00
 99.47     967.66      31.11
 99.57    1026.36      32.04
 99.67    1102.05      33.20
 99.77    1238.92      35.20
 99.87    1278.00      35.75
 99.97    1433.61      37.86
100.07    1470.00      38.34
100.17    1598.00      39.97
100.27    1730.00      41.59
100.37    1730.34      41.60
100.47    1880.00      43.36
100.57    1914.00      43.75
100.67    2032.67      45.09
100.77    2042.00      45.19
100.87    2006.00      44.79
100.97    1992.00      44.63
101.07    1900.41      43.59
101.17    1886.00      43.43
101.27    1866.00      43.20
101.37    1790.00      42.31
101.47    1630.51      40.38
101.57    1618.00      40.22
101.67    1557.00      39.46
101.77    1486.00      38.55
101.87    1348.00      36.72
101.97    1287.00      35.87
102.07    1265.00      35.57
102.17    1202.00      34.67
102.27    1262.61      35.53
102.37    1139.09      33.75
102.47    1139.00      33.75
102.57    1124.00      33.53
102.67    1095.00      33.09
102.77    1136.42      33.71
102.87    1048.00      32.37
102.97    1057.03      32.51
103.07    1039.16      32.24
103.17     943.00      30.71
103.27     897.00      29.95
103.37     892.00      29.87
103.47     851.00      29.17
103.57     788.52      28.08
103.67     789.96      28.11
103.77     778.00      27.89
103.87     657.00      25.63
103.97     735.00      27.11
104.07     674.00      25.96
104.17     616.00      24.82
104.27     632.00      25.14
104.37     595.00      24.39
104.47     564.00      23.75
104.57     597.53      24.44
104.67     579.46      24.07
104.77     571.00      23.90
104.87     519.64      22.80
104.97     555.85      23.58
105.07     541.00      23.26
105.17     564.00      23.75
105.27     579.00      24.06
105.37     501.80      22.40
105.47     511.63      22.62
105.57     543.00      23.30
105.67     553.00      23.52
105.77     549.00      23.43
105.87     508.50      22.55
105.97     584.60      24.18
106.07     540.16      23.24
106.17     553.00      23.52
106.27     572.00      23.92
106.37     565.00      23.77
106.47     613.00      24.76
106.57     557.00      23.60
106.67     661.66      25.72
106.77     625.75      25.01
106.87     693.00      26.32
106.97     627.19      25.04
107.07     628.68      25.07
107.17     716.55      26.77
107.27     718.00      26.80
107.37     641.00      25.32
107.47     715.00      26.74
107.57     692.00      26.31
107.67     683.00      26.13
107.77     669.38      25.87
107.87     665.21      25.79
107.97     730.29      27.02
108.07     671.00      25.90
108.17     704.17      26.54
108.27     706.00      26.57
108.37     689.00      26.25
108.47     667.00      25.83
108.57     683.00      26.13
108.67     623.00      24.96
108.77     693.00      26.32
108.87     650.00      25.50
108.97     706.00      26.57
109.07     658.00      25.65
109.17     681.00      26.10
109.27     656.00      25.61
109.37     736.00      27.13
109.47     649.00      25.48
109.57     616.00      24.82
109.67     636.00      25.22
109.77     618.00      24.86
109.87     636.00      25.22
109.97     610.00      24.70
110.07     561.21      23.69
110.17     597.60      24.45
110.27     623.01      24.96
110.37     610.21      24.70
110.47     592.00      24.33
110.57     546.00      23.37
110.67     531.46      23.05
110.77     510.24      22.59
110.87     554.00      23.54
110.97     523.00      22.87
111.07     552.00      23.49
111.17     569.00      23.85
111.27     541.00      23.26
111.37     527.36      22.96
111.47     573.19      23.94
111.57     540.73      23.25
111.67     511.56      22.62
111.77     534.00      23.11
111.87     599.12      24.48
111.97     542.00      23.28
112.07     596.92      24.43
112.17     551.90      23.49
112.27     539.88      23.24
112.37     535.00      23.13
112.47     565.00      23.77
112.57     610.32      24.70
112.67     558.30      23.63
112.77     576.00      24.00
112.87     556.00      23.58
112.97     614.00      24.78
113.07     648.00      25.46
113.17     571.00      23.90
113.27     626.00      25.02
113.37     633.94      25.18
113.47     663.00      25.75
113.57     650.00      25.50
113.67     710.66      26.66
113.77     757.65      27.53
113.87     775.00      27.84
113.97     799.00      28.27
114.07     808.00      28.43
114.17     863.00      29.38
114.27     888.75      29.81
114.37     930.67      30.51
114.47    1009.58      31.77
114.57    1094.85      33.09
114.67    1278.00      35.75
114.77    1431.73      37.84
114.87    1607.00      40.09
114.97    1676.08      40.94
115.07    1993.68      44.65
115.17    2139.22      46.25
115.27    2471.00      49.71
115.37    2676.00      51.73
115.47    3067.21      55.38
115.57    3402.23      58.33
115.67    3727.23      61.05
115.77    3941.00      62.78
115.87    4318.00      65.71
115.97    4694.00      68.51
116.07    5053.74      71.09
116.17    5347.00      73.12
116.27    5676.61      75.34
116.37    6285.00      79.28
116.47    6343.64      79.65
116.57    6416.57      80.10
116.67    6834.83      82.67
116.77    6806.00      82.50
116.87    6898.00      83.05
116.97    6874.67      82.91
117.07    6650.00      81.55
117.17    6468.00      80.42
117.27    6237.00      78.97
117.37    5875.43      76.65
117.47    5381.00      73.36
117.57    5238.97      72.38
117.67    4980.01      70.57
117.77    4534.89      67.34
117.87    4210.00      64.88
117.97    3837.68      61.95
118.07    3536.00      59.46
118.17    3223.00      56.77
118.27    2911.00      53.95
118.37    2475.09      49.75
118.47    2286.00      47.81
118.57    1970.00      44.38
118.67    1779.00      42.18
118.77    1596.00      39.95
118.87    1418.00      37.66
118.97    1316.00      36.28
119.07    1134.00      33.67
119.17    1085.00      32.94
119.27    1006.00      31.72
119.37     895.81      29.93
119.47     898.86      29.98
119.57     799.43      28.27
119.67     758.00      27.53
119.77     733.00      27.07
119.87     686.00      26.19
119.97     665.00      25.79
120.07     708.62      26.62
120.17     690.25      26.27
120.27     624.00      24.98
120.37     626.00      25.02
120.47     607.00      24.64
120.57     618.95      24.88
120.67     536.00      23.15
120.77     580.00      24.08
120.87     573.00      23.94
120.97     575.04      23.98
121.07     580.24      24.09
121.17     615.00      24.80
121.27     583.71      24.16
121.37     610.00      24.70
121.47     597.54      24.44
121.57     604.91      24.59
121.67     575.00      23.98
121.77     625.68      25.01
121.87     578.00      24.04
121.97     591.00      24.31
122.07     642.24      25.34
122.17     616.72      24.83
122.27     606.00      24.62
122.37     592.00      24.33
122.47     585.00      24.19
122.57     652.00      25.53
122.67     647.72      25.45
122.77     614.00      24.78
122.87     638.00      25.26
122.97     683.98      26.15
123.07     628.00      25.06
123.17     666.29      25.81
123.27     679.11      26.06
123.37     597.00      24.43
123.47     666.45      25.82
123.57     643.00      25.36
123.67     640.95      25.32
123.77     634.67      25.19
123.87     651.00      25.51
123.97     631.00      25.12
124.07     661.22      25.71
124.17     577.87      24.04
124.27     646.26      25.42
124.37     671.00      25.90
124.47     649.00      25.48
124.57     599.61      24.49
124.67     590.25      24.30
124.77     601.00      24.52
124.87     612.00      24.74
124.97     598.00      24.45
