  9.97     646.00      25.42
 10.07     563.97      23.75
 10.17     620.00      24.90
 10.27     647.00      25.44
 10.37     660.00      25.69
 10.47     628.00      25.06
 10.57     591.47      24.32
 10.67     666.00      25.81
 10.77     650.00      25.50
 10.87     624.73      24.99
 10.97     598.00      24.45
 11.07     615.00      24.80
 11.17     654.00      25.57
 11.27     549.50      23.44
 11.37     656.34      25.62
 11.47     611.25      24.72
 11.57     662.00      25.73
 11.67     655.00      25.59
 11.77     628.97      25.08
 11.87     689.00      26.25
 11.97     726.10      26.95
 12.07     642.11      25.34
 12.17     762.00      27.60
 12.27     777.50      27.88
 12.37     732.00      27.06
 12.47     662.00      25.73
 12.57     694.07      26.35
 12.67     641.00      25.32
 12.77     596.00      24.41
 12.87     654.00      25.57
 12.97     587.00      24.23
 13.07     636.00      25.22
 13.17     653.10      25.56
 13.27     589.00      24.27
 13.37     650.33      25.50
 13.47     560.00      23.66
 13.57     605.00      24.60
 13.67     596.02      24.41
 13.77     615.89      24.82
 13.87     574.00      23.96
 13.97     546.00      23.37
 14.07     580.00      24.08
 14.17     573.16      23.94
 14.27     604.00      24.58
 14.37     632.01      25.14
 14.47     604.00      24.58
 14.57     624.00      24.98
 14.67     634.53      25.19
 14.77     592.00      24.33
 14.87     604.00      24.58
 14.97     543.00      23.30
 15.07     576.00      24.00
 15.17     627.00      25.04
 15.27     600.00      24.49
 15.37     588.00      24.25
 15.47     599.46      24.48
 15.57     592.69      24.35
 15.67     626.00      25.02
 15.77     639.00      25.28
 15.87     598.00      24.45
 15.97     573.00      23.94
 16.07     659.49      25.68
 16.17     587.00      24.23
 16.27     609.00      24.68
 16.37     630.62      25.11
 16.47     598.00      24.45
 16.57     574.58      23.97
 16.67     602.00      24.54
 16.77     653.93      25.57
 16.87     602.00      24.54
 16.97     675.23      25.99
 17.07     572.58      23.93
 17.17     582.00      24.12
 17.27     622.00      24.94
 17.37     589.00      24.27
 17.47     568.26      23.84
 17.57     610.08      24.70
 17.67     655.18      25.60
 17.77     568.15      23.84
 17.87     558.00      23.62
 17.97     612.00      24.74
 18.07     612.00      24.74
 18.17     626.00      25.02
 18.27     599.00      24.47
 18.37     624.81      25.00
 18.47     611.00      24.72
 18.57     585.19      24.19
 18.67     634.00      25.18
 18.77     588.75      24.26
 18.87     629.73      25.09
 18.97     601.00      24.52
 19.07     598.00      24.45
 19.17     615.00      24.80
 19.27     621.41      24.93
 19.37     570.89      23.89
 19.47     587.00      24.23
 19.57     585.00      24.19
 19.67     588.00      24.25
 19.77     595.00      24.39
 19.87     589.00      24.27
 19.97     571.43      23.90
 20.07     595.12      24.39
 20.17     546.00      23.37
 20.27     605.00      24.60
 20.37     591.00      24.31
 20.47     602.00      24.54
 20.57     559.08      23.64
 20.67     658.61      25.66
 20.77     576.89      24.02
 20.87     625.00      25.00
 20.97     601.00      24.52
 21.07     645.00      25.40
 21.17     560.58      23.68
 21.27     587.77      24.24
 21.37     597.26      24.44
 21.47     584.00      24.17
 21.57     581.00      24.10
 21.67     622.55      24.95
 21.77     650.79      25.51
 21.87     578.02      24.04
 21.97     598.00      24.45
 22.07     589.00      24.27
 22.17     599.00      24.47
 22.27     604.63      24.59
 22.37     633.00      25.16
 22.47     584.00      24.17
 22.57     561.65      23.70
 22.67     631.66      25.13
 22.77     617.00      24.84
 22.87     617.00      24.84
 22.97     608.00      24.66
 23.07     580.00      24.08
 23.17     573.00      23.94
 23.27     662.00      25.73
 23.37     645.00      25.40
 23.47     624.00      24.98
 23.57     599.00      24.47
 23.67     560.00      23.66
 23.77     565.00      23.77
 23.87     608.00      24.66
 23.97     588.48      24.26
 24.07     626.00      25.02
 24.17     619.00      24.88
 24.27     658.00      25.65
 24.37     612.08      24.74
 24.47     628.51      25.07
 24.57     652.38      25.54
 24.67     702.11      26.50
 24.77     656.00      25.61
 24.87     658.00      25.65
 24.97     700.00      26.46
 25.07     689.00      26.25
 25.17     647.00      25.44
 25.27     666.00      25.81
 25.37     623.00      24.96
 25.47     667.15      25.83
 25.57     653.16      25.56
 25.67     685.00      26.17
 25.77     656.68      25.63
 25.87     632.00      25.14
 25.97     662.00      25.73
 26.07     598.39      24.46
 26.17     622.00      24.94
 26.27     656.00      25.61
 26.37     627.00      25.04
 26.47     603.11      24.56
 26.57     621.00      24.92
 26.67     647.00      25.44
 26.77     670.00      25.88
 26.87     690.00      26.27
 26.97     566.04      23.79
 27.07     658.00      25.65
 27.17     668.00      25.85
 27.27     617.00      24.84
 27.37     677.00      26.02
 27.47     687.00      26.21
 27.57     704.00      26.53
 27.67     587.95      24.25
 27.77     708.00      26.61
 27.87     690.00      26.27
 27.97     754.00      27.46
 28.07     789.00      28.09
 28.17     900.17      30.00
 28.27     978.25      31.28
 28.37     915.22      30.25
 28.47     995.00      31.54
 28.57     923.00      30.38
 28.67     858.00      29.29
 28.77     892.00      29.87
 28.87     848.00      29.12
 28.97     983.00      31.35
 29.07     802.52      28.33
 29.17     837.60      28.94
 29.27     853.00      29.21
 29.37     817.00      28.58
 29.47     697.45      26.41
 29.57     658.11      25.65
 29.67     692.00      26.31
 29.77     687.00      26.21
 29.87     687.00      26.21
 29.97     691.00      26.29
 30.07     691.00      26.29
 30.17     555.58      23.57
 30.27     544.16      23.33
 30.37     650.00      25.50
 30.47     551.46      23.48
 30.57     626.00      25.02
 30.67     576.68      24.01
 30.77     615.80      24.82
 30.87     739.00      27.18
 30.97     711.00      26.66
 31.07     680.00      26.08
 31.17     649.10      25.48
 31.27     665.44      25.80
 31.37     556.17      23.58
 31.47     633.00      25.16
 31.57     568.00      23.83
 31.67     647.00      25.44
 31.77     610.00      24.70
 31.87     599.00      24.47
 31.97     623.95      24.98
 32.07     576.00      24.00
 32.17     613.00      24.76
 32.27     628.00      25.06
 32.37     553.82      23.53
 32.47     548.59      23.42
 32.57     566.00      23.79
 32.67     559.00      23.64
 32.77     544.00      23.32
 32.87     595.51      24.40
 32.97     599.00      24.47
 33.07     535.79      23.15
 33.17     544.88      23.34
 33.27     608.00      24.66
 33.37     587.00      24.23
 33.47     639.91      25.30
 33.57     593.00      24.35
 33.67     698.05      26.42
 33.77     674.00      25.96
 33.87     791.00      28.12
 33.97     876.00      29.60
 34.07    1010.00      31.78
 34.17    1040.11      32.25
 34.27    1012.00      31.81
 34.37    1030.03      32.09
 34.47     876.00      29.60
 34.57     741.41      27.23
 34.67     686.00      26.19
 34.77     588.00      24.25
 34.87     644.30      25.38
 34.97     605.00      24.60
 35.07     601.00      24.52
 35.17     572.76      23.93
 35.27     571.00      23.90
 35.37     548.57      23.42
 35.47     582.13      24.13
 35.57     521.88      22.84
 35.67     584.04      24.17
 35.77     552.00      23.49
 35.87     546.76      23.38
 35.97     517.00      22.74
 36.07     505.00      22.47
 36.17     507.37      22.52
 36.27     518.03      22.76
 36.37     560.00      23.66
 36.47     563.38      23.74
 36.57     543.00      23.30
 36.67     504.00      22.45
 36.77     547.00      23.39
 36.87     587.00      24.23
 36.97     542.00      23.28
 37.07     528.00      22.98
 37.17     537.00      23.17
 37.27     530.00      23.02
 37.37     533.00      23.09
 37.47     530.00      23.02
 37.57     528.00      22.98
 37.67     579.00      24.06
 37.77     607.00      24.64
 37.87     606.45      24.63
 37.97     550.00      23.45
 38.07     550.42      23.46
 38.17     505.00      22.47
 38.27     535.00      23.13
 38.37     583.46      24.15
 38.47     509.00      22.56
 38.57     548.00      23.41
 38.67     521.00      22.83
 38.77     487.00      22.07
 38.87     535.00      23.13
 38.97     485.00      22.02
 39.07     522.00      22.85
 39.17     507.00      22.52
 39.27     526.00      22.93
 39.37     517.00      22.74
 39.47     491.36      22.17
 39.57     526.00      22.93
 39.67     521.00      22.83
 39.77     532.00      23.07
 39.87     549.00      23.43
 39.97     486.70      22.06
 40.07     493.55      22.22
 40.17     537.00      23.17
 40.27     547.03      23.39
 40.37     489.00      22.11
 40.47     545.00      23.35
 40.57     519.06      22.78
 40.67     466.00      21.59
 40.77     580.51      24.09
 40.87     481.00      21.93
 40.97     569.17      23.86
 41.07     519.00      22.78
 41.17     516.15      22.72
 41.27     515.00      22.69
 41.37     537.82      23.19
 41.47     529.00      23.00
 41.57     482.54      21.97
 41.67     564.00      23.75
 41.77     541.00      23.26
 41.87     558.69      23.64
 41.97     521.62      22.84
 42.07     483.00      21.98
 42.17     531.00      23.04
 42.27     518.00      22.76
 42.37     552.00      23.49
 42.47     536.01      23.15
 42.57     558.00      23.62
 42.67     567.61      23.82
 42.77     610.00      24.70
 42.87     643.00      25.36
 42.97     631.00      25.12
 43.07     621.00      24.92
 43.17     545.73      23.36
 43.27     582.39      24.13
 43.37     546.00      23.37
 43.47     519.00      22.78
 43.57     523.75      22.89
 43.67     492.31      22.19
 43.77     546.00      23.37
 43.87     549.94      23.45
 43.97     514.00      22.67
 44.07     518.00      22.76
 44.17     540.00      23.24
 44.27     536.00      23.15
 44.37     532.00      23.07
 44.47     506.00      22.49
 44.57     502.00      22.41
 44.67     557.80      23.62
 44.77     508.00      22.54
 44.87     553.42      23.52
 44.97     532.00      23.07
 45.07     544.00      23.32
 45.17     498.00      22.32
 45.27     563.00      23.73
 45.37     519.00      22.78
 45.47     496.36      22.28
 45.57     526.00      22.93
 45.67     489.78      22.13
 45.77     539.00      23.22
 45.87     508.24      22.54
 45.97     533.00      23.09
 46.07     551.00      23.47
 46.17     522.00      22.85
 46.27     504.00      22.45
 46.37     508.00      22.54
 46.47     515.00      22.69
 46.57     561.00      23.69
 46.67     519.00      22.78
 46.77     505.00      22.47
 46.87     517.00      22.74
 46.97     511.00      22.61
 47.07     514.21      22.68
 47.17     574.00      23.96
 47.27     497.46      22.30
 47.37     567.00      23.81
 47.47     538.00      23.19
 47.57     573.00      23.94
 47.67     536.00      23.15
 47.77     584.00      24.17
 47.87     574.62      23.97
 47.97     631.45      25.13
 48.07     590.00      24.29
 48.17     599.00      24.47
 48.27     585.00      24.19
 48.37     636.00      25.22
 48.47     569.20      23.86
 48.57     528.26      22.98
 48.67     548.00      23.41
 48.77     567.00      23.81
 48.87     546.00      23.37
 48.97     570.46      23.88
 49.07     551.00      23.47
 49.17     564.11      23.75
 49.27     593.00      24.35
 49.37     563.00      23.73
 49.47     591.00      24.31
 49.57     661.00      25.71
 49.67     671.00      25.90
 49.77     788.00      28.07
 49.87     983.00      31.35
 49.97    1231.89      35.10
 50.07    1464.00      38.26
 50.17    1931.00      43.94
 50.27    2170.00      46.58
 50.37    2439.00      49.39
 50.47    2292.94      47.88
 50.57    2093.00      45.75
 50.67    1764.00      42.00
 50.77    1411.67      37.57
 50.87    1199.39      34.63
 50.97     990.87      31.48
 51.07     892.45      29.87
 51.17     796.97      28.23
 51.27     768.46      27.72
 51.37     658.00      25.65
 51.47     658.00      25.65
 51.57     667.00      25.83
 51.67     648.00      25.46
 51.77     602.00      24.54
 51.87     612.00      24.74
 51.97     574.00      23.96
 52.07     570.00      23.87
 52.17     581.00      24.10
 52.27     571.00      23.90
 52.37     579.00      24.06
 52.47     594.00      24.37
 52.57     589.00      24.27
 52.67     587.00      24.23
 52.77     618.93      24.88
 52.87     590.00      24.29
 52.97     615.12      24.80
 53.07     720.38      26.84
 53.17     705.00      26.55
 53.27     769.59      27.74
 53.37     859.00      29.31
 53.47     939.37      30.65
 53.57    1107.00      33.27
 53.67    1159.00      34.04
 53.77    1174.00      34.26
 53.87    1259.58      35.49
 53.97    1069.56      32.70
 54.07    1060.53      32.57
 54.17     848.00      29.12
 54.27     860.00      29.33
 54.37     729.57      27.01
 54.47     675.00      25.98
 54.57     671.00      25.90
 54.67     613.00      24.76
 54.77     552.65      23.51
 54.87     618.00      24.86
 54.97     569.96      23.87
 55.07     587.00      24.23
 55.17     582.00      24.12
 55.27     580.00      24.08
 55.37     635.00      25.20
 55.47     633.00      25.16
 55.57     560.00      23.66
 55.67     623.00      24.96
 55.77     619.00      24.88
 55.87     675.20      25.98
 55.97     669.00      25.87
 56.07     687.00      26.21
 56.17     703.00      26.51
 56.27     791.57      28.13
 56.37     863.65      29.39
 56.47    1081.95      32.89
 56.57    1124.00      33.53
 56.67    1480.00      38.47
 56.77    1732.04      41.62
 56.87    2132.00      46.17
 56.97    2342.95      48.40
 57.07    2411.30      49.10
 57.17    2504.82      50.05
 57.27    2447.13      49.47
 57.37    2169.04      46.57
 57.47    1813.50      42.59
 57.57    1521.00      39.00
 57.67    1180.00      34.35
 57.77    1098.00      33.14
 57.87     889.77      29.83
 57.97     777.00      27.87
 58.07     766.76      27.69
 58.17     686.73      26.21
 58.27     702.00      26.50
 58.37     791.00      28.12
 58.47     745.00      27.29
 58.57     829.77      28.81
 58.67     862.41      29.37
 58.77     979.66      31.30
 58.87    1011.82      31.81
 58.97    1163.00      34.10
 59.07    1185.00      34.42
 59.17    1280.00      35.78
 59.27    1250.00      35.36
 59.37    1249.00      35.34
 59.47    1305.00      36.12
 59.57    1110.38      33.32
 59.67    1240.00      35.21
 59.77    1225.17      35.00
 59.87    1171.10      34.22
 59.97    1160.95      34.07
 60.07    1285.45      35.85
 60.17    1362.23      36.91
 60.27    1533.00      39.15
 60.37    1525.72      39.06
 60.47    1586.00      39.82
 60.57    1528.22      39.09
 60.67    1445.00      38.01
 60.77    1324.00      36.39
 60.87    1170.96      34.22
 60.97    1038.91      32.23
 61.07     929.00      30.48
 61.17     734.00      27.09
 61.27     746.29      27.32
 61.37     794.00      28.18
 61.47     750.00      27.39
 61.57     716.00      26.76
 61.67     787.00      28.05
 61.77     808.00      28.43
 61.87     954.78      30.90
 61.97    1005.32      31.71
 62.07    1117.01      33.42
 62.17    1250.67      35.36
 62.27    1255.00      35.43
 62.37    1366.00      36.96
 62.47    1427.73      37.79
 62.57    1318.00      36.30
 62.67    1245.25      35.29
 62.77    1172.02      34.23
 62.87     930.00      30.50
 62.97     869.00      29.48
 63.07     840.42      28.99
 63.17     700.00      26.46
 63.27     631.54      25.13
 63.37     619.00      24.88
 63.47     638.00      25.26
 63.57     648.00      25.46
 63.67     587.52      24.24
 63.77     617.36      24.85
 63.87     639.00      25.28
 63.97     631.00      25.12
 64.07     664.00      25.77
 64.17     723.28      26.89
 64.27     649.68      25.49
 64.37     838.00      28.95
 64.47     790.51      28.12
 64.57     931.00      30.51
 64.67    1011.00      31.80
 64.77    1038.00      32.22
 64.87    1099.22      33.15
 64.97    1070.95      32.73
 65.07     976.00      31.24
 65.17     962.00      31.02
 65.27     897.00      29.95
 65.37     882.90      29.71
 65.47     836.00      28.91
 65.57     777.00      27.87
 65.67     790.88      28.12
 65.77     641.00      25.32
 65.87     634.54      25.19
 65.97     655.40      25.60
 66.07     680.00      26.08
 66.17     669.16      25.87
 66.27     567.00      23.81
 66.37     651.09      25.52
 66.47     581.00      24.10
 66.57     554.00      23.54
 66.67     581.88      24.12
 66.77     600.00      24.49
 66.87     621.00      24.92
 66.97     596.00      24.41
 67.07     677.18      26.02
 67.17     654.00      25.57
 67.27     754.85      27.47
 67.37     695.00      26.36
 67.47     815.00      28.55
 67.57     970.19      31.15
 67.67    1030.45      32.10
 67.77    1336.25      36.55
 67.87    1334.00      36.52
 67.97    1727.00      41.56
 68.07    1906.00      43.66
 68.17    2074.00      45.54
 68.27    2282.00      47.77
 68.37    2367.00      48.65
 68.47    2354.00      48.52
 68.57    2280.00      47.75
 68.67    2203.00      46.94
 68.77    1736.63      41.67
 68.87    1571.00      39.64
 68.97    1318.00      36.30
 69.07    1090.00      33.02
 69.17    1029.00      32.08
 69.27     850.00      29.15
 69.37     824.90      28.72
 69.47     761.17      27.59
 69.57     632.00      25.14
 69.67     626.00      25.02
 69.77     620.00      24.90
 69.87     598.00      24.45
 69.97     660.92      25.71
 70.07     652.00      25.53
 70.17     610.22      24.70
 70.27     603.00      24.56
 70.37     588.00      24.25
 70.47     606.00      24.62
 70.57     620.03      24.90
 70.67     614.00      24.78
 70.77     588.00      24.25
 70.87     562.86      23.72
 70.97     648.00      25.46
 71.07     630.00      25.10
 71.17     649.48      25.48
 71.27     659.39      25.68
 71.37     742.00      27.24
 71.47     820.33      28.64
 71.57     893.14      29.89
 71.67    1033.00      32.14
 71.77    1175.10      34.28
 71.87    1252.06      35.38
 71.97    1475.24      38.41
 72.07    1595.00      39.94
 72.17    1737.21      41.68
 72.27    1844.00      42.94
 72.37    1924.00      43.86
 72.47    1867.00      43.21
 72.57    1652.21      40.65
 72.67    1603.00      40.04
 72.77    1480.00      38.47
 72.87    1290.00      35.92
 72.97    1061.83      32.59
 73.07     993.00      31.51
 73.17     860.16      29.33
 73.27     844.00      29.05
 73.37     802.00      28.32
 73.47     698.86      26.44
 73.57     697.00      26.40
 73.67     679.00      26.06
 73.77     624.00      24.98
 73.87     601.18      24.52
 73.97     615.00      24.80
 74.07     551.51      23.48
 74.17     586.00      24.21
 74.27     606.00      24.62
 74.37     553.56      23.53
 74.47     545.40      23.35
 74.57     547.29      23.39
 74.67     550.99      23.47
 74.77     571.71      23.91
 74.87     675.00      25.98
 74.97     688.00      26.23
 75.07     639.00      25.28
 75.17     575.46      23.99
 75.27     681.00      26.10
 75.37     594.00      24.37
 75.47     511.95      22.63
 75.57     620.00      24.90
 75.67     524.71      22.91
 75.77     580.00      24.08
 75.87     614.63      24.79
 75.97     576.75      24.02
 76.07     623.00      24.96
 76.17     556.40      23.59
 76.27     557.99      23.62
 76.37     646.00      25.42
 76.47     706.00      26.57
 76.57     693.00      26.32
 76.67     638.79      25.27
 76.77     696.00      26.38
 76.87     705.00      26.55
 76.97     726.00      26.94
 77.07     654.44      25.58
 77.17     686.00      26.19
 77.27     612.65      24.75
 77.37     651.59      25.53
 77.47     602.36      24.54
 77.57     615.00      24.80
 77.67     588.00      24.25
 77.77     546.38      23.37
 77.87     533.00      23.09
 77.97     557.00      23.60
 78.07     585.00      24.19
 78.17     497.80      22.31
 78.27     532.92      23.09
 78.37     509.00      22.56
 78.47     537.00      23.17
 78.57     519.00      22.78
 78.67     550.53      23.46
 78.77     508.00      22.54
 78.87     565.13      23.77
 78.97     519.00      22.78
 79.07     564.03      23.75
 79.17     502.00      22.41
 79.27     566.00      23.79
 79.37     556.00      23.58
 79.47     549.30      23.44
 79.57     543.45      23.31
 79.67     582.00      24.12
 79.77     568.76      23.85
 79.87     591.21      24.31
 79.97     543.35      23.31
 80.07     530.00      23.02
 80.17     504.65      22.46
 80.27     546.00      23.37
 80.37     580.00      24.08
 80.47     575.00      23.98
 80.57     587.00      24.23
 80.67     590.00      24.29
 80.77     618.71      24.87
 80.87     579.00      24.06
 80.97     669.30      25.87
 81.07     655.00      25.59
 81.17     747.98      27.35
 81.27     652.86      25.55
 81.37     680.88      26.09
 81.47     736.00      27.13
 81.57     820.78      28.65
 81.67     777.61      27.89
 81.77     718.00      26.80
 81.87     794.26      28.18
 81.97     810.02      28.46
 82.07     725.00      26.93
 82.17     809.00      28.44
 82.27     723.00      26.89
 82.37     762.01      27.60
 82.47     658.96      25.67
 82.57     672.00      25.92
 82.67     690.00      26.27
 82.77     601.75      24.53
 82.87     565.33      23.78
 82.97     588.75      24.26
 83.07     609.00      24.68
 83.17     564.00      23.75
 83.27     558.00      23.62
 83.37     569.97      23.87
 83.47     518.00      22.76
 83.57     612.87      24.76
 83.67     521.23      22.83
 83.77     616.88      24.84
 83.87     620.22      24.90
 83.97     561.00      23.69
 84.07     541.53      23.27
 84.17     571.00      23.90
 84.27     576.00      24.00
 84.37     620.86      24.92
 84.47     598.00      24.45
 84.57     528.00      22.98
 84.67     606.53      24.63
 84.77     520.00      22.80
 84.87     538.91      23.21
 84.97     537.21      23.18
 85.07     534.00      23.11
 85.17     504.00      22.45
 85.27     493.25      22.21
 85.37     549.00      23.43
 85.47     567.00      23.81
 85.57     491.68      22.17
 85.67     492.00      22.18
 85.77     552.00      23.49
 85.87     540.98      23.26
 85.97     531.00      23.04
 86.07     578.00      24.04
 86.17     522.00      22.85
 86.27     479.52      21.90
 86.37     567.00      23.81
 86.47     537.00      23.17
 86.57     554.00      23.54
 86.67     546.00      23.37
 86.77     528.00      22.98
 86.87     607.00      24.64
 86.97     569.24      23.86
 87.07     572.00      23.92
 87.17     591.00      24.31
 87.27     593.00      24.35
 87.37     612.86      24.76
 87.47     561.20      23.69
 87.57     646.08      25.42
 87.67     647.90      25.45
 87.77     623.77      24.98
 87.87     672.00      25.92
 87.97     672.00      25.92
 88.07     619.38      24.89
 88.17     572.02      23.92
 88.27     621.00      24.92
 88.37     609.00      24.68
 88.47     587.00      24.23
 88.57     588.00      24.25
 88.67     607.00      24.64
 88.77     545.71      23.36
 88.87     630.00      25.10
 88.97     589.00      24.27
 89.07     596.73      24.43
 89.17     615.40      24.81
 89.27     605.00      24.60
 89.37     619.00      24.88
 89.47     567.95      23.83
 89.57     647.00      25.44
 89.67     609.00      24.68
 89.77     660.29      25.70
 89.87     620.00      24.90
 89.97     661.42      25.72
 90.07     545.00      23.35
 90.17     594.00      24.37
 90.27     553.00      23.52
 90.37     622.30      24.95
 90.47     593.00      24.35
 90.57     501.00      22.38
 90.67     570.00      23.87
 90.77     559.00      23.64
 90.87     530.00      23.02
 90.97     527.00      22.96
 91.07     508.00      22.54
 91.17     517.63      22.75
 91.27     561.54      23.70
 91.37     564.96      23.77
 91.47     527.00      22.96
 91.57     503.64      22.44
 91.67     523.00      22.87
 91.77     544.50      23.33
 91.87     538.41      23.20
 91.97     520.00      22.80
 92.07     497.08      22.30
 92.17     522.56      22.86
 92.27     595.56      24.40
 92.37     515.00      22.69
 92.47     610.64      24.71
 92.57     595.00      24.39
 92.67     548.71      23.42
 92.77     583.80      24.16
 92.87     651.00      25.51
 92.97     648.00      25.46
 93.07     626.00      25.02
 93.17     690.00      26.27
 93.27     692.00      26.31
 93.37     740.00      27.20
 93.47     722.55      26.88
 93.57     748.00      27.35
 93.67     726.00      26.94
 93.77     760.00      27.57
 93.87     786.00      28.04
 93.97     769.00      27.73
 94.07     837.00      28.93
 94.17     807.00      28.41
 94.27     853.28      29.21
 94.37     853.00      29.21
 94.47     897.53      29.96
 94.57     823.00      28.69
 94.67     864.58      29.40
 94.77     897.00      29.95
 94.87     927.82      30.46
 94.97     967.91      31.11
 95.07     991.00      31.48
 95.17     910.00      30.17
 95.27     882.00      29.70
 95.37     964.00      31.05
 95.47     861.00      29.34
 95.57     897.00      29.95
 95.67     815.00      28.55
 95.77     837.00      28.93
 95.87     751.52      27.41
 95.97     713.00      26.70
 96.07     739.79      27.20
 96.17     718.00      26.80
 96.27     720.42      26.84
 96.37     750.00      27.39
 96.47     785.82      28.03
 96.57     735.00      27.11
 96.67     744.00      27.28
 96.77     755.34      27.48
 96.87     852.00      29.19
 96.97     912.00      30.20
 97.07     978.61      31.28
 97.17     954.00      30.89
 97.27    1051.00      32.42
 97.37    1108.50      33.29
 97.47    1163.00      34.10
 97.57    1261.00      35.51
 97.67    1327.00      36.43
 97.77    1335.00      36.54
 97.87    1396.00      37.36
 97.97    1382.83      37.19
 98.07    1434.00      37.87
 98.17    1490.53      38.61
 98.27    1489.00      38.59
 98.37    1372.00      37.04
 98.47    1277.00      35.74
 98.57    1227.00      35.03
 98.67    1226.00      35.01
 98.77    1142.00      33.79
 98.87    1046.00      32.34
 98.97    1019.00      31.92
 99.07    1028.56      32.07
 99.17     988.00      31.43
 99.27     906.12      30.10
 99.37     856.00      29.26
 99.47     896.00      29.93
 99.57     928.00      30.46
 99.67     965.00      31.06
 99.77     967.00      31.10
 99.87     997.00      31.58
 99.97    1126.92      33.57
100.07    1072.00      32.74
100.17    1286.00      35.86
100.27    1326.00      36.41
100.37    1436.00      37.89
100.47    1466.20      38.29
100.57    1648.00      40.60
100.67    1646.40      40.58
100.77    1785.00      42.25
100.87    1921.00      43.83
100.97    1943.38      44.08
101.07    1973.55      44.42
101.17    1965.23      44.33
101.27    1988.00      44.59
101.37    1965.44      44.33
101.47    1934.00      43.98
101.57    1953.00      44.19
101.67    1741.43      41.73
101.77    1767.34      42.04
101.87    1767.00      42.04
101.97    1569.00      39.61
102.07    1482.86      38.51
102.17    1446.00      38.03
102.27    1412.00      37.58
102.37    1342.23      36.64
102.47    1358.00      36.85
102.57    1271.62      35.66
102.67    1189.00      34.48
102.77    1208.00      34.76
102.87    1164.00      34.12
102.97    1200.39      34.65
103.07    1126.00      33.56
103.17    1055.00      32.48
103.27    1126.81      33.57
103.37     993.00      31.51
103.47    1029.00      32.08
103.57     977.00      31.26
103.67     909.00      30.15
103.77     904.00      30.07
103.87     839.00      28.97
103.97     849.00      29.14
104.07     850.68      29.17
104.17     763.00      27.62
104.27     774.73      27.83
104.37     748.00      27.35
104.47     762.00      27.60
104.57     586.95      24.23
104.67     672.32      25.93
104.77     665.00      25.79
104.87     626.00      25.02
104.97     624.47      24.99
105.07     621.00      24.92
105.17     574.00      23.96
105.27     639.00      25.28
105.37     564.00      23.75
105.47     625.00      25.00
105.57     612.00      24.74
105.67     542.00      23.28
105.77     586.00      24.21
105.87     571.00      23.90
105.97     507.12      22.52
106.07     571.11      23.90
106.17     528.00      22.98
106.27     581.00      24.10
106.37     574.00      23.96
106.47     550.74      23.47
106.57     546.00      23.37
106.67     570.00      23.87
106.77     594.00      24.37
106.87     655.00      25.59
106.97     645.14      25.40
107.07     592.35      24.34
107.17     669.00      25.87
107.27     640.00      25.30
107.37     663.00      25.75
107.47     715.05      26.74
107.57     714.00      26.72
107.67     745.00      27.29
107.77     688.00      26.23
107.87     687.00      26.21
107.97     692.00      26.31
108.07     683.92      26.15
108.17     700.00      26.46
108.27     736.00      27.13
108.37     684.00      26.15
108.47     688.25      26.23
108.57     679.00      26.06
108.67     673.20      25.95
108.77     698.00      26.42
108.87     690.00      26.27
108.97     675.00      25.98
109.07     683.00      26.13
109.17     653.73      25.57
109.27     715.00      26.74
109.37     726.21      26.95
109.47     706.00      26.57
109.57     742.72      27.25
109.67     715.81      26.75
109.77     739.00      27.18
109.87     716.63      26.77
109.97     711.00      26.66
110.07     683.66      26.15
110.17     663.79      25.76
110.27     653.00      25.55
110.37     689.00      26.25
110.47     631.89      25.14
110.57     643.00      25.36
110.67     588.70      24.26
110.77     586.52      24.22
110.87     638.00      25.26
110.97     615.00      24.80
111.07     601.00      24.52
111.17     544.36      23.33
111.27     593.00      24.35
111.37     525.71      22.93
111.47     579.43      24.07
111.57     546.61      23.38
111.67     554.00      23.54
111.77     538.00      23.19
111.87     557.00      23.60
111.97     509.40      22.57
112.07     580.00      24.08
112.17     573.00      23.94
112.27     549.00      23.43
112.37     576.00      24.00
112.47     512.33      22.63
112.57     563.00      23.73
112.67     646.00      25.42
112.77     547.00      23.39
112.87     599.00      24.47
112.97     635.00      25.20
113.07     588.11      24.25
113.17     612.33      24.75
113.27     589.00      24.27
113.37     552.00      23.49
113.47     570.44      23.88
113.57     636.00      25.22
113.67     648.00      25.46
113.77     670.00      25.88
113.87     649.05      25.48
113.97     686.00      26.19
114.07     719.00      26.81
114.17     737.00      27.15
114.27     743.00      27.26
114.37     747.00      27.33
114.47     827.34      28.76
114.57     845.79      29.08
114.67     920.00      30.33
114.77     991.19      31.48
114.87    1084.00      32.92
114.97    1179.73      34.35
115.07    1243.00      35.26
115.17    1396.66      37.37
115.27    1544.00      39.29
115.37    1806.00      42.50
115.47    1847.10      42.98
115.57    2191.00      46.81
115.67    2521.00      50.21
115.77    2729.00      52.24
115.87    2916.00      54.00
115.97    3362.00      57.98
116.07    3647.00      60.39
116.17    4039.00      63.55
116.27    4273.01      65.37
116.37    4747.00      68.90
116.47    5016.68      70.83
116.57    5502.10      74.18
116.67    5919.03      76.94
116.77    6186.00      78.65
116.87    6399.00      79.99
116.97    6707.19      81.90
117.07    6879.93      82.95
117.17    7026.00      83.82
117.27    7094.00      84.23
117.37    7055.00      83.99
117.47    6950.00      83.37
117.57    6672.62      81.69
117.67    6594.71      81.21
117.77    6128.37      78.28
117.87    6026.15      77.63
117.97    5537.00      74.41
118.07    5421.18      73.63
118.17    4932.00      70.23
118.27    4593.34      67.77
118.37    4230.43      65.04
118.47    3846.00      62.02
118.57    3512.73      59.27
118.67    3238.00      56.90
118.77    2803.00      52.94
118.87    2540.00      50.40
118.97    2258.00      47.52
119.07    2032.00      45.08
119.17    1851.00      43.02
119.27    1800.55      42.43
119.37    1529.00      39.10
119.47    1374.67      37.08
119.57    1306.00      36.14
119.67    1254.00      35.41
119.77    1122.00      33.50
119.87    1025.00      32.02
119.97     934.00      30.56
120.07     949.86      30.82
120.17     810.00      28.46
120.27     766.00      27.68
120.37     855.00      29.24
120.47     764.00      27.64
120.57     684.00      26.15
120.67     681.00      26.10
120.77     687.15      26.21
120.87     697.00      26.40
120.97     635.00      25.20
121.07     629.00      25.08
121.17     634.00      25.18
121.27     601.21      24.52
121.37     600.00      24.49
121.47     616.00      24.82
121.57     626.00      25.02
121.67     585.00      24.19
121.77     633.88      25.18
121.87     599.00      24.47
121.97     637.00      25.24
122.07     601.00      24.52
122.17     611.72      24.73
122.27     627.00      25.04
122.37     579.74      24.08
122.47     633.28      25.17
122.57     634.04      25.18
122.67     587.37      24.24
122.77     592.00      24.33
122.87     597.00      24.43
122.97     656.00      25.61
123.07     682.36      26.12
123.17     604.20      24.58
123.27     660.91      25.71
123.37     645.00      25.40
123.47     658.00      25.65
123.57     669.58      25.88
123.67     679.00      26.06
123.77     653.00      25.55
123.87     698.00      26.42
123.97     655.97      25.61
124.07     670.38      25.89
124.17     638.00      25.26
124.27     691.00      26.29
124.37     588.06      24.25
124.47     667.00      25.83
124.57     585.19      24.19
124.67     613.48      24.77
124.77     589.00      24.27
124.87     565.98      23.79
124.97     648.00      25.46
