  9.97     593.60      24.36
 10.07     622.00      24.94
 10.17     710.00      26.65
 10.27     675.25      25.99
 10.37     640.38      25.31
 10.47     671.81      25.92
 10.57     677.00      26.02
 10.67     672.00      25.92
 10.77     613.96      24.78
 10.87     664.75      25.78
 10.97     651.00      25.51
 11.07     694.00      26.34
 11.17     666.00      25.81
 11.27     676.00      26.00
 11.37     646.00      25.42
 11.47     736.00      27.13
 11.57     672.51      25.93
 11.67     621.13      24.92
 11.77     707.04      26.59
 11.87     698.12      26.42
 11.97     726.00      26.94
 12.07     770.00      27.75
 12.17     788.24      28.08
 12.27     793.00      28.16
 12.37     729.63      27.01
 12.47     745.00      27.29
 12.57     750.72      27.40
 12.67     678.44      26.05
 12.77     660.02      25.69
 12.87     698.89      26.44
 12.97     651.00      25.51
 13.07     650.00      25.50
 13.17     677.50      26.03
 13.27     648.00      25.46
 13.37     672.74      25.94
 13.47     597.00      24.43
 13.57     597.82      24.45
 13.67     612.00      24.74
 13.77     628.00      25.06
 13.87     622.00      24.94
 13.97     607.00      24.64
 14.07     617.00      24.84
 14.17     679.13      26.06
 14.27     660.37      25.70
 14.37     680.57      26.09
 14.47     621.00      24.92
 14.57     579.00      24.06
 14.67     634.00      25.18
 14.77     627.00      25.04
 14.87     633.36      25.17
 14.97     619.00      24.88
 15.07     617.13      24.84
 15.17     635.00      25.20
 15.27     585.21      24.19
 15.37     595.00      24.39
 15.47     608.00      24.66
 15.57     629.00      25.08
 15.67     605.00      24.60
 15.77     633.00      25.16
 15.87     655.00      25.59
 15.97     608.00      24.66
 16.07     599.76      24.49
 16.17     587.00      24.23
 16.27     603.49      24.57
 16.37     622.00      24.94
 16.47     622.41      24.95
 16.57     656.86      25.63
 16.67     642.00      25.34
 16.77     618.00      24.86
 16.87     632.00      25.14
 16.97     602.00      24.54
 17.07     581.64      24.12
 17.17     604.03      24.58
 17.27     609.00      24.68
 17.37     585.00      24.19
 17.47     602.57      24.55
 17.57     605.00      24.60
 17.67     611.00      24.72
 17.77     658.60      25.66
 17.87     593.00      24.35
 17.97     626.00      25.02
 18.07     645.00      25.40
 18.17     574.00      23.96
 18.27     583.00      24.15
 18.37     581.62      24.12
 18.47     587.00      24.23
 18.57     674.24      25.97
 18.67     609.00      24.68
 18.77     619.62      24.89
 18.87     597.09      24.44
 18.97     623.37      24.97
 19.07     608.00      24.66
 19.17     635.00      25.20
 19.27     636.00      25.22
 19.37     620.67      24.91
 19.47     602.36      24.54
 19.57     601.00      24.52
 19.67     618.00      24.86
 19.77     537.00      23.17
 19.87     610.00      24.70
 19.97     627.00      25.04
 20.07     585.00      24.19
 20.17     652.29      25.54
 20.27     634.00      25.18
 20.37     619.95      24.90
 20.47     595.00      24.39
 20.57     632.93      25.16
 20.67     587.00      24.23
 20.77     608.21      24.66
 20.87     583.00      24.15
 20.97     592.54      24.34
 21.07     612.00      24.74
 21.17     554.00      23.54
 21.27     556.00      23.58
 21.37     624.00      24.98
 21.47     600.45      24.50
 21.57     634.21      25.18
 21.67     644.84      25.39
 21.77     642.16      25.34
 21.87     594.31      24.38
 21.97     603.00      24.56
 22.07     606.00      24.62
 22.17     657.46      25.64
 22.27     593.00      24.35
 22.37     650.85      25.51
 22.47     575.00      23.98
 22.57     655.80      25.61
 22.67     635.74      25.21
 22.77     631.35      25.13
 22.87     595.00      24.39
 22.97     658.02      25.65
 23.07     641.00      25.32
 23.17     621.93      24.94
 23.27     654.00      25.57
 23.37     579.00      24.06
 23.47     562.75      23.72
 23.57     594.00      24.37
 23.67     620.00      24.90
 23.77     627.21      25.04
 23.87     590.81      24.31
 23.97     628.00      25.06
 24.07     651.00      25.51
 24.17     598.09      24.46
 24.27     647.00      25.44
 24.37     691.00      26.29
 24.47     608.00      24.66
 24.57     641.00      25.32
 24.67     713.00      26.70
 24.77     654.00      25.57
 24.87     740.59      27.21
 24.97     682.00      26.12
 25.07     682.00      26.12
 25.17     620.37      24.91
 25.27     702.00      26.50
 25.37     635.00      25.20
 25.47     656.00      25.61
 25.57     624.00      24.98
 25.67     654.78      25.59
 25.77     657.00      25.63
 25.87     650.00      25.50
 25.97     661.00      25.71
 26.07     642.00      25.34
 26.17     664.00      25.77
 26.27     578.26      24.05
 26.37     686.00      26.19
 26.47     693.00      26.32
 26.57     660.00      25.69
 26.67     665.15      25.79
 26.77     718.00      26.80
 26.87     684.00      26.15
 26.97     576.82      24.02
 27.07     626.07      25.02
 27.17     653.00      25.55
 27.27     598.70      24.47
 27.37     664.09      25.77
 27.47     728.00      26.98
 27.57     693.94      26.34
 27.67     731.00      27.04
 27.77     764.27      27.65
 27.87     860.00      29.33
 27.97    1011.50      31.80
 28.07    1347.90      36.71
 28.17    1669.00      40.85
 28.27    2189.00      46.79
 28.37    2488.00      49.88
 28.47    2351.60      48.49
 28.57    2183.00      46.72
 28.67    1687.00      41.07
 28.77    1420.00      37.68
 28.87    1588.88      39.86
 28.97    1609.77      40.12
 29.07    1709.99      41.35
 29.17    1668.00      40.84
 29.27    1458.46      38.19
 29.37    1181.56      34.37
 29.47     932.49      30.54
 29.57     813.69      28.53
 29.67     789.00      28.09
 29.77     780.00      27.93
 29.87     733.00      27.07
 29.97     633.24      25.16
 30.07     657.07      25.63
 30.17     719.00      26.81
 30.27     653.89      25.57
 30.37     585.03      24.19
 30.47     691.00      26.29
 30.57     666.00      25.81
 30.67     587.77      24.24
 30.77     601.18      24.52
 30.87     646.62      25.43
 30.97     698.00      26.42
 31.07     766.00      27.68
 31.17     741.00      27.22
 31.27     644.44      25.39
 31.37     653.00      25.55
 31.47     675.00      25.98
 31.57     664.00      25.77
 31.67     568.76      23.85
 31.77     635.00      25.20
 31.87     601.00      24.52
 31.97     624.00      24.98
 32.07     563.53      23.74
 32.17     539.02      23.22
 32.27     566.79      23.81
 32.37     630.00      25.10
 32.47     624.61      24.99
 32.57     572.00      23.92
 32.67     626.00      25.02
 32.77     614.00      24.78
 32.87     628.00      25.06
 32.97     575.68      23.99
 33.07     647.00      25.44
 33.17     587.00      24.23
 33.27     558.76      23.64
 33.37     636.00      25.22
 33.47     619.00      24.88
 33.57     633.00      25.16
 33.67     614.00      24.78
 33.77     694.00      26.34
 33.87     783.00      27.98
 33.97     904.00      30.07
 34.07    1018.00      31.91
 34.17    1159.00      34.04
 34.27    1060.00      32.56
 34.37    1050.03      32.40
 34.47     942.00      30.69
 34.57     802.87      28.33
 34.67     712.09      26.68
 34.77     653.00      25.55
 34.87     562.00      23.71
 34.97     597.00      24.43
 35.07     599.00      24.47
 35.17     636.00      25.22
 35.27     621.00      24.92
 35.37     540.01      23.24
 35.47     537.70      23.19
 35.57     615.32      24.81
 35.67     503.00      22.43
 35.77     537.84      23.19
 35.87     527.40      22.97
 35.97     590.00      24.29
 36.07     587.42      24.24
 36.17     539.00      23.22
 36.27     530.00      23.02
 36.37     568.61      23.85
 36.47     587.86      24.25
 36.57     568.73      23.85
 36.67     562.08      23.71
 36.77     549.10      23.43
 36.87     598.62      24.47
 36.97     537.00      23.17
 37.07     580.00      24.08
 37.17     537.00      23.17
 37.27     545.08      23.35
 37.37     559.00      23.64
 37.47     569.00      23.85
 37.57     545.00      23.35
 37.67     593.00      24.35
 37.77     572.00      23.92
 37.87     571.00      23.90
 37.97     611.00      24.72
 38.07     585.87      24.20
 38.17     608.13      24.66
 38.27     593.00      24.35
 38.37     580.00      24.08
 38.47     543.00      23.30
 38.57     563.17      23.73
 38.67     550.00      23.45
 38.77     518.00      22.76
 38.87     550.00      23.45
 38.97     543.00      23.30
 39.07     587.25      24.23
 39.17     570.00      23.87
 39.27     556.49      23.59
 39.37     593.43      24.36
 39.47     562.00      23.71
 39.57     586.32      24.21
 39.67     540.00      23.24
 39.77     568.00      23.83
 39.87     510.42      22.59
 39.97     554.00      23.54
 40.07     555.18      23.56
 40.17     530.93      23.04
 40.27     543.00      23.30
 40.37     508.00      22.54
 40.47     547.00      23.39
 40.57     566.54      23.80
 40.67     570.00      23.87
 40.77     541.00      23.26
 40.87     533.00      23.09
 40.97     576.35      24.01
 41.07     541.00      23.26
 41.17     587.38      24.24
 41.27     503.70      22.44
 41.37     519.00      22.78
 41.47     499.00      22.34
 41.57     531.10      23.05
 41.67     483.00      21.98
 41.77     536.00      23.15
 41.87     584.97      24.19
 41.97     552.00      23.49
 42.07     575.29      23.99
 42.17     509.00      22.56
 42.27     499.00      22.34
 42.37     580.00      24.08
 42.47     548.51      23.42
 42.57     573.01      23.94
 42.67     569.00      23.85
 42.77     666.00      25.81
 42.87     663.36      25.76
 42.97     594.00      24.37
 43.07     625.14      25.00
 43.17     596.00      24.41
 43.27     576.76      24.02
 43.37     567.00      23.81
 43.47     603.36      24.56
 43.57     546.00      23.37
 43.67     543.00      23.30
 43.77     592.00      24.33
 43.87     541.00      23.26
 43.97     573.00      23.94
 44.07     573.00      23.94
 44.17     517.77      22.75
 44.27     587.73      24.24
 44.37     582.58      24.14
 44.47     580.61      24.10
 44.57     568.11      23.84
 44.67     503.00      22.43
 44.77     584.82      24.18
 44.87     557.00      23.60
 44.97     526.90      22.95
 45.07     542.00      23.28
 45.17     566.00      23.79
 45.27     559.00      23.64
 45.37     576.00      24.00
 45.47     534.00      23.11
 45.57     557.00      23.60
 45.67     538.00      23.19
 45.77     541.00      23.26
 45.87     576.87      24.02
 45.97     524.97      22.91
 46.07     570.00      23.87
 46.17     534.00      23.11
 46.27     527.35      22.96
 46.37     565.00      23.77
 46.47     536.04      23.15
 46.57     541.00      23.26
 46.67     535.00      23.13
 46.77     513.96      22.67
 46.87     548.00      23.41
 46.97     528.00      22.98
 47.07     583.00      24.15
 47.17     525.13      22.92
 47.27     592.45      24.34
 47.37     558.00      23.62
 47.47     529.18      23.00
 47.57     576.00      24.00
 47.67     584.00      24.17
 47.77     609.00      24.68
 47.87     641.35      25.32
 47.97     605.00      24.60
 48.07     631.72      25.13
 48.17     663.00      25.75
 48.27     644.00      25.38
 48.37     643.30      25.36
 48.47     633.00      25.16
 48.57     617.00      24.84
 48.67     552.02      23.50
 48.77     597.00      24.43
 48.87     608.89      24.68
 48.97     609.63      24.69
 49.07     586.00      24.21
 49.17     587.00      24.23
 49.27     615.00      24.80
 49.37     601.06      24.52
 49.47     621.46      24.93
 49.57     640.00      25.30
 49.67     699.00      26.44
 49.77     797.12      28.23
 49.87     863.00      29.38
 49.97    1164.22      34.12
 50.07    1406.00      37.50
 50.17    1787.99      42.28
 50.27    2274.00      47.69
 50.37    2418.00      49.17
 50.47    2594.75      50.94
 50.57    2444.00      49.44
 50.67    2135.94      46.22
 50.77    1648.00      40.60
 50.87    1388.22      37.26
 50.97    1001.00      31.64
 51.07     896.77      29.95
 51.17     789.00      28.09
 51.27     729.00      27.00
 51.37     669.00      25.87
 51.47     716.94      26.78
 51.57     656.00      25.61
 51.67     671.00      25.90
 51.77     583.68      24.16
 51.87     630.57      25.11
 51.97     662.23      25.73
 52.07     648.11      25.46
 52.17     636.90      25.24
 52.27     669.00      25.87
 52.37     565.39      23.78
 52.47     628.30      25.07
 52.57     556.00      23.58
 52.67     668.00      25.85
 52.77     624.22      24.98
 52.87     619.00      24.88
 52.97     613.00      24.76
 53.07     640.00      25.30
 53.17     756.00      27.50
 53.27     817.00      28.58
 53.37     848.86      29.14
 53.47    1012.00      31.81
 53.57    1108.00      33.29
 53.67    1196.00      34.58
 53.77    1235.00      35.14
 53.87    1197.36      34.60
 53.97    1234.42      35.13
 54.07    1089.93      33.01
 54.17    1009.00      31.76
 54.27     822.00      28.67
 54.37     752.00      27.42
 54.47     720.71      26.85
 54.57     644.00      25.38
 54.67     643.00      25.36
 54.77     577.48      24.03
 54.87     640.00      25.30
 54.97     615.00      24.80
 55.07     608.00      24.66
 55.17     648.76      25.47
 55.27     611.00      24.72
 55.37     571.00      23.90
 55.47     569.01      23.85
 55.57     658.00      25.65
 55.67     609.00      24.68
 55.77     592.00      24.33
 55.87     600.00      24.49
 55.97     621.00      24.92
 56.07     673.00      25.94
 56.17     720.90      26.85
 56.27     745.00      27.29
 56.37     804.00      28.35
 56.47     899.00      29.98
 56.57    1040.00      32.25
 56.67    1298.74      36.04
 56.77    1656.00      40.69
 56.87    1993.00      44.64
 56.97    2396.00      48.95
 57.07    2425.00      49.24
 57.17    2620.00      51.19
 57.27    2393.09      48.92
 57.37    2296.00      47.92
 57.47    1966.00      44.34
 57.57    1574.00      39.67
 57.67    1411.09      37.56
 57.77    1159.72      34.05
 57.87    1011.12      31.80
 57.97     842.00      29.02
 58.07     787.36      28.06
 58.17     725.00      26.93
 58.27     779.00      27.91
 58.37     770.00      27.75
 58.47     802.00      28.32
 58.57     866.49      29.44
 58.67     859.00      29.31
 58.77     944.70      30.74
 58.87     969.90      31.14
 58.97    1068.00      32.68
 59.07    1156.20      34.00
 59.17    1259.00      35.48
 59.27    1293.00      35.96
 59.37    1188.02      34.47
 59.47    1255.00      35.43
 59.57    1248.00      35.33
 59.67    1240.79      35.22
 59.77    1201.00      34.66
 59.87    1114.00      33.38
 59.97    1199.00      34.63
 60.07    1307.00      36.15
 60.17    1343.00      36.65
 60.27    1394.11      37.34
 60.37    1489.00      38.59
 60.47    1593.29      39.92
 60.57    1539.00      39.23
 60.67    1566.00      39.57
 60.77    1435.00      37.88
 60.87    1197.38      34.60
 60.97    1084.84      32.94
 61.07    1052.00      32.43
 61.17     924.00      30.40
 61.27     816.00      28.57
 61.37     716.80      26.77
 61.47     683.50      26.14
 61.57     756.00      27.50
 61.67     766.75      27.69
 61.77     822.00      28.67
 61.87     862.00      29.36
 61.97     944.01      30.72
 62.07    1059.00      32.54
 62.17    1133.00      33.66
 62.27    1354.62      36.81
 62.37    1335.00      36.54
 62.47    1500.54      38.74
 62.57    1380.00      37.15
 62.67    1303.00      36.10
 62.77    1226.00      35.01
 62.87    1121.00      33.48
 62.97     940.00      30.66
 63.07     877.00      29.61
 63.17     770.00      27.75
 63.27     706.00      26.57
 63.37     728.67      26.99
 63.47     682.00      26.12
 63.57     637.00      25.24
 63.67     658.00      25.65
 63.77     657.00      25.63
 63.87     591.12      24.31
 63.97     684.00      26.15
 64.07     644.00      25.38
 64.17     739.00      27.18
 64.27     760.46      27.58
 64.37     795.00      28.20
 64.47     875.00      29.58
 64.57     919.00      30.31
 64.67     966.00      31.08
 64.77    1081.00      32.88
 64.87    1189.00      34.48
 64.97    1253.00      35.40
 65.07    1198.40      34.62
 65.17    1184.00      34.41
 65.27    1161.00      34.07
 65.37    1006.00      31.72
 65.47     895.00      29.92
 65.57     837.00      28.93
 65.67     831.00      28.83
 65.77     740.00      27.20
 65.87     674.00      25.96
 65.97     690.00      26.27
 66.07     631.00      25.12
 66.17     658.13      25.65
 66.27     653.00      25.55
 66.37     630.00      25.10
 66.47     595.00      24.39
 66.57     590.00      24.29
 66.67     592.00      24.33
 66.77     601.00      24.52
 66.87     663.00      25.75
 66.97     664.00      25.77
 67.07     671.00      25.90
 67.17     635.00      25.20
 67.27     710.07      26.65
 67.37     738.00      27.17
 67.47     817.97      28.60
 67.57     930.38      30.50
 67.67     918.00      30.30
 67.77    1153.43      33.96
 67.87    1386.01      37.23
 67.97    1534.00      39.17
 68.07    1792.00      42.33
 68.17    2000.00      44.72
 68.27    2310.85      48.07
 68.37    2312.00      48.08
 68.47    2353.56      48.51
 68.57    2327.00      48.24
 68.67    2229.81      47.22
 68.77    2003.00      44.75
 68.87    1729.00      41.58
 68.97    1509.00      38.85
 69.07    1377.19      37.11
 69.17    1098.00      33.14
 69.27     922.00      30.36
 69.37     892.00      29.87
 69.47     836.61      28.92
 69.57     755.00      27.48
 69.67     724.00      26.91
 69.77     711.00      26.66
 69.87     622.00      24.94
 69.97     635.00      25.20
 70.07     649.00      25.48
 70.17     637.24      25.24
 70.27     600.10      24.50
 70.37     594.00      24.37
 70.47     600.00      24.49
 70.57     605.00      24.60
 70.67     653.69      25.57
 70.77     645.00      25.40
 70.87     621.00      24.92
 70.97     613.00      24.76
 71.07     681.00      26.10
 71.17     711.89      26.68
 71.27     714.00      26.72
 71.37     773.17      27.81
 71.47     789.00      28.09
 71.57     814.00      28.53
 71.67     945.00      30.74
 71.77    1066.00      32.65
 71.87    1207.00      34.74
 71.97    1307.31      36.16
 72.07    1472.04      38.37
 72.17    1732.00      41.62
 72.27    1798.43      42.41
 72.37    1903.00      43.62
 72.47    1863.00      43.16
 72.57    1897.00      43.55
 72.67    1692.11      41.14
 72.77    1554.66      39.43
 72.87    1475.29      38.41
 72.97    1298.00      36.03
 73.07    1169.00      34.19
 73.17     927.23      30.45
 73.27     902.72      30.05
 73.37     855.10      29.24
 73.47     771.00      27.77
 73.57     723.00      26.89
 73.67     713.40      26.71
 73.77     668.00      25.85
 73.87     605.00      24.60
 73.97     640.00      25.30
 74.07     561.82      23.70
 74.17     641.00      25.32
 74.27     638.51      25.27
 74.37     637.60      25.25
 74.47     605.98      24.62
 74.57     583.64      24.16
 74.67     644.00      25.38
 74.77     658.00      25.65
 74.87     647.07      25.44
 74.97     652.36      25.54
 75.07     645.09      25.40
 75.17     658.34      25.66
 75.27     587.24      24.23
 75.37     678.00      26.04
 75.47     672.00      25.92
 75.57     556.90      23.60
 75.67     635.33      25.21
 75.77     600.88      24.51
 75.87     547.54      23.40
 75.97     621.00      24.92
 76.07     632.00      25.14
 76.17     629.82      25.10
 76.27     691.76      26.30
 76.37     609.68      24.69
 76.47     735.00      27.11
 76.57     743.00      27.26
 76.67     759.00      27.55
 76.77     716.64      26.77
 76.87     784.00      28.00
 76.97     801.00      28.30
 77.07     811.00      28.48
 77.17     805.00      28.37
 77.27     729.00      27.00
 77.37     735.00      27.11
 77.47     664.00      25.77
 77.57     719.56      26.82
 77.67     696.65      26.39
 77.77     631.00      25.12
 77.87     665.85      25.80
 77.97     626.78      25.04
 78.07     579.00      24.06
 78.17     535.22      23.13
 78.27     593.82      24.37
 78.37     560.00      23.66
 78.47     581.00      24.10
 78.57     594.00      24.37
 78.67     549.00      23.43
 78.77     552.34      23.50
 78.87     530.41      23.03
 78.97     546.09      23.37
 79.07     566.00      23.79
 79.17     585.00      24.19
 79.27     534.93      23.13
 79.37     542.00      23.28
 79.47     552.89      23.51
 79.57     587.00      24.23
 79.67     571.00      23.90
 79.77     570.00      23.87
 79.87     585.00      24.19
 79.97     568.00      23.83
 80.07     540.00      23.24
 80.17     603.34      24.56
 80.27     604.00      24.58
 80.37     583.00      24.15
 80.47     606.35      24.62
 80.57     662.37      25.74
 80.67     671.00      25.90
 80.77     635.00      25.20
 80.87     702.00      26.50
 80.97     744.00      27.28
 81.07     727.31      26.97
 81.17     758.59      27.54
 81.27     838.12      28.95
 81.37     915.00      30.25
 81.47     828.00      28.77
 81.57     866.00      29.43
 81.67     931.00      30.51
 81.77     926.65      30.44
 81.87     911.67      30.19
 81.97     942.91      30.71
 82.07     866.75      29.44
 82.17     826.00      28.74
 82.27     777.00      27.87
 82.37     839.00      28.97
 82.47     788.35      28.08
 82.57     728.00      26.98
 82.67     758.71      27.54
 82.77     678.00      26.04
 82.87     721.21      26.86
 82.97     643.00      25.36
 83.07     663.03      25.75
 83.17     590.00      24.29
 83.27     594.45      24.38
 83.37     614.00      24.78
 83.47     573.00      23.94
 83.57     556.00      23.58
 83.67     588.00      24.25
 83.77     625.00      25.00
 83.87     587.00      24.23
 83.97     544.00      23.32
 84.07     589.00      24.27
 84.17     579.00      24.06
 84.27     635.99      25.22
 84.37     592.91      24.35
 84.47     606.00      24.62
 84.57     607.00      24.64
 84.67     590.00      24.29
 84.77     634.84      25.20
 84.87     533.00      23.09
 84.97     555.02      23.56
 85.07     586.00      24.21
 85.17     581.00      24.10
 85.27     559.00      23.64
 85.37     585.00      24.19
 85.47     573.00      23.94
 85.57     521.90      22.85
 85.67     597.16      24.44
 85.77     603.00      24.56
 85.87     558.00      23.62
 85.97     563.35      23.74
 86.07     562.00      23.71
 86.17     553.00      23.52
 86.27     559.00      23.64
 86.37     542.00      23.28
 86.47     615.00      24.80
 86.57     588.00      24.25
 86.67     578.00      24.04
 86.77     578.86      24.06
 86.87     589.00      24.27
 86.97     613.00      24.76
 87.07     619.40      24.89
 87.17     637.29      25.24
 87.27     584.00      24.17
 87.37     659.00      25.67
 87.47     647.00      25.44
 87.57     655.00      25.59
 87.67     617.00      24.84
 87.77     645.26      25.40
 87.87     708.00      26.61
 87.97     647.03      25.44
 88.07     670.93      25.90
 88.17     701.21      26.48
 88.27     659.00      25.67
 88.37     627.00      25.04
 88.47     642.16      25.34
 88.57     615.00      24.80
 88.67     639.00      25.28
 88.77     587.14      24.23
 88.87     664.46      25.78
 88.97     635.41      25.21
 89.07     598.00      24.45
 89.17     610.00      24.70
 89.27     569.00      23.85
 89.37     638.00      25.26
 89.47     628.00      25.06
 89.57     648.00      25.46
 89.67     621.00      24.92
 89.77     680.00      26.08
 89.87     629.00      25.08
 89.97     637.00      25.24
 90.07     630.00      25.10
 90.17     666.00      25.81
 90.27     625.48      25.01
 90.37     594.00      24.37
 90.47     542.00      23.28
 90.57     590.00      24.29
 90.67     575.00      23.98
 90.77     572.00      23.92
 90.87     507.00      22.52
 90.97     574.00      23.96
 91.07     598.00      24.45
 91.17     529.00      23.00
 91.27     559.00      23.64
 91.37     531.06      23.04
 91.47     576.00      24.00
 91.57     532.00      23.07
 91.67     515.00      22.69
 91.77     581.37      24.11
 91.87     546.00      23.37
 91.97     540.00      23.24
 92.07     554.00      23.54
 92.17     603.72      24.57
 92.27     542.00      23.28
 92.37     618.58      24.87
 92.47     583.03      24.15
 92.57     584.00      24.17
 92.67     623.00      24.96
 92.77     644.43      25.39
 92.87     573.71      23.95
 92.97     637.00      25.24
 93.07     657.97      25.65
 93.17     666.00      25.81
 93.27     723.31      26.89
 93.37     745.22      27.30
 93.47     757.96      27.53
 93.57     754.00      27.46
 93.67     710.00      26.65
 93.77     795.63      28.21
 93.87     735.00      27.11
 93.97     814.07      28.53
 94.07     782.00      27.96
 94.17     851.00      29.17
 94.27     821.00      28.65
 94.37     919.53      30.32
 94.47     842.00      29.02
 94.57     843.91      29.05
 94.67     954.05      30.89
 94.77     914.00      30.23
 94.87     941.17      30.68
 94.97     965.86      31.08
 95.07     967.00      31.10
 95.17     963.00      31.03
 95.27     941.00      30.68
 95.37     941.00      30.68
 95.47     934.14      30.56
 95.57     911.00      30.18
 95.67     949.00      30.81
 95.77     887.00      29.78
 95.87     859.23      29.31
 95.97     814.61      28.54
 96.07     789.28      28.09
 96.17     810.00      28.46
 96.27     748.00      27.35
 96.37     699.02      26.44
 96.47     712.00      26.68
 96.57     721.89      26.87
 96.67     788.80      28.09
 96.77     834.00      28.88
 96.87     867.04      29.45
 96.97     866.00      29.43
 97.07     937.00      30.61
 97.17     937.00      30.61
 97.27     996.00      31.56
 97.37    1117.00      33.42
 97.47    1175.00      34.28
 97.57    1280.00      35.78
 97.67    1284.19      35.84
 97.77    1421.00      37.70
 97.87    1413.00      37.59
 97.97    1502.00      38.76
 98.07    1435.18      37.88
 98.17    1451.63      38.10
 98.27    1553.22      39.41
 98.37    1523.19      39.03
 98.47    1476.11      38.42
 98.57    1452.00      38.11
 98.67    1256.00      35.44
 98.77    1252.00      35.38
 98.87    1220.00      34.93
 98.97    1096.00      33.11
 99.07    1012.00      31.81
 99.17     965.00      31.06
 99.27     957.07      30.94
 99.37     976.00      31.24
 99.47    1000.71      31.63
 99.57     947.92      30.79
 99.67     936.00      30.59
 99.77     937.00      30.61
 99.87     977.00      31.26
 99.97    1003.00      31.67
100.07    1093.00      33.06
100.17    1200.13      34.64
100.27    1257.00      35.45
100.37    1271.15      35.65
100.47    1416.00      37.63
100.57    1567.10      39.59
100.67    1649.00      40.61
100.77    1748.82      41.82
100.87    1789.00      42.30
100.97    1934.00      43.98
101.07    1890.72      43.48
101.17    1968.00      44.36
101.27    2080.00      45.61
101.37    2108.24      45.92
101.47    2025.00      45.00
101.57    2046.74      45.24
101.67    1998.00      44.70
101.77    1928.56      43.92
101.87    1883.00      43.39
101.97    1755.00      41.89
102.07    1714.00      41.40
102.17    1574.00      39.67
102.27    1542.00      39.27
102.37    1502.84      38.77
102.47    1459.00      38.20
102.57    1384.24      37.21
102.67    1273.73      35.69
102.77    1245.00      35.28
102.87    1230.00      35.07
102.97    1266.90      35.59
103.07    1157.43      34.02
103.17    1120.74      33.48
103.27    1162.95      34.10
103.37    1132.00      33.65
103.47    1044.00      32.31
103.57    1004.00      31.69
103.67    1012.00      31.81
103.77     984.00      31.37
103.87     949.00      30.81
103.97     909.00      30.15
104.07     904.00      30.07
104.17     750.00      27.39
104.27     804.00      28.35
104.37     781.00      27.95
104.47     749.00      27.37
104.57     757.00      27.51
104.67     691.00      26.29
104.77     655.00      25.59
104.87     679.33      26.06
104.97     601.24      24.52
105.07     634.46      25.19
105.17     546.96      23.39
105.27     606.00      24.62
105.37     622.00      24.94
105.47     601.84      24.53
105.57     529.36      23.01
105.67     566.00      23.79
105.77     590.00      24.29
105.87     621.00      24.92
105.97     571.00      23.90
106.07     607.00      24.64
106.17     576.77      24.02
106.27     563.99      23.75
106.37     621.20      24.92
106.47     599.00      24.47
106.57     597.00      24.43
106.67     613.20      24.76
106.77     629.65      25.09
106.87     586.67      24.22
106.97     641.00      25.32
107.07     652.00      25.53
107.17     630.00      25.10
107.27     633.00      25.16
107.37     688.02      26.23
107.47     679.00      26.06
107.57     716.93      26.78
107.67     684.00      26.15
107.77     721.00      26.85
107.87     706.00      26.57
107.97     763.00      27.62
108.07     743.00      27.26
108.17     694.13      26.35
108.27     693.13      26.33
108.37     727.00      26.96
108.47     730.60      27.03
108.57     706.00      26.57
108.67     693.00      26.32
108.77     748.00      27.35
108.87     756.00      27.50
108.97     743.06      27.26
109.07     721.00      26.85
109.17     688.00      26.23
109.27     712.00      26.68
109.37     722.70      26.88
109.47     689.00      26.25
109.57     772.00      27.78
109.67     749.00      27.37
109.77     724.00      26.91
109.87     707.00      26.59
109.97     745.99      27.31
110.07     649.00      25.48
110.17     689.00      26.25
110.27     680.00      26.08
110.37     731.00      27.04
110.47     689.20      26.25
110.57     687.79      26.23
110.67     626.00      25.02
110.77     644.00      25.38
110.87     581.00      24.10
110.97     645.00      25.40
111.07     625.53      25.01
111.17     601.00      24.52
111.27     584.00      24.17
111.37     579.00      24.06
111.47     528.12      22.98
111.57     522.64      22.86
111.67     574.00      23.96
111.77     583.00      24.15
111.87     563.06      23.73
111.97     598.00      24.45
112.07     565.00      23.77
112.17     578.00      24.04
112.27     544.82      23.34
112.37     537.51      23.18
112.47     573.00      23.94
112.57     557.00      23.60
112.67     529.00      23.00
112.77     591.00      24.31
112.87     595.00      24.39
112.97     598.47      24.46
113.07     636.00      25.22
113.17     570.13      23.88
113.27     592.67      24.34
113.37     567.00      23.81
113.47     606.00      24.62
113.57     571.83      23.91
113.67     567.00      23.81
113.77     627.00      25.04
113.87     623.00      24.96
113.97     634.00      25.18
114.07     671.00      25.90
114.17     648.90      25.47
114.27     662.00      25.73
114.37     693.93      26.34
114.47     713.00      26.70
114.57     784.31      28.01
114.67     848.66      29.13
114.77     838.00      28.95
114.87     912.21      30.20
114.97    1009.99      31.78
115.07    1039.09      32.23
115.17    1251.42      35.38
115.27    1310.00      36.19
115.37    1521.00      39.00
115.47    1658.00      40.72
115.57    1846.00      42.97
115.67    2135.00      46.21
115.77    2389.00      48.88
115.87    2585.61      50.85
115.97    2847.65      53.36
116.07    3103.00      55.70
116.17    3495.39      59.12
116.27    3914.00      62.56
116.37    4274.23      65.38
116.47    4619.00      67.96
116.57    4996.74      70.69
116.67    5451.00      73.83
116.77    5572.34      74.65
116.87    5938.61      77.06
116.97    6379.00      79.87
117.07    6592.54      81.19
117.17    6858.00      82.81
117.27    6980.00      83.55
117.37    7135.92      84.47
117.47    7097.02      84.24
117.57    7267.53      85.25
117.67    7091.00      84.21
117.77    6900.00      83.07
117.87    6665.00      81.64
117.97    6096.00      78.08
118.07    5819.00      76.28
118.17    5661.00      75.24
118.27    5354.00      73.17
118.37    4987.00      70.62
118.47    4562.00      67.54
118.57    4467.00      66.84
118.67    3858.54      62.12
118.77    3649.47      60.41
118.87    3280.70      57.28
118.97    2985.00      54.64
119.07    2548.66      50.48
119.17    2364.00      48.62
119.27    2221.23      47.13
119.37    2015.43      44.89
119.47    1772.00      42.10
119.57    1533.00      39.15
119.67    1411.00      37.56
119.77    1351.00      36.76
119.87    1225.00      35.00
119.97    1060.94      32.57
120.07    1050.00      32.40
120.17     951.18      30.84
120.27     866.55      29.44
120.37     898.00      29.97
120.47     880.00      29.66
120.57     805.00      28.37
120.67     740.42      27.21
120.77     744.40      27.28
120.87     722.00      26.87
120.97     700.98      26.48
121.07     657.00      25.63
121.17     663.00      25.75
121.27     636.00      25.22
121.37     694.00      26.34
121.47     620.30      24.91
121.57     640.00      25.30
121.67     661.00      25.71
121.77     683.72      26.15
121.87     600.00      24.49
121.97     668.03      25.85
122.07     609.76      24.69
122.17     685.37      26.18
122.27     641.00      25.32
122.37     668.00      25.85
122.47     628.00      25.06
122.57     596.00      24.41
122.67     650.00      25.50
122.77     624.00      24.98
122.87     617.60      24.85
122.97     599.00      24.47
123.07     665.00      25.79
123.17     646.00      25.42
123.27     725.66      26.94
123.37     649.00      25.48
123.47     732.94      27.07
123.57     684.00      26.15
123.67     696.00      26.38
123.77     711.00      26.66
123.87     726.00      26.94
123.97     640.84      25.31
124.07     746.00      27.31
124.17     700.00      26.46
124.27     673.15      25.95
124.37     727.00      26.96
124.47     707.00      26.59
124.57     701.00      26.48
124.67     654.44      25.58
124.77     617.00      24.84
124.87     678.27      26.04
124.97     673.00      25.94
