  9.97     609.00      24.68
 10.07     573.53      23.95
 10.17     586.00      24.21
 10.27     589.00      24.27
 10.37     583.75      24.16
 10.47     596.00      24.41
 10.57     595.63      24.41
 10.67     595.00      24.39
 10.77     620.00      24.90
 10.87     582.00      24.12
 10.97     552.00      23.49
 11.07     611.00      24.72
 11.17     527.61      22.97
 11.27     572.00      23.92
 11.37     611.00      24.72
 11.47     563.00      23.73
 11.57     583.00      24.15
 11.67     601.00      24.52
 11.77     590.00      24.29
 11.87     655.00      25.59
 11.97     634.12      25.18
 12.07     673.57      25.95
 12.17     719.00      26.81
 12.27     742.43      27.25
 12.37     666.01      25.81
 12.47     675.12      25.98
 12.57     615.00      24.80
 12.67     548.00      23.41
 12.77     543.00      23.30
 12.87     588.00      24.25
 12.97     592.00      24.33
 13.07     551.63      23.49
 13.17     550.64      23.47
 13.27     548.00      23.41
 13.37     522.00      22.85
 13.47     611.14      24.72
 13.57     635.00      25.20
 13.67     538.00      23.19
 13.77     521.00      22.83
 13.87     562.54      23.72
 13.97     567.00      23.81
 14.07     540.86      23.26
 14.17     555.00      23.56
 14.27     591.00      24.31
 14.37     564.35      23.76
 14.47     556.00      23.58
 14.57     547.00      23.39
 14.67     558.21      23.63
 14.77     571.28      23.90
 14.87     563.00      23.73
 14.97     608.85      24.67
 15.07     550.90      23.47
 15.17     534.00      23.11
 15.27     555.00      23.56
 15.37     581.00      24.10
 15.47     564.00      23.75
 15.57     574.11      23.96
 15.67     545.00      23.35
 15.77     587.43      24.24
 15.87     523.48      22.88
 15.97     529.00      23.00
 16.07     552.00      23.49
 16.17     520.00      22.80
 16.27     556.00      23.58
 16.37     606.62      24.63
 16.47     544.00      23.32
 16.57     622.00      24.94
 16.67     522.00      22.85
 16.77     550.28      23.46
 16.87     583.64      24.16
 16.97     582.00      24.12
 17.07     566.00      23.79
 17.17     562.00      23.71
 17.27     550.00      23.45
 17.37     555.00      23.56
 17.47     540.00      23.24
 17.57     583.31      24.15
 17.67     577.00      24.02
 17.77     605.91      24.62
 17.87     545.00      23.35
 17.97     530.00      23.02
 18.07     573.00      23.94
 18.17     604.49      24.59
 18.27     545.27      23.35
 18.37     563.00      23.73
 18.47     557.00      23.60
 18.57     578.00      24.04
 18.67     559.00      23.64
 18.77     575.00      23.98
 18.87     595.00      24.39
 18.97     606.00      24.62
 19.07     576.08      24.00
 19.17     590.00      24.29
 19.27     545.00      23.35
 19.37     514.00      22.67
 19.47     531.81      23.06
 19.57     567.00      23.81
 19.67     544.43      23.33
 19.77     537.00      23.17
 19.87     538.00      23.19
 19.97     575.00      23.98
 20.07     545.57      23.36
 20.17     572.00      23.92
 20.27     567.00      23.81
 20.37     561.00      23.69
 20.47     541.51      23.27
 20.57     533.66      23.10
 20.67     558.00      23.62
 20.77     504.00      22.45
 20.87     510.18      22.59
 20.97     520.52      22.81
 21.07     563.00      23.73
 21.17     558.00      23.62
 21.27     559.00      23.64
 21.37     538.54      23.21
 21.47     519.09      22.78
 21.57     546.93      23.39
 21.67     497.00      22.29
 21.77     527.00      22.96
 21.87     549.57      23.44
 21.97     550.00      23.45
 22.07     560.00      23.66
 22.17     576.43      24.01
 22.27     519.32      22.79
 22.37     521.75      22.84
 22.47     562.14      23.71
 22.57     594.69      24.39
 22.67     568.96      23.85
 22.77     513.00      22.65
 22.87     552.00      23.49
 22.97     562.00      23.71
 23.07     586.76      24.22
 23.17     579.00      24.06
 23.27     542.00      23.28
 23.37     516.11      22.72
 23.47     553.00      23.52
 23.57     512.00      22.63
 23.67     559.00      23.64
 23.77     539.00      23.22
 23.87     530.04      23.02
 23.97     585.00      24.19
 24.07     515.27      22.70
 24.17     571.00      23.90
 24.27     507.78      22.53
 24.37     574.00      23.96
 24.47     605.00      24.60
 24.57     558.90      23.64
 24.67     600.88      24.51
 24.77     624.15      24.98
 24.87     636.00      25.22
 24.97     646.00      25.42
 25.07     546.09      23.37
 25.17     606.00      24.62
 25.27     570.00      23.87
 25.37     564.00      23.75
 25.47     566.00      23.79
 25.57     513.28      22.66
 25.67     572.08      23.92
 25.77     537.20      23.18
 25.87     502.55      22.42
 25.97     584.00      24.17
 26.07     550.00      23.45
 26.17     574.58      23.97
 26.27     558.00      23.62
 26.37     541.00      23.26
 26.47     563.02      23.73
 26.57     537.00      23.17
 26.67     574.60      23.97
 26.77     540.00      23.24
 26.87     570.59      23.89
 26.97     560.00      23.66
 27.07     543.00      23.30
 27.17     549.00      23.43
 27.27     555.17      23.56
 27.37     579.91      24.08
 27.47     589.00      24.27
 27.57     580.00      24.08
 27.67     529.00      23.00
 27.77     546.00      23.37
 27.87     623.12      24.96
 27.97     614.66      24.79
 28.07     812.00      28.50
 28.17     860.00      29.33
 28.27     949.68      30.82
 28.37     952.00      30.85
 28.47     808.00      28.43
 28.57     761.80      27.60
 28.67     681.00      26.10
 28.77     728.00      26.98
 28.87     794.59      28.19
 28.97     872.17      29.53
 29.07     845.00      29.07
 29.17     711.00      26.66
 29.27     659.00      25.67
 29.37     586.00      24.21
 29.47     595.10      24.39
 29.57     605.00      24.60
 29.67     622.00      24.94
 29.77     601.00      24.52
 29.87     598.00      24.45
 29.97     533.00      23.09
 30.07     536.00      23.15
 30.17     543.00      23.30
 30.27     529.64      23.01
 30.37     526.00      22.93
 30.47     541.26      23.26
 30.57     508.70      22.55
 30.67     541.00      23.26
 30.77     600.00      24.49
 30.87     596.00      24.41
 30.97     619.00      24.88
 31.07     563.71      23.74
 31.17     582.00      24.12
 31.27     578.00      24.04
 31.37     520.00      22.80
 31.47     521.40      22.83
 31.57     528.55      22.99
 31.67     539.60      23.23
 31.77     535.01      23.13
 31.87     492.89      22.20
 31.97     566.00      23.79
 32.07     500.00      22.36
 32.17     488.41      22.10
 32.27     532.00      23.07
 32.37     563.10      23.73
 32.47     563.15      23.73
 32.57     563.00      23.73
 32.67     535.40      23.14
 32.77     538.00      23.19
 32.87     569.61      23.87
 32.97     526.77      22.95
 33.07     530.00      23.02
 33.17     577.20      24.02
 33.27     562.00      23.71
 33.37     542.94      23.30
 33.47     568.22      23.84
 33.57     602.28      24.54
 33.67     646.00      25.42
 33.77     718.53      26.81
 33.87     857.28      29.28
 33.97    1005.00      31.70
 34.07    1044.00      32.31
 34.17    1017.00      31.89
 34.27     861.63      29.35
 34.37     723.84      26.90
 34.47     676.00      26.00
 34.57     563.00      23.73
 34.67     557.48      23.61
 34.77     543.00      23.30
 34.87     514.00      22.67
 34.97     531.77      23.06
 35.07     516.00      22.72
 35.17     524.00      22.89
 35.27     518.00      22.76
 35.37     502.00      22.41
 35.47     529.00      23.00
 35.57     521.52      22.84
 35.67     541.00      23.26
 35.77     490.00      22.14
 35.87     506.00      22.49
 35.97     509.00      22.56
 36.07     476.00      21.82
 36.17     505.00      22.47
 36.27     519.00      22.78
 36.37     515.00      22.69
 36.47     483.42      21.99
 36.57     467.00      21.61
 36.67     537.00      23.17
 36.77     542.28      23.29
 36.87     495.00      22.25
 36.97     497.00      22.29
 37.07     542.16      23.28
 37.17     499.00      22.34
 37.27     464.00      21.54
 37.37     484.41      22.01
 37.47     505.00      22.47
 37.57     504.20      22.45
 37.67     517.00      22.74
 37.77     518.00      22.76
 37.87     529.00      23.00
 37.97     500.00      22.36
 38.07     494.18      22.23
 38.17     481.00      21.93
 38.27     536.00      23.15
 38.37     487.20      22.07
 38.47     487.00      22.07
 38.57     477.00      21.84
 38.67     537.00      23.17
 38.77     517.08      22.74
 38.87     485.00      22.02
 38.97     473.00      21.75
 39.07     487.00      22.07
 39.17     529.22      23.00
 39.27     513.00      22.65
 39.37     538.00      23.19
 39.47     514.29      22.68
 39.57     496.00      22.27
 39.67     475.41      21.80
 39.77     499.00      22.34
 39.87     470.59      21.69
 39.97     525.10      22.92
 40.07     490.00      22.14
 40.17     518.88      22.78
 40.27     490.00      22.14
 40.37     475.00      21.79
 40.47     464.40      21.55
 40.57     513.00      22.65
 40.67     498.00      22.32
 40.77     495.00      22.25
 40.87     498.00      22.32
 40.97     491.00      22.16
 41.07     519.26      22.79
 41.17     513.00      22.65
 41.27     536.00      23.15
 41.37     486.00      22.05
 41.47     531.49      23.05
 41.57     536.00      23.15
 41.67     507.00      22.52
 41.77     507.00      22.52
 41.87     531.00      23.04
 41.97     497.04      22.29
 42.07     482.00      21.95
 42.17     499.00      22.34
 42.27     556.00      23.58
 42.37     588.82      24.27
 42.47     554.80      23.55
 42.57     627.25      25.04
 42.67     662.01      25.73
 42.77     667.72      25.84
 42.87     574.00      23.96
 42.97     540.00      23.24
 43.07     595.51      24.40
 43.17     496.00      22.27
 43.27     491.00      22.16
 43.37     521.05      22.83
 43.47     516.00      22.72
 43.57     431.00      20.76
 43.67     496.00      22.27
 43.77     459.93      21.45
 43.87     507.81      22.53
 43.97     508.00      22.54
 44.07     505.00      22.47
 44.17     468.45      21.64
 44.27     505.51      22.48
 44.37     540.12      23.24
 44.47     525.00      22.91
 44.57     489.00      22.11
 44.67     509.24      22.57
 44.77     481.26      21.94
 44.87     579.00      24.06
 44.97     463.29      21.52
 45.07     534.00      23.11
 45.17     480.23      21.91
 45.27     468.41      21.64
 45.37     475.29      21.80
 45.47     536.51      23.16
 45.57     488.00      22.09
 45.67     529.00      23.00
 45.77     505.00      22.47
 45.87     474.92      21.79
 45.97     500.00      22.36
 46.07     484.00      22.00
 46.17     557.00      23.60
 46.27     538.00      23.19
 46.37     499.00      22.34
 46.47     482.00      21.95
 46.57     498.00      22.32
 46.67     494.00      22.23
 46.77     534.00      23.11
 46.87     495.80      22.27
 46.97     525.00      22.91
 47.07     490.00      22.14
 47.17     453.00      21.28
 47.27     529.00      23.00
 47.37     557.00      23.60
 47.47     545.00      23.35
 47.57     529.70      23.02
 47.67     560.00      23.66
 47.77     568.00      23.83
 47.87     601.00      24.52
 47.97     569.91      23.87
 48.07     578.83      24.06
 48.17     536.00      23.15
 48.27     594.00      24.37
 48.37     576.00      24.00
 48.47     531.00      23.04
 48.57     559.00      23.64
 48.67     543.88      23.32
 48.77     512.00      22.63
 48.87     551.00      23.47
 48.97     549.00      23.43
 49.07     524.68      22.91
 49.17     570.29      23.88
 49.27     618.00      24.86
 49.37     649.00      25.48
 49.47     714.00      26.72
 49.57     712.00      26.68
 49.67     897.00      29.95
 49.77    1112.00      33.35
 49.87    1312.00      36.22
 49.97    1783.62      42.23
 50.07    2139.00      46.25
 50.17    2470.00      49.70
 50.27    2641.01      51.39
 50.37    2362.77      48.61
 50.47    2054.00      45.32
 50.57    1551.00      39.38
 50.67    1112.00      33.35
 50.77     872.79      29.54
 50.87     724.56      26.92
 50.97     631.05      25.12
 51.07     658.75      25.67
 51.17     585.00      24.19
 51.27     623.00      24.96
 51.37     547.17      23.39
 51.47     580.88      24.10
 51.57     596.39      24.42
 51.67     528.00      22.98
 51.77     543.00      23.30
 51.87     537.43      23.18
 51.97     563.80      23.74
 52.07     500.59      22.37
 52.17     530.00      23.02
 52.27     487.65      22.08
 52.37     549.79      23.45
 52.47     536.29      23.16
 52.57     560.00      23.66
 52.67     538.70      23.21
 52.77     538.24      23.20
 52.87     635.83      25.22
 52.97     709.00      26.63
 53.07     754.00      27.46
 53.17     936.00      30.59
 53.27    1020.00      31.94
 53.37    1102.00      33.20
 53.47    1166.00      34.15
 53.57    1227.00      35.03
 53.67    1131.00      33.63
 53.77    1041.00      32.26
 53.87     939.11      30.64
 53.97     833.12      28.86
 54.07     681.00      26.10
 54.17     598.00      24.45
 54.27     615.83      24.82
 54.37     584.00      24.17
 54.47     564.00      23.75
 54.57     561.00      23.69
 54.67     563.00      23.73
 54.77     521.34      22.83
 54.87     582.00      24.12
 54.97     555.00      23.56
 55.07     513.81      22.67
 55.17     530.00      23.02
 55.27     544.00      23.32
 55.37     563.00      23.73
 55.47     539.00      23.22
 55.57     522.17      22.85
 55.67     559.00      23.64
 55.77     588.30      24.25
 55.87     570.00      23.87
 55.97     602.00      24.54
 56.07     641.00      25.32
 56.17     698.79      26.43
 56.27     834.00      28.88
 56.37     984.00      31.37
 56.47    1240.00      35.21
 56.57    1699.00      41.22
 56.67    2015.00      44.89
 56.77    2327.00      48.24
 56.87    2599.90      50.99
 56.97    2569.00      50.69
 57.07    2478.65      49.79
 57.17    2188.00      46.78
 57.27    1748.21      41.81
 57.37    1383.50      37.20
 57.47    1134.30      33.68
 57.57     864.00      29.39
 57.67     841.00      29.00
 57.77     650.61      25.51
 57.87     661.80      25.73
 57.97     632.00      25.14
 58.07     664.00      25.77
 58.17     720.34      26.84
 58.27     779.00      27.91
 58.37     882.00      29.70
 58.47     965.00      31.06
 58.57    1118.00      33.44
 58.67    1210.00      34.79
 58.77    1417.00      37.64
 58.87    1484.00      38.52
 58.97    1586.00      39.82
 59.07    1591.00      39.89
 59.17    1635.96      40.45
 59.27    1544.00      39.29
 59.37    1344.00      36.66
 59.47    1312.00      36.22
 59.57    1203.27      34.69
 59.67    1122.00      33.50
 59.77    1152.00      33.94
 59.87    1230.00      35.07
 59.97    1243.75      35.27
 60.07    1425.00      37.75
 60.17    1526.00      39.06
 60.27    1606.60      40.08
 60.37    1521.63      39.01
 60.47    1486.00      38.55
 60.57    1214.99      34.86
 60.67    1106.00      33.26
 60.77     912.00      30.20
 60.87     775.14      27.84
 60.97     742.00      27.24
 61.07     694.02      26.34
 61.17     629.00      25.08
 61.27     583.49      24.16
 61.37     634.00      25.18
 61.47     676.00      26.00
 61.57     697.47      26.41
 61.67     797.00      28.23
 61.77     927.00      30.45
 61.87    1115.00      33.39
 61.97    1218.00      34.90
 62.07    1377.68      37.12
 62.17    1449.00      38.07
 62.27    1378.00      37.12
 62.37    1319.00      36.32
 62.47    1199.00      34.63
 62.57    1031.00      32.11
 62.67    1007.47      31.74
 62.77     781.11      27.95
 62.87     733.00      27.07
 62.97     619.02      24.88
 63.07     562.23      23.71
 63.17     549.73      23.45
 63.27     579.00      24.06
 63.37     572.36      23.92
 63.47     585.99      24.21
 63.57     577.00      24.02
 63.67     562.73      23.72
 63.77     566.00      23.79
 63.87     631.11      25.12
 63.97     646.18      25.42
 64.07     649.00      25.48
 64.17     763.10      27.62
 64.27     775.00      27.84
 64.37     877.00      29.61
 64.47     923.00      30.38
 64.57     980.10      31.31
 64.67    1012.89      31.83
 64.77     964.69      31.06
 64.87    1014.00      31.84
 64.97     959.94      30.98
 65.07     865.00      29.41
 65.17     795.00      28.20
 65.27     725.98      26.94
 65.37     701.00      26.48
 65.47     661.00      25.71
 65.57     650.00      25.50
 65.67     589.00      24.27
 65.77     581.00      24.10
 65.87     570.50      23.89
 65.97     577.00      24.02
 66.07     563.04      23.73
 66.17     532.00      23.07
 66.27     535.00      23.13
 66.37     486.00      22.05
 66.47     597.92      24.45
 66.57     527.66      22.97
 66.67     579.15      24.07
 66.77     531.97      23.06
 66.87     565.00      23.77
 66.97     551.00      23.47
 67.07     642.00      25.34
 67.17     629.80      25.10
 67.27     702.79      26.51
 67.37     879.61      29.66
 67.47     976.00      31.24
 67.57    1205.00      34.71
 67.67    1415.00      37.62
 67.77    1690.00      41.11
 67.87    1983.00      44.53
 67.97    2200.00      46.90
 68.07    2392.00      48.91
 68.17    2378.27      48.77
 68.27    2436.00      49.36
 68.37    2146.00      46.32
 68.47    1903.00      43.62
 68.57    1630.00      40.37
 68.67    1408.00      37.52
 68.77    1116.00      33.41
 68.87     944.00      30.72
 68.97     817.00      28.58
 69.07     730.26      27.02
 69.17     673.00      25.94
 69.27     655.00      25.59
 69.37     621.00      24.92
 69.47     631.00      25.12
 69.57     568.17      23.84
 69.67     572.00      23.92
 69.77     572.00      23.92
 69.87     604.00      24.58
 69.97     577.00      24.02
 70.07     548.00      23.41
 70.17     562.00      23.71
 70.27     534.00      23.11
 70.37     535.00      23.13
 70.47     520.41      22.81
 70.57     587.00      24.23
 70.67     590.00      24.29
 70.77     569.00      23.85
 70.87     597.26      24.44
 70.97     605.00      24.60
 71.07     635.00      25.20
 71.17     657.00      25.63
 71.27     743.00      27.26
 71.37     892.74      29.88
 71.47     953.00      30.87
 71.57    1186.00      34.44
 71.67    1371.00      37.03
 71.77    1592.05      39.90
 71.87    1698.00      41.21
 71.97    1839.00      42.88
 72.07    2003.00      44.75
 72.17    1843.64      42.94
 72.27    1806.49      42.50
 72.37    1731.00      41.61
 72.47    1584.00      39.80
 72.57    1369.00      37.00
 72.67    1252.21      35.39
 72.77    1187.00      34.45
 72.87    1005.00      31.70
 72.97     959.00      30.97
 73.07     967.12      31.10
 73.17     764.00      27.64
 73.27     787.95      28.07
 73.37     695.00      26.36
 73.47     689.33      26.26
 73.57     588.00      24.25
 73.67     651.36      25.52
 73.77     637.25      25.24
 73.87     598.00      24.45
 73.97     591.00      24.31
 74.07     561.00      23.69
 74.17     591.00      24.31
 74.27     566.41      23.80
 74.37     612.00      24.74
 74.47     600.00      24.49
 74.57     624.00      24.98
 74.67     527.95      22.98
 74.77     570.16      23.88
 74.87     610.49      24.71
 74.97     582.00      24.12
 75.07     604.00      24.58
 75.17     565.00      23.77
 75.27     575.00      23.98
 75.37     585.67      24.20
 75.47     536.84      23.17
 75.57     532.00      23.07
 75.67     556.32      23.59
 75.77     553.00      23.52
 75.87     586.00      24.21
 75.97     623.00      24.96
 76.07     641.74      25.33
 76.17     656.68      25.63
 76.27     706.00      26.57
 76.37     710.00      26.65
 76.47     741.04      27.22
 76.57     669.00      25.87
 76.67     739.00      27.18
 76.77     634.00      25.18
 76.87     638.00      25.26
 76.97     694.00      26.34
 77.07     588.11      24.25
 77.17     621.28      24.93
 77.27     595.00      24.39
 77.37     527.00      22.96
 77.47     519.58      22.79
 77.57     536.00      23.15
 77.67     521.00      22.83
 77.77     535.00      23.13
 77.87     539.28      23.22
 77.97     503.58      22.44
 78.07     521.22      22.83
 78.17     516.26      22.72
 78.27     549.21      23.44
 78.37     521.46      22.84
 78.47     482.52      21.97
 78.57     520.98      22.82
 78.67     515.00      22.69
 78.77     566.70      23.81
 78.87     511.00      22.61
 78.97     560.67      23.68
 79.07     497.04      22.29
 79.17     481.00      21.93
 79.27     491.27      22.16
 79.37     472.00      21.73
 79.47     551.00      23.47
 79.57     561.00      23.69
 79.67     509.00      22.56
 79.77     486.00      22.05
 79.87     573.28      23.94
 79.97     529.00      23.00
 80.07     529.00      23.00
 80.17     553.00      23.52
 80.27     554.00      23.54
 80.37     594.00      24.37
 80.47     550.39      23.46
 80.57     599.00      24.47
 80.67     631.17      25.12
 80.77     617.00      24.84
 80.87     703.00      26.51
 80.97     705.00      26.55
 81.07     655.16      25.60
 81.17     741.27      27.23
 81.27     740.00      27.20
 81.37     746.55      27.32
 81.47     716.03      26.76
 81.57     793.00      28.16
 81.67     742.00      27.24
 81.77     734.00      27.09
 81.87     745.06      27.30
 81.97     710.00      26.65
 82.07     699.00      26.44
 82.17     661.63      25.72
 82.27     651.41      25.52
 82.37     650.00      25.50
 82.47     584.00      24.17
 82.57     570.74      23.89
 82.67     570.00      23.87
 82.77     539.00      23.22
 82.87     549.00      23.43
 82.97     557.00      23.60
 83.07     588.31      24.26
 83.17     556.00      23.58
 83.27     513.37      22.66
 83.37     535.00      23.13
 83.47     560.69      23.68
 83.57     550.00      23.45
 83.67     543.63      23.32
 83.77     560.19      23.67
 83.87     572.00      23.92
 83.97     620.15      24.90
 84.07     610.92      24.72
 84.17     548.95      23.43
 84.27     597.00      24.43
 84.37     551.00      23.47
 84.47     547.00      23.39
 84.57     502.00      22.41
 84.67     540.20      23.24
 84.77     557.00      23.60
 84.87     532.00      23.07
 84.97     557.25      23.61
 85.07     498.00      22.32
 85.17     552.42      23.50
 85.27     554.00      23.54
 85.37     564.98      23.77
 85.47     498.00      22.32
 85.57     544.00      23.32
 85.67     555.32      23.57
 85.77     485.00      22.02
 85.87     487.95      22.09
 85.97     507.51      22.53
 86.07     534.00      23.11
 86.17     508.00      22.54
 86.27     534.59      23.12
 86.37     522.00      22.85
 86.47     554.00      23.54
 86.57     606.00      24.62
 86.67     582.01      24.12
 86.77     558.00      23.62
 86.87     558.00      23.62
 86.97     563.81      23.74
 87.07     560.00      23.66
 87.17     632.00      25.14
 87.27     633.00      25.16
 87.37     572.46      23.93
 87.47     604.52      24.59
 87.57     675.00      25.98
 87.67     619.00      24.88
 87.77     654.00      25.57
 87.87     610.00      24.70
 87.97     578.08      24.04
 88.07     556.00      23.58
 88.17     626.01      25.02
 88.27     619.65      24.89
 88.37     564.00      23.75
 88.47     576.07      24.00
 88.57     604.00      24.58
 88.67     528.88      23.00
 88.77     583.00      24.15
 88.87     597.00      24.43
 88.97     613.61      24.77
 89.07     589.00      24.27
 89.17     567.00      23.81
 89.27     610.18      24.70
 89.37     649.00      25.48
 89.47     624.27      24.99
 89.57     575.00      23.98
 89.67     556.00      23.58
 89.77     547.35      23.40
 89.87     622.75      24.96
 89.97     545.65      23.36
 90.07     557.00      23.60
 90.17     536.00      23.15
 90.27     527.00      22.96
 90.37     547.00      23.39
 90.47     559.49      23.65
 90.57     562.17      23.71
 90.67     547.04      23.39
 90.77     539.66      23.23
 90.87     524.00      22.89
 90.97     518.00      22.76
 91.07     548.00      23.41
 91.17     502.00      22.41
 91.27     497.00      22.29
 91.37     566.01      23.79
 91.47     486.00      22.05
 91.57     495.00      22.25
 91.67     500.00      22.36
 91.77     552.92      23.51
 91.87     529.00      23.00
 91.97     554.00      23.54
 92.07     524.00      22.89
 92.17     546.44      23.38
 92.27     595.00      24.39
 92.37     539.00      23.22
 92.47     606.42      24.63
 92.57     633.00      25.16
 92.67     639.00      25.28
 92.77     693.28      26.33
 92.87     646.08      25.42
 92.97     756.68      27.51
 93.07     782.08      27.97
 93.17     780.17      27.93
 93.27     802.69      28.33
 93.37     786.93      28.05
 93.47     847.09      29.10
 93.57     902.00      30.03
 93.67     783.00      27.98
 93.77     782.00      27.96
 93.87     816.62      28.58
 93.97     866.00      29.43
 94.07     834.31      28.88
 94.17     865.00      29.41
 94.27     859.13      29.31
 94.37     866.00      29.43
 94.47     893.00      29.88
 94.57     894.92      29.92
 94.67     940.00      30.66
 94.77     927.69      30.46
 94.87     952.91      30.87
 94.97     915.00      30.25
 95.07     903.00      30.05
 95.17     889.90      29.83
 95.27     871.00      29.51
 95.37     818.32      28.61
 95.47     786.00      28.04
 95.57     737.00      27.15
 95.67     753.00      27.44
 95.77     690.80      26.28
 95.87     674.16      25.96
 95.97     634.05      25.18
 96.07     696.00      26.38
 96.17     694.07      26.35
 96.27     666.00      25.81
 96.37     691.00      26.29
 96.47     830.00      28.81
 96.57     843.00      29.03
 96.67     909.00      30.15
 96.77     942.15      30.69
 96.87    1054.49      32.47
 96.97    1145.00      33.84
 97.07    1118.49      33.44
 97.17    1241.00      35.23
 97.27    1274.32      35.70
 97.37    1419.00      37.67
 97.47    1401.00      37.43
 97.57    1452.37      38.11
 97.67    1496.30      38.68
 97.77    1410.29      37.55
 97.87    1314.53      36.26
 97.97    1419.00      37.67
 98.07    1250.00      35.36
 98.17    1187.14      34.45
 98.27    1167.00      34.16
 98.37    1150.00      33.91
 98.47    1046.00      32.34
 98.57     974.67      31.22
 98.67     819.00      28.62
 98.77     790.97      28.12
 98.87     823.10      28.69
 98.97     806.00      28.39
 99.07     817.03      28.58
 99.17     868.42      29.47
 99.27     891.34      29.86
 99.37     931.00      30.51
 99.47     907.00      30.12
 99.57    1085.00      32.94
 99.67    1134.00      33.67
 99.77    1226.00      35.01
 99.87    1293.00      35.96
 99.97    1465.01      38.28
100.07    1520.64      39.00
100.17    1694.00      41.16
100.27    1874.00      43.29
100.37    1846.00      42.97
100.47    1965.53      44.33
100.57    1985.00      44.55
100.67    2152.29      46.39
100.77    2122.43      46.07
100.87    2106.00      45.89
100.97    2061.92      45.41
101.07    2035.00      45.11
101.17    1983.00      44.53
101.27    1894.00      43.52
101.37    1742.22      41.74
101.47    1663.00      40.78
101.57    1655.54      40.69
101.67    1494.00      38.65
101.77    1455.05      38.15
101.87    1428.24      37.79
101.97    1266.00      35.58
102.07    1277.00      35.74
102.17    1197.00      34.60
102.27    1171.00      34.22
102.37    1122.00      33.50
102.47    1110.00      33.32
102.57    1077.00      32.82
102.67    1025.00      32.02
102.77    1054.87      32.48
102.87    1063.00      32.60
102.97     962.00      31.02
103.07     957.00      30.94
103.17     891.00      29.85
103.27     910.00      30.17
103.37     808.00      28.43
103.47     834.00      28.88
103.57     811.00      28.48
103.67     716.00      26.76
103.77     678.45      26.05
103.87     672.22      25.93
103.97     644.47      25.39
104.07     562.26      23.71
104.17     628.00      25.06
104.27     541.00      23.26
104.37     625.00      25.00
104.47     591.27      24.32
104.57     544.00      23.32
104.67     552.00      23.49
104.77     563.00      23.73
104.87     518.00      22.76
104.97     531.00      23.04
105.07     509.68      22.58
105.17     519.00      22.78
105.27     554.00      23.54
105.37     525.00      22.91
105.47     569.77      23.87
105.57     504.00      22.45
105.67     503.06      22.43
105.77     504.00      22.45
105.87     565.00      23.77
105.97     526.00      22.93
106.07     550.00      23.45
106.17     589.00      24.27
106.27     577.00      24.02
106.37     601.00      24.52
106.47     573.00      23.94
106.57     577.00      24.02
106.67     607.45      24.65
106.77     646.00      25.42
106.87     648.00      25.46
106.97     624.00      24.98
107.07     713.28      26.71
107.17     649.00      25.48
107.27     621.00      24.92
107.37     723.47      26.90
107.47     705.00      26.55
107.57     710.00      26.65
107.67     668.00      25.85
107.77     728.00      26.98
107.87     684.00      26.15
107.97     696.95      26.40
108.07     658.00      25.65
108.17     734.90      27.11
108.27     610.00      24.70
108.37     677.00      26.02
108.47     659.00      25.67
108.57     667.00      25.83
108.67     675.00      25.98
108.77     691.00      26.29
108.87     729.52      27.01
108.97     722.64      26.88
109.07     713.49      26.71
109.17     643.00      25.36
109.27     621.40      24.93
109.37     622.00      24.94
109.47     646.00      25.42
109.57     640.00      25.30
109.67     676.00      26.00
109.77     594.00      24.37
109.87     581.00      24.10
109.97     591.85      24.33
110.07     623.35      24.97
110.17     542.88      23.30
110.27     549.01      23.43
110.37     596.00      24.41
110.47     524.00      22.89
110.57     558.00      23.62
110.67     521.00      22.83
110.77     547.00      23.39
110.87     583.00      24.15
110.97     505.00      22.47
111.07     526.00      22.93
111.17     508.00      22.54
111.27     531.00      23.04
111.37     525.00      22.91
111.47     528.00      22.98
111.57     525.00      22.91
111.67     542.00      23.28
111.77     561.00      23.69
111.87     573.98      23.96
111.97     520.00      22.80
112.07     527.26      22.96
112.17     541.24      23.26
112.27     588.00      24.25
112.37     581.00      24.10
112.47     572.00      23.92
112.57     607.94      24.66
112.67     636.00      25.22
112.77     596.00      24.41
112.87     653.00      25.55
112.97     644.00      25.38
113.07     652.00      25.53
113.17     687.00      26.21
113.27     681.95      26.11
113.37     724.00      26.91
113.47     739.58      27.20
113.57     799.00      28.27
113.67     863.00      29.38
113.77     890.00      29.83
113.87     920.82      30.34
113.97     931.00      30.51
114.07    1046.00      32.34
114.17    1033.10      32.14
114.27    1184.00      34.41
114.37    1276.88      35.73
114.47    1376.10      37.10
114.57    1362.00      36.91
114.67    1537.23      39.21
114.77    1657.00      40.71
114.87    1788.00      42.28
114.97    2118.00      46.02
115.07    2240.00      47.33
115.17    2534.00      50.34
115.27    2696.00      51.92
115.37    2949.63      54.31
115.47    3214.43      56.70
115.57    3524.14      59.36
115.67    3888.00      62.35
115.77    4227.00      65.02
115.87    4777.40      69.12
115.97    4968.00      70.48
116.07    5373.98      73.31
116.17    5774.64      75.99
116.27    6226.00      78.91
116.37    6523.00      80.77
116.47    6874.00      82.91
116.57    7051.00      83.97
116.67    7008.00      83.71
116.77    7145.00      84.53
116.87    7100.84      84.27
116.97    6943.00      83.32
117.07    6723.00      81.99
117.17    6453.00      80.33
117.27    6048.39      77.77
117.37    5868.93      76.61
117.47    5329.00      73.00
117.57    4966.00      70.47
117.67    4758.00      68.98
117.77    4500.00      67.08
117.87    4032.00      63.50
117.97    3423.85      58.51
118.07    3163.00      56.24
118.17    2914.00      53.98
118.27    2441.00      49.41
118.37    2188.00      46.78
118.47    1928.00      43.91
118.57    1722.12      41.50
118.67    1577.17      39.71
118.77    1367.00      36.97
118.87    1192.00      34.53
118.97    1166.00      34.15
119.07    1077.62      32.83
119.17     878.00      29.63
119.27     836.00      28.91
119.37     822.76      28.68
119.47     743.00      27.26
119.57     698.00      26.42
119.67     646.16      25.42
119.77     703.71      26.53
119.87     652.55      25.55
119.97     607.07      24.64
120.07     578.00      24.04
120.17     604.80      24.59
120.27     554.80      23.55
120.37     577.00      24.02
120.47     521.00      22.83
120.57     535.00      23.13
120.67     562.21      23.71
120.77     524.89      22.91
120.87     558.00      23.62
120.97     565.85      23.79
121.07     563.00      23.73
121.17     554.00      23.54
121.27     587.00      24.23
121.37     570.00      23.87
121.47     574.00      23.96
121.57     545.00      23.35
121.67     584.00      24.17
121.77     556.24      23.58
121.87     604.34      24.58
121.97     600.68      24.51
122.07     590.00      24.29
122.17     565.79      23.79
122.27     626.00      25.02
122.37     622.00      24.94
122.47     627.00      25.04
122.57     642.00      25.34
122.67     593.00      24.35
122.77     628.00      25.06
122.87     649.00      25.48
122.97     666.00      25.81
123.07     683.03      26.13
123.17     668.38      25.85
123.27     658.03      25.65
123.37     690.00      26.27
123.47     654.55      25.58
123.57     654.27      25.58
123.67     624.00      24.98
123.77     595.78      24.41
123.87     615.00      24.80
123.97     582.76      24.14
124.07     613.00      24.76
124.17     632.00      25.14
124.27     594.65      24.39
124.37     632.11      25.14
124.47     570.00      23.87
124.57     616.00      24.82
124.67     588.00      24.25
124.77     582.00      24.12
124.87     526.19      22.94
124.97     590.00      24.29
