  9.97     649.00      25.48
 10.07     541.46      23.27
 10.17     557.52      23.61
 10.27     589.00      24.27
 10.37     582.84      24.14
 10.47     616.52      24.83
 10.57     609.24      24.68
 10.67     579.81      24.08
 10.77     596.93      24.43
 10.87     584.76      24.18
 10.97     527.00      22.96
 11.07     617.17      24.84
 11.17     581.00      24.10
 11.27     533.73      23.10
 11.37     626.00      25.02
 11.47     609.62      24.69
 11.57     587.53      24.24
 11.67     609.28      24.68
 11.77     580.72      24.10
 11.87     629.00      25.08
 11.97     665.00      25.79
 12.07     650.00      25.50
 12.17     682.00      26.12
 12.27     702.00      26.50
 12.37     634.00      25.18
 12.47     640.00      25.30
 12.57     622.59      24.95
 12.67     584.97      24.19
 12.77     616.17      24.82
 12.87     565.00      23.77
 12.97     596.00      24.41
 13.07     596.00      24.41
 13.17     552.00      23.49
 13.27     515.00      22.69
 13.37     534.00      23.11
 13.47     593.00      24.35
 13.57     565.00      23.77
 13.67     540.85      23.26
 13.77     556.89      23.60
 13.87     509.00      22.56
 13.97     589.00      24.27
 14.07     543.00      23.30
 14.17     577.00      24.02
 14.27     545.00      23.35
 14.37     575.00      23.98
 14.47     591.53      24.32
 14.57     536.00      23.15
 14.67     587.00      24.23
 14.77     612.53      24.75
 14.87     585.00      24.19
 14.97     567.00      23.81
 15.07     556.00      23.58
 15.17     577.94      24.04
 15.27     593.00      24.35
 15.37     546.00      23.37
 15.47     554.48      23.55
 15.57     592.00      24.33
 15.67     582.00      24.12
 15.77     536.00      23.15
 15.87     552.00      23.49
 15.97     532.00      23.07
 16.07     579.00      24.06
 16.17     566.00      23.79
 16.27     606.00      24.62
 16.37     587.15      24.23
 16.47     580.74      24.10
 16.57     597.62      24.45
 16.67     591.00      24.31
 16.77     561.94      23.71
 16.87     550.00      23.45
 16.97     528.13      22.98
 17.07     580.50      24.09
 17.17     548.00      23.41
 17.27     592.00      24.33
 17.37     564.00      23.75
 17.47     591.00      24.31
 17.57     575.00      23.98
 17.67     590.25      24.30
 17.77     535.00      23.13
 17.87     561.00      23.69
 17.97     560.86      23.68
 18.07     560.00      23.66
 18.17     562.00      23.71
 18.27     528.00      22.98
 18.37     598.35      24.46
 18.47     599.00      24.47
 18.57     604.00      24.58
 18.67     542.56      23.29
 18.77     558.00      23.62
 18.87     577.00      24.02
 18.97     546.20      23.37
 19.07     561.00      23.69
 19.17     553.99      23.54
 19.27     562.00      23.71
 19.37     548.00      23.41
 19.47     568.05      23.83
 19.57     587.18      24.23
 19.67     509.00      22.56
 19.77     561.00      23.69
 19.87     566.20      23.79
 19.97     545.63      23.36
 20.07     514.00      22.67
 20.17     537.76      23.19
 20.27     535.00      23.13
 20.37     573.07      23.94
 20.47     588.76      24.26
 20.57     522.00      22.85
 20.67     560.00      23.66
 20.77     550.00      23.45
 20.87     592.00      24.33
 20.97     561.00      23.69
 21.07     554.00      23.54
 21.17     582.00      24.12
 21.27     539.00      23.22
 21.37     531.00      23.04
 21.47     529.73      23.02
 21.57     528.25      22.98
 21.67     620.00      24.90
 21.77     592.04      24.33
 21.87     592.99      24.35
 21.97     517.99      22.76
 22.07     562.23      23.71
 22.17     544.00      23.32
 22.27     581.00      24.10
 22.37     542.62      23.29
 22.47     573.43      23.95
 22.57     549.00      23.43
 22.67     512.65      22.64
 22.77     577.72      24.04
 22.87     554.76      23.55
 22.97     538.00      23.19
 23.07     545.00      23.35
 23.17     534.00      23.11
 23.27     565.00      23.77
 23.37     513.69      22.66
 23.47     544.68      23.34
 23.57     570.00      23.87
 23.67     530.00      23.02
 23.77     561.48      23.70
 23.87     600.00      24.49
 23.97     527.65      22.97
 24.07     588.00      24.25
 24.17     558.00      23.62
 24.27     547.99      23.41
 24.37     536.00      23.15
 24.47     559.00      23.64
 24.57     558.00      23.62
 24.67     633.00      25.16
 24.77     602.00      24.54
 24.87     644.23      25.38
 24.97     626.00      25.02
 25.07     592.00      24.33
 25.17     584.90      24.18
 25.27     525.36      22.92
 25.37     531.00      23.04
 25.47     530.65      23.04
 25.57     535.86      23.15
 25.67     544.00      23.32
 25.77     526.00      22.93
 25.87     564.00      23.75
 25.97     561.00      23.69
 26.07     534.00      23.11
 26.17     600.00      24.49
 26.27     580.00      24.08
 26.37     582.00      24.12
 26.47     521.85      22.84
 26.57     571.00      23.90
 26.67     574.00      23.96
 26.77     539.00      23.22
 26.87     520.93      22.82
 26.97     539.00      23.22
 27.07     573.00      23.94
 27.17     527.00      22.96
 27.27     532.86      23.08
 27.37     573.53      23.95
 27.47     520.42      22.81
 27.57     579.00      24.06
 27.67     544.00      23.32
 27.77     554.00      23.54
 27.87     625.00      25.00
 27.97     689.00      26.25
 28.07     797.86      28.25
 28.17     888.21      29.80
 28.27     983.00      31.35
 28.37     880.57      29.67
 28.47     788.81      28.09
 28.57     681.73      26.11
 28.67     672.00      25.92
 28.77     720.00      26.83
 28.87     771.00      27.77
 28.97     834.85      28.89
 29.07     752.00      27.42
 29.17     744.73      27.29
 29.27     634.00      25.18
 29.37     564.73      23.76
 29.47     640.00      25.30
 29.57     579.00      24.06
 29.67     581.00      24.10
 29.77     580.00      24.08
 29.87     581.00      24.10
 29.97     620.00      24.90
 30.07     608.00      24.66
 30.17     583.00      24.15
 30.27     514.58      22.68
 30.37     523.82      22.89
 30.47     530.00      23.02
 30.57     558.00      23.62
 30.67     589.67      24.28
 30.77     627.45      25.05
 30.87     628.00      25.06
 30.97     617.99      24.86
 31.07     627.88      25.06
 31.17     587.00      24.23
 31.27     603.39      24.56
 31.37     540.00      23.24
 31.47     526.00      22.93
 31.57     503.16      22.43
 31.67     527.00      22.96
 31.77     544.67      23.34
 31.87     525.00      22.91
 31.97     555.00      23.56
 32.07     528.00      22.98
 32.17     570.00      23.87
 32.27     540.00      23.24
 32.37     563.00      23.73
 32.47     518.14      22.76
 32.57     485.00      22.02
 32.67     499.00      22.34
 32.77     552.00      23.49
 32.87     526.33      22.94
 32.97     563.18      23.73
 33.07     533.00      23.09
 33.17     493.20      22.21
 33.27     590.00      24.29
 33.37     581.68      24.12
 33.47     566.00      23.79
 33.57     613.22      24.76
 33.67     634.00      25.18
 33.77     749.00      27.37
 33.87     877.00      29.61
 33.97     990.00      31.46
 34.07    1066.00      32.65
 34.17     991.00      31.48
 34.27     876.00      29.60
 34.37     750.61      27.40
 34.47     670.00      25.88
 34.57     600.00      24.49
 34.67     587.00      24.23
 34.77     586.32      24.21
 34.87     552.00      23.49
 34.97     521.00      22.83
 35.07     491.66      22.17
 35.17     519.00      22.78
 35.27     526.98      22.96
 35.37     549.00      23.43
 35.47     544.85      23.34
 35.57     512.00      22.63
 35.67     483.00      21.98
 35.77     521.00      22.83
 35.87     529.00      23.00
 35.97     493.01      22.20
 36.07     542.00      23.28
 36.17     535.00      23.13
 36.27     515.88      22.71
 36.37     521.00      22.83
 36.47     512.00      22.63
 36.57     496.00      22.27
 36.67     511.00      22.61
 36.77     543.00      23.30
 36.87     544.35      23.33
 36.97     501.35      22.39
 37.07     538.16      23.20
 37.17     556.21      23.58
 37.27     495.00      22.25
 37.37     532.36      23.07
 37.47     519.00      22.78
 37.57     524.00      22.89
 37.67     468.00      21.63
 37.77     524.00      22.89
 37.87     521.00      22.83
 37.97     495.10      22.25
 38.07     523.14      22.87
 38.17     527.37      22.96
 38.27     526.53      22.95
 38.37     473.26      21.75
 38.47     516.41      22.72
 38.57     500.30      22.37
 38.67     519.97      22.80
 38.77     545.21      23.35
 38.87     528.08      22.98
 38.97     532.00      23.07
 39.07     513.59      22.66
 39.17     557.00      23.60
 39.27     476.32      21.82
 39.37     544.58      23.34
 39.47     514.00      22.67
 39.57     514.00      22.67
 39.67     525.00      22.91
 39.77     508.00      22.54
 39.87     484.00      22.00
 39.97     534.65      23.12
 40.07     494.00      22.23
 40.17     529.88      23.02
 40.27     546.23      23.37
 40.37     519.00      22.78
 40.47     523.00      22.87
 40.57     497.00      22.29
 40.67     486.00      22.05
 40.77     536.86      23.17
 40.87     541.08      23.26
 40.97     509.00      22.56
 41.07     492.00      22.18
 41.17     519.00      22.78
 41.27     483.00      21.98
 41.37     547.85      23.41
 41.47     516.00      22.72
 41.57     493.00      22.20
 41.67     543.00      23.30
 41.77     509.45      22.57
 41.87     490.00      22.14
 41.97     528.09      22.98
 42.07     489.00      22.11
 42.17     528.00      22.98
 42.27     566.43      23.80
 42.37     503.00      22.43
 42.47     596.01      24.41
 42.57     622.00      24.94
 42.67     617.00      24.84
 42.77     600.39      24.50
 42.87     539.00      23.22
 42.97     532.93      23.09
 43.07     546.00      23.37
 43.17     558.00      23.62
 43.27     492.58      22.19
 43.37     503.18      22.43
 43.47     556.00      23.58
 43.57     488.00      22.09
 43.67     494.00      22.23
 43.77     501.00      22.38
 43.87     537.54      23.18
 43.97     540.00      23.24
 44.07     531.48      23.05
 44.17     499.00      22.34
 44.27     519.00      22.78
 44.37     548.23      23.41
 44.47     486.00      22.05
 44.57     504.87      22.47
 44.67     508.00      22.54
 44.77     499.16      22.34
 44.87     504.00      22.45
 44.97     469.36      21.66
 45.07     546.17      23.37
 45.17     488.00      22.09
 45.27     543.46      23.31
 45.37     502.00      22.41
 45.47     533.21      23.09
 45.57     501.17      22.39
 45.67     511.00      22.61
 45.77     509.00      22.56
 45.87     537.75      23.19
 45.97     530.00      23.02
 46.07     488.01      22.09
 46.17     503.00      22.43
 46.27     528.00      22.98
 46.37     515.00      22.69
 46.47     488.00      22.09
 46.57     536.51      23.16
 46.67     493.00      22.20
 46.77     534.00      23.11
 46.87     550.24      23.46
 46.97     516.00      22.72
 47.07     499.00      22.34
 47.17     544.00      23.32
 47.27     484.38      22.01
 47.37     521.84      22.84
 47.47     510.00      22.58
 47.57     562.00      23.71
 47.67     565.52      23.78
 47.77     623.00      24.96
 47.87     595.00      24.39
 47.97     619.86      24.90
 48.07     580.00      24.08
 48.17     552.00      23.49
 48.27     575.00      23.98
 48.37     496.82      22.29
 48.47     530.00      23.02
 48.57     533.00      23.09
 48.67     516.00      22.72
 48.77     537.00      23.17
 48.87     540.00      23.24
 48.97     552.00      23.49
 49.07     585.12      24.19
 49.17     598.71      24.47
 49.27     652.15      25.54
 49.37     689.00      26.25
 49.47     712.00      26.68
 49.57     784.00      28.00
 49.67     918.00      30.30
 49.77    1215.00      34.86
 49.87    1428.00      37.79
 49.97    1836.00      42.85
 50.07    2242.50      47.36
 50.17    2551.34      50.51
 50.27    2494.09      49.94
 50.37    2284.00      47.79
 50.47    1815.09      42.60
 50.57    1446.22      38.03
 50.67    1045.00      32.33
 50.77     751.00      27.40
 50.87     717.00      26.78
 50.97     641.00      25.32
 51.07     670.00      25.88
 51.17     575.00      23.98
 51.27     626.90      25.04
 51.37     574.00      23.96
 51.47     600.27      24.50
 51.57     576.00      24.00
 51.67     552.00      23.49
 51.77     569.00      23.85
 51.87     578.72      24.06
 51.97     563.00      23.73
 52.07     560.00      23.66
 52.17     514.42      22.68
 52.27     507.12      22.52
 52.37     576.35      24.01
 52.47     523.00      22.87
 52.57     560.00      23.66
 52.67     596.00      24.41
 52.77     585.00      24.19
 52.87     603.35      24.56
 52.97     666.78      25.82
 53.07     840.00      28.98
 53.17     923.00      30.38
 53.27    1006.00      31.72
 53.37    1096.06      33.11
 53.47    1218.33      34.90
 53.57    1138.92      33.75
 53.67    1132.44      33.65
 53.77     997.00      31.58
 53.87     904.00      30.07
 53.97     786.06      28.04
 54.07     692.01      26.31
 54.17     650.90      25.51
 54.27     626.00      25.02
 54.37     547.00      23.39
 54.47     571.00      23.90
 54.57     518.85      22.78
 54.67     525.00      22.91
 54.77     563.00      23.73
 54.87     552.00      23.49
 54.97     546.00      23.37
 55.07     562.00      23.71
 55.17     501.00      22.38
 55.27     544.00      23.32
 55.37     570.00      23.87
 55.47     515.66      22.71
 55.57     540.87      23.26
 55.67     596.00      24.41
 55.77     631.00      25.12
 55.87     559.28      23.65
 55.97     645.00      25.40
 56.07     689.00      26.25
 56.17     803.83      28.35
 56.27     932.32      30.53
 56.37    1134.00      33.67
 56.47    1430.00      37.82
 56.57    1828.00      42.76
 56.67    2000.00      44.72
 56.77    2485.00      49.85
 56.87    2727.00      52.22
 56.97    2510.02      50.10
 57.07    2370.35      48.69
 57.17    1979.65      44.49
 57.27    1616.00      40.20
 57.37    1325.00      36.40
 57.47    1037.00      32.20
 57.57     890.00      29.83
 57.67     715.84      26.76
 57.77     674.00      25.96
 57.87     657.01      25.63
 57.97     696.00      26.38
 58.07     705.44      26.56
 58.17     678.99      26.06
 58.27     754.02      27.46
 58.37     841.00      29.00
 58.47     961.00      31.00
 58.57    1100.00      33.17
 58.67    1278.69      35.76
 58.77    1331.00      36.48
 58.87    1398.00      37.39
 58.97    1651.00      40.63
 59.07    1523.00      39.03
 59.17    1479.29      38.46
 59.27    1377.49      37.11
 59.37    1360.00      36.88
 59.47    1285.00      35.85
 59.57    1159.00      34.04
 59.67    1120.00      33.47
 59.77    1149.52      33.90
 59.87    1182.00      34.38
 59.97    1377.00      37.11
 60.07    1457.00      38.17
 60.17    1501.26      38.75
 60.27    1488.27      38.58
 60.37    1509.11      38.85
 60.47    1331.00      36.48
 60.57    1202.00      34.67
 60.67    1180.00      34.35
 60.77     897.00      29.95
 60.87     791.00      28.12
 60.97     736.00      27.13
 61.07     683.00      26.13
 61.17     652.00      25.53
 61.27     600.12      24.50
 61.37     695.50      26.37
 61.47     682.29      26.12
 61.57     753.00      27.44
 61.67     850.48      29.16
 61.77     984.88      31.38
 61.87    1104.00      33.23
 61.97    1244.00      35.27
 62.07    1319.01      36.32
 62.17    1452.53      38.11
 62.27    1362.00      36.91
 62.37    1370.25      37.02
 62.47    1204.36      34.70
 62.57    1071.00      32.73
 62.67     877.00      29.61
 62.77     787.56      28.06
 62.87     680.97      26.10
 62.97     646.87      25.43
 63.07     613.00      24.76
 63.17     590.00      24.29
 63.27     579.61      24.08
 63.37     533.62      23.10
 63.47     552.00      23.49
 63.57     601.00      24.52
 63.67     613.41      24.77
 63.77     564.93      23.77
 63.87     658.00      25.65
 63.97     654.69      25.59
 64.07     656.49      25.62
 64.17     733.00      27.07
 64.27     876.11      29.60
 64.37     925.00      30.41
 64.47     995.00      31.54
 64.57     975.17      31.23
 64.67    1040.96      32.26
 64.77    1062.00      32.59
 64.87     961.22      31.00
 64.97     892.00      29.87
 65.07     839.00      28.97
 65.17     757.17      27.52
 65.27     733.00      27.07
 65.37     699.59      26.45
 65.47     684.00      26.15
 65.57     602.00      24.54
 65.67     587.42      24.24
 65.77     576.00      24.00
 65.87     560.00      23.66
 65.97     598.00      24.45
 66.07     540.00      23.24
 66.17     567.62      23.82
 66.27     569.00      23.85
 66.37     588.19      24.25
 66.47     563.00      23.73
 66.57     595.76      24.41
 66.67     521.00      22.83
 66.77     564.00      23.75
 66.87     541.00      23.26
 66.97     624.12      24.98
 67.07     642.00      25.34
 67.17     660.00      25.69
 67.27     783.00      27.98
 67.37     888.00      29.80
 67.47    1106.80      33.27
 67.57    1308.00      36.17
 67.67    1520.00      38.99
 67.77    1808.00      42.52
 67.87    1998.90      44.71
 67.97    2387.00      48.86
 68.07    2496.00      49.96
 68.17    2406.00      49.05
 68.27    2241.45      47.34
 68.37    2005.15      44.78
 68.47    1852.00      43.03
 68.57    1526.00      39.06
 68.67    1264.00      35.55
 68.77    1077.00      32.82
 68.87     872.99      29.55
 68.97     712.00      26.68
 69.07     723.00      26.89
 69.17     654.00      25.57
 69.27     645.00      25.40
 69.37     637.00      25.24
 69.47     616.00      24.82
 69.57     599.00      24.47
 69.67     605.00      24.60
 69.77     559.00      23.64
 69.87     589.54      24.28
 69.97     571.00      23.90
 70.07     569.00      23.85
 70.17     592.29      24.34
 70.27     561.00      23.69
 70.37     562.00      23.71
 70.47     592.00      24.33
 70.57     568.00      23.83
 70.67     604.68      24.59
 70.77     613.30      24.76
 70.87     593.00      24.35
 70.97     627.00      25.04
 71.07     657.00      25.63
 71.17     753.28      27.45
 71.27     796.00      28.21
 71.37     923.00      30.38
 71.47    1130.00      33.62
 71.57    1267.00      35.59
 71.67    1429.00      37.80
 71.77    1602.00      40.02
 71.87    1823.00      42.70
 71.97    1819.03      42.65
 72.07    1913.00      43.74
 72.17    1861.00      43.14
 72.27    1791.18      42.32
 72.37    1621.00      40.26
 72.47    1478.00      38.44
 72.57    1374.55      37.07
 72.67    1245.53      35.29
 72.77    1039.00      32.23
 72.87     920.00      30.33
 72.97     893.29      29.89
 73.07     807.04      28.41
 73.17     810.72      28.47
 73.27     772.78      27.80
 73.37     631.00      25.12
 73.47     634.00      25.18
 73.57     683.49      26.14
 73.67     621.00      24.92
 73.77     632.03      25.14
 73.87     599.00      24.47
 73.97     597.00      24.43
 74.07     586.00      24.21
 74.17     573.55      23.95
 74.27     570.00      23.87
 74.37     635.00      25.20
 74.47     624.00      24.98
 74.57     647.00      25.44
 74.67     629.00      25.08
 74.77     642.00      25.34
 74.87     625.00      25.00
 74.97     559.53      23.65
 75.07     552.00      23.49
 75.17     557.00      23.60
 75.27     595.66      24.41
 75.37     566.00      23.79
 75.47     571.00      23.90
 75.57     520.00      22.80
 75.67     588.00      24.25
 75.77     589.93      24.29
 75.87     558.33      23.63
 75.97     628.00      25.06
 76.07     626.00      25.02
 76.17     650.08      25.50
 76.27     615.00      24.80
 76.37     707.00      26.59
 76.47     660.23      25.69
 76.57     724.62      26.92
 76.67     679.00      26.06
 76.77     730.83      27.03
 76.87     673.00      25.94
 76.97     602.56      24.55
 77.07     644.86      25.39
 77.17     588.00      24.25
 77.27     573.00      23.94
 77.37     542.52      23.29
 77.47     539.00      23.22
 77.57     566.38      23.80
 77.67     472.00      21.73
 77.77     561.00      23.69
 77.87     493.00      22.20
 77.97     523.00      22.87
 78.07     490.49      22.15
 78.17     506.00      22.49
 78.27     493.55      22.22
 78.37     504.00      22.45
 78.47     538.46      23.20
 78.57     527.00      22.96
 78.67     511.00      22.61
 78.77     532.00      23.07
 78.87     488.44      22.10
 78.97     471.00      21.70
 79.07     558.00      23.62
 79.17     522.00      22.85
 79.27     556.19      23.58
 79.37     548.00      23.41
 79.47     540.00      23.24
 79.57     527.24      22.96
 79.67     555.77      23.57
 79.77     507.48      22.53
 79.87     525.00      22.91
 79.97     534.00      23.11
 80.07     533.86      23.11
 80.17     574.00      23.96
 80.27     598.23      24.46
 80.37     595.97      24.41
 80.47     594.00      24.37
 80.57     573.00      23.94
 80.67     603.00      24.56
 80.77     679.00      26.06
 80.87     625.00      25.00
 80.97     652.00      25.53
 81.07     683.53      26.14
 81.17     763.88      27.64
 81.27     683.00      26.13
 81.37     736.00      27.13
 81.47     743.00      27.26
 81.57     833.00      28.86
 81.67     777.00      27.87
 81.77     751.00      27.40
 81.87     700.00      26.46
 81.97     713.00      26.70
 82.07     723.00      26.89
 82.17     656.94      25.63
 82.27     649.00      25.48
 82.37     637.00      25.24
 82.47     604.00      24.58
 82.57     558.80      23.64
 82.67     612.00      24.74
 82.77     532.21      23.07
 82.87     545.00      23.35
 82.97     575.11      23.98
 83.07     602.00      24.54
 83.17     545.00      23.35
 83.27     546.00      23.37
 83.37     549.00      23.43
 83.47     551.00      23.47
 83.57     537.00      23.17
 83.67     608.30      24.66
 83.77     561.00      23.69
 83.87     604.96      24.60
 83.97     582.00      24.12
 84.07     542.96      23.30
 84.17     590.69      24.30
 84.27     536.00      23.15
 84.37     523.28      22.88
 84.47     561.24      23.69
 84.57     581.00      24.10
 84.67     537.00      23.17
 84.77     543.00      23.30
 84.87     529.00      23.00
 84.97     566.65      23.80
 85.07     504.00      22.45
 85.17     538.00      23.19
 85.27     562.98      23.73
 85.37     550.00      23.45
 85.47     529.00      23.00
 85.57     542.00      23.28
 85.67     525.00      22.91
 85.77     514.00      22.67
 85.87     520.00      22.80
 85.97     542.25      23.29
 86.07     569.96      23.87
 86.17     534.04      23.11
 86.27     533.00      23.09
 86.37     522.00      22.85
 86.47     584.00      24.17
 86.57     563.00      23.73
 86.67     608.76      24.67
 86.77     541.48      23.27
 86.87     545.03      23.35
 86.97     597.00      24.43
 87.07     622.00      24.94
 87.17     659.00      25.67
 87.27     681.00      26.10
 87.37     692.00      26.31
 87.47     566.00      23.79
 87.57     670.00      25.88
 87.67     626.00      25.02
 87.77     620.68      24.91
 87.87     634.00      25.18
 87.97     609.88      24.70
 88.07     569.27      23.86
 88.17     632.00      25.14
 88.27     575.14      23.98
 88.37     607.00      24.64
 88.47     602.52      24.55
 88.57     534.86      23.13
 88.67     571.00      23.90
 88.77     589.00      24.27
 88.87     538.45      23.20
 88.97     595.44      24.40
 89.07     548.76      23.43
 89.17     613.00      24.76
 89.27     615.00      24.80
 89.37     605.08      24.60
 89.47     626.00      25.02
 89.57     612.00      24.74
 89.67     548.00      23.41
 89.77     573.00      23.94
 89.87     562.00      23.71
 89.97     590.86      24.31
 90.07     608.84      24.67
 90.17     543.00      23.30
 90.27     557.22      23.61
 90.37     512.35      22.64
 90.47     531.00      23.04
 90.57     582.00      24.12
 90.67     568.52      23.84
 90.77     510.00      22.58
 90.87     513.00      22.65
 90.97     487.30      22.07
 91.07     557.91      23.62
 91.17     566.05      23.79
 91.27     545.00      23.35
 91.37     555.00      23.56
 91.47     532.00      23.07
 91.57     557.95      23.62
 91.67     514.00      22.67
 91.77     544.00      23.32
 91.87     524.00      22.89
 91.97     555.24      23.56
 92.07     595.41      24.40
 92.17     586.00      24.21
 92.27     628.00      25.06
 92.37     579.00      24.06
 92.47     609.00      24.68
 92.57     680.00      26.08
 92.67     638.07      25.26
 92.77     655.00      25.59
 92.87     809.00      28.44
 92.97     720.00      26.83
 93.07     724.00      26.91
 93.17     763.59      27.63
 93.27     749.00      27.37
 93.37     804.13      28.36
 93.47     806.69      28.40
 93.57     799.00      28.27
 93.67     867.00      29.44
 93.77     848.03      29.12
 93.87     816.00      28.57
 93.97     815.00      28.55
 94.07     809.70      28.46
 94.17     862.00      29.36
 94.27     849.00      29.14
 94.37     861.56      29.35
 94.47     912.00      30.20
 94.57     832.00      28.84
 94.67     922.00      30.36
 94.77     919.00      30.32
 94.87     934.73      30.57
 94.97     928.00      30.46
 95.07     927.00      30.45
 95.17     849.00      29.14
 95.27     819.00      28.62
 95.37     820.00      28.64
 95.47     715.49      26.75
 95.57     704.00      26.53
 95.67     689.83      26.26
 95.77     702.16      26.50
 95.87     737.00      27.15
 95.97     671.00      25.90
 96.07     662.00      25.73
 96.17     687.00      26.21
 96.27     728.00      26.98
 96.37     756.00      27.50
 96.47     858.04      29.29
 96.57     904.92      30.08
 96.67     908.32      30.14
 96.77    1013.00      31.83
 96.87    1072.27      32.75
 96.97    1090.00      33.02
 97.07    1178.00      34.32
 97.17    1324.75      36.40
 97.27    1325.00      36.40
 97.37    1343.98      36.66
 97.47    1466.20      38.29
 97.57    1405.00      37.48
 97.67    1385.00      37.22
 97.77    1321.00      36.35
 97.87    1408.78      37.53
 97.97    1325.55      36.41
 98.07    1235.00      35.14
 98.17    1113.00      33.36
 98.27    1103.00      33.21
 98.37    1032.93      32.14
 98.47     979.00      31.29
 98.57     917.59      30.29
 98.67     868.00      29.46
 98.77     793.00      28.16
 98.87     803.00      28.34
 98.97     788.00      28.07
 99.07     783.00      27.98
 99.17     887.00      29.78
 99.27     874.32      29.57
 99.37     956.08      30.92
 99.47     963.00      31.03
 99.57    1038.69      32.23
 99.67    1166.00      34.15
 99.77    1282.62      35.81
 99.87    1369.00      37.00
 99.97    1532.00      39.14
100.07    1651.00      40.63
100.17    1726.07      41.55
100.27    1834.87      42.84
100.37    1959.00      44.26
100.47    2028.00      45.03
100.57    2145.00      46.31
100.67    2065.00      45.44
100.77    2114.00      45.98
100.87    2089.50      45.71
100.97    2080.00      45.61
101.07    1967.00      44.35
101.17    1894.00      43.52
101.27    1777.14      42.16
101.37    1703.04      41.27
101.47    1618.00      40.22
101.57    1486.00      38.55
101.67    1446.00      38.03
101.77    1394.00      37.34
101.87    1280.00      35.78
101.97    1223.00      34.97
102.07    1222.00      34.96
102.17    1117.00      33.42
102.27    1078.00      32.83
102.37    1120.00      33.47
102.47    1059.28      32.55
102.57    1056.83      32.51
102.67    1022.04      31.97
102.77    1034.00      32.16
102.87     988.00      31.43
102.97     958.00      30.95
103.07     865.00      29.41
103.17     888.00      29.80
103.27     876.00      29.60
103.37     827.40      28.76
103.47     764.00      27.64
103.57     807.00      28.41
103.67     724.03      26.91
103.77     717.47      26.79
103.87     668.41      25.85
103.97     626.00      25.02
104.07     640.00      25.30
104.17     631.00      25.12
104.27     565.00      23.77
104.37     538.00      23.19
104.47     575.23      23.98
104.57     529.00      23.00
104.67     522.00      22.85
104.77     537.00      23.17
104.87     506.61      22.51
104.97     584.00      24.17
105.07     513.00      22.65
105.17     571.00      23.90
105.27     583.33      24.15
105.37     500.74      22.38
105.47     530.00      23.02
105.57     538.00      23.19
105.67     549.00      23.43
105.77     522.30      22.85
105.87     572.83      23.93
105.97     567.00      23.81
106.07     582.00      24.12
106.17     652.00      25.53
106.27     565.74      23.79
106.37     592.31      24.34
106.47     612.00      24.74
106.57     610.00      24.70
106.67     626.00      25.02
106.77     651.23      25.52
106.87     680.00      26.08
106.97     647.91      25.45
107.07     665.00      25.79
107.17     674.00      25.96
107.27     660.00      25.69
107.37     664.00      25.77
107.47     736.78      27.14
107.57     684.00      26.15
107.67     700.00      26.46
107.77     727.92      26.98
107.87     729.87      27.02
107.97     675.00      25.98
108.07     659.66      25.68
108.17     638.00      25.26
108.27     708.00      26.61
108.37     690.00      26.27
108.47     648.00      25.46
108.57     653.00      25.55
108.67     679.00      26.06
108.77     732.04      27.06
108.87     670.00      25.88
108.97     645.19      25.40
109.07     644.00      25.38
109.17     647.00      25.44
109.27     709.23      26.63
109.37     619.86      24.90
109.47     635.09      25.20
109.57     621.20      24.92
109.67     668.41      25.85
109.77     651.00      25.51
109.87     627.00      25.04
109.97     640.00      25.30
110.07     606.00      24.62
110.17     621.46      24.93
110.27     598.59      24.47
110.37     610.00      24.70
110.47     533.00      23.09
110.57     557.46      23.61
110.67     548.00      23.41
110.77     531.31      23.05
110.87     508.00      22.54
110.97     558.00      23.62
111.07     537.00      23.17
111.17     516.00      22.72
111.27     556.54      23.59
111.37     528.28      22.98
111.47     556.00      23.58
111.57     514.57      22.68
111.67     519.41      22.79
111.77     528.22      22.98
111.87     598.10      24.46
111.97     546.00      23.37
112.07     568.00      23.83
112.17     541.88      23.28
112.27     567.00      23.81
112.37     620.89      24.92
112.47     663.00      25.75
112.57     653.82      25.57
112.67     575.00      23.98
112.77     629.00      25.08
112.87     684.13      26.16
112.97     636.00      25.22
113.07     722.00      26.87
113.17     662.46      25.74
113.27     695.40      26.37
113.37     798.00      28.25
113.47     799.00      28.27
113.57     844.00      29.05
113.67     804.00      28.35
113.77     874.00      29.56
113.87     916.00      30.27
113.97     988.96      31.45
114.07    1024.84      32.01
114.17    1068.00      32.68
114.27    1175.64      34.29
114.37    1166.59      34.16
114.47    1287.57      35.88
114.57    1421.00      37.70
114.67    1601.00      40.01
114.77    1771.00      42.08
114.87    1836.00      42.85
114.97    2144.61      46.31
115.07    2297.55      47.93
115.17    2594.00      50.93
115.27    2849.00      53.38
115.37    3154.00      56.16
115.47    3478.04      58.97
115.57    3787.00      61.54
115.67    4060.00      63.72
115.77    4503.00      67.10
115.87    4793.00      69.23
115.97    5206.00      72.15
116.07    5583.01      74.72
116.17    6077.00      77.96
116.27    6323.00      79.52
116.37    6704.00      81.88
116.47    6890.10      83.01
116.57    6959.00      83.42
116.67    6785.35      82.37
116.77    6921.00      83.19
116.87    6833.00      82.66
116.97    6744.00      82.12
117.07    6312.08      79.45
117.17    6172.00      78.56
117.27    5615.00      74.93
117.37    5395.95      73.46
117.47    4976.00      70.54
117.57    4533.00      67.33
117.67    4329.00      65.80
117.77    3968.00      62.99
117.87    3517.49      59.31
117.97    3176.99      56.36
118.07    3014.00      54.90
118.17    2576.00      50.75
118.27    2333.00      48.30
118.37    2049.23      45.27
118.47    1796.47      42.38
118.57    1521.00      39.00
118.67    1342.93      36.65
118.77    1261.00      35.51
118.87    1066.00      32.65
118.97    1072.00      32.74
119.07    1001.00      31.64
119.17     835.33      28.90
119.27     879.47      29.66
119.37     736.23      27.13
119.47     728.74      27.00
119.57     659.18      25.67
119.67     710.00      26.65
119.77     683.00      26.13
119.87     675.64      25.99
119.97     603.00      24.56
120.07     578.05      24.04
120.17     616.00      24.82
120.27     571.00      23.90
120.37     581.00      24.10
120.47     602.14      24.54
120.57     600.05      24.50
120.67     575.00      23.98
120.77     606.00      24.62
120.87     574.26      23.96
120.97     587.00      24.23
121.07     533.00      23.09
121.17     589.00      24.27
121.27     549.51      23.44
121.37     529.21      23.00
121.47     558.00      23.62
121.57     563.13      23.73
121.67     591.00      24.31
121.77     605.00      24.60
121.87     635.68      25.21
121.97     607.31      24.64
122.07     581.46      24.11
122.17     576.00      24.00
122.27     634.00      25.18
122.37     587.25      24.23
122.47     618.05      24.86
122.57     612.00      24.74
122.67     660.00      25.69
122.77     598.60      24.47
122.87     611.00      24.72
122.97     672.80      25.94
123.07     625.64      25.01
123.17     629.00      25.08
123.27     636.00      25.22
123.37     657.82      25.65
123.47     653.00      25.55
123.57     615.00      24.80
123.67     604.00      24.58
123.77     648.00      25.46
123.87     630.00      25.10
123.97     615.00      24.80
124.07     622.00      24.94
124.17     610.00      24.70
124.27     607.00      24.64
124.37     588.64      24.26
124.47     595.41      24.40
124.57     568.00      23.83
124.67     601.00      24.52
124.77     615.00      24.80
124.87     555.00      23.56
124.97     568.00      23.83
