  9.97     619.00      24.88
 10.07     581.05      24.10
 10.17     654.00      25.57
 10.27     544.00      23.32
 10.37     583.00      24.15
 10.47     526.21      22.94
 10.57     632.00      25.14
 10.67     582.00      24.12
 10.77     552.00      23.49
 10.87     575.00      23.98
 10.97     541.80      23.28
 11.07     556.00      23.58
 11.17     577.00      24.02
 11.27     603.52      24.57
 11.37     521.14      22.83
 11.47     573.59      23.95
 11.57     606.17      24.62
 11.67     608.00      24.66
 11.77     618.00      24.86
 11.87     640.19      25.30
 11.97     610.00      24.70
 12.07     684.00      26.15
 12.17     704.00      26.53
 12.27     628.00      25.06
 12.37     635.56      25.21
 12.47     615.00      24.80
 12.57     586.00      24.21
 12.67     591.00      24.31
 12.77     577.00      24.02
 12.87     537.37      23.18
 12.97     553.00      23.52
 13.07     558.00      23.62
 13.17     607.85      24.65
 13.27     558.33      23.63
 13.37     553.04      23.52
 13.47     524.00      22.89
 13.57     570.00      23.87
 13.67     525.63      22.93
 13.77     499.00      22.34
 13.87     537.00      23.17
 13.97     595.98      24.41
 14.07     604.00      24.58
 14.17     547.00      23.39
 14.27     614.43      24.79
 14.37     541.00      23.26
 14.47     565.66      23.78
 14.57     525.00      22.91
 14.67     531.00      23.04
 14.77     541.00      23.26
 14.87     576.00      24.00
 14.97     555.00      23.56
 15.07     530.11      23.02
 15.17     522.20      22.85
 15.27     574.00      23.96
 15.37     535.00      23.13
 15.47     530.68      23.04
 15.57     599.66      24.49
 15.67     601.70      24.53
 15.77     541.00      23.26
 15.87     539.00      23.22
 15.97     567.00      23.81
 16.07     552.00      23.49
 16.17     574.35      23.97
 16.27     569.73      23.87
 16.37     546.00      23.37
 16.47     583.00      24.15
 16.57     609.00      24.68
 16.67     526.00      22.93
 16.77     604.16      24.58
 16.87     599.12      24.48
 16.97     592.00      24.33
 17.07     549.00      23.43
 17.17     587.00      24.23
 17.27     573.00      23.94
 17.37     554.00      23.54
 17.47     530.00      23.02
 17.57     570.00      23.87
 17.67     569.00      23.85
 17.77     544.76      23.34
 17.87     578.00      24.04
 17.97     532.00      23.07
 18.07     538.68      23.21
 18.17     518.61      22.77
 18.27     608.96      24.68
 18.37     543.00      23.30
 18.47     563.40      23.74
 18.57     560.00      23.66
 18.67     582.00      24.12
 18.77     588.87      24.27
 18.87     557.17      23.60
 18.97     597.00      24.43
 19.07     529.91      23.02
 19.17     543.00      23.30
 19.27     517.85      22.76
 19.37     525.71      22.93
 19.47     563.00      23.73
 19.57     555.00      23.56
 19.67     552.29      23.50
 19.77     557.00      23.60
 19.87     581.88      24.12
 19.97     515.00      22.69
 20.07     562.30      23.71
 20.17     566.00      23.79
 20.27     567.00      23.81
 20.37     521.55      22.84
 20.47     519.06      22.78
 20.57     593.00      24.35
 20.67     558.00      23.62
 20.77     540.90      23.26
 20.87     505.00      22.47
 20.97     580.00      24.08
 21.07     527.00      22.96
 21.17     590.59      24.30
 21.27     543.00      23.30
 21.37     524.62      22.90
 21.47     555.00      23.56
 21.57     594.00      24.37
 21.67     573.00      23.94
 21.77     553.00      23.52
 21.87     561.00      23.69
 21.97     583.58      24.16
 22.07     528.37      22.99
 22.17     575.00      23.98
 22.27     522.55      22.86
 22.37     567.00      23.81
 22.47     574.00      23.96
 22.57     555.00      23.56
 22.67     572.00      23.92
 22.77     510.00      22.58
 22.87     534.00      23.11
 22.97     554.00      23.54
 23.07     564.00      23.75
 23.17     508.84      22.56
 23.27     566.00      23.79
 23.37     566.00      23.79
 23.47     589.00      24.27
 23.57     581.00      24.10
 23.67     584.38      24.17
 23.77     585.51      24.20
 23.87     591.00      24.31
 23.97     557.07      23.60
 24.07     541.00      23.26
 24.17     566.54      23.80
 24.27     541.00      23.26
 24.37     608.00      24.66
 24.47     569.00      23.85
 24.57     612.79      24.75
 24.67     626.00      25.02
 24.77     642.00      25.34
 24.87     642.00      25.34
 24.97     581.52      24.11
 25.07     585.77      24.20
 25.17     599.33      24.48
 25.27     605.65      24.61
 25.37     507.67      22.53
 25.47     553.00      23.52
 25.57     581.00      24.10
 25.67     627.00      25.04
 25.77     547.00      23.39
 25.87     590.62      24.30
 25.97     534.38      23.12
 26.07     568.00      23.83
 26.17     571.00      23.90
 26.27     518.27      22.77
 26.37     540.00      23.24
 26.47     548.00      23.41
 26.57     562.00      23.71
 26.67     530.25      23.03
 26.77     553.00      23.52
 26.87     550.40      23.46
 26.97     543.00      23.30
 27.07     573.82      23.95
 27.17     565.00      23.77
 27.27     517.74      22.75
 27.37     601.00      24.52
 27.47     547.84      23.41
 27.57     589.74      24.28
 27.67     584.00      24.17
 27.77     597.00      24.43
 27.87     626.00      25.02
 27.97     603.64      24.57
 28.07     738.00      27.17
 28.17     872.00      29.53
 28.27     945.00      30.74
 28.37     967.00      31.10
 28.47     833.00      28.86
 28.57     705.00      26.55
 28.67     703.29      26.52
 28.77     692.00      26.31
 28.87     807.44      28.42
 28.97     846.00      29.09
 29.07     813.00      28.51
 29.17     719.26      26.82
 29.27     622.38      24.95
 29.37     621.00      24.92
 29.47     618.00      24.86
 29.57     565.00      23.77
 29.67     650.00      25.50
 29.77     636.00      25.22
 29.87     585.00      24.19
 29.97     568.00      23.83
 30.07     585.00      24.19
 30.17     522.00      22.85
 30.27     569.00      23.85
 30.37     581.33      24.11
 30.47     561.00      23.69
 30.57     555.00      23.56
 30.67     513.65      22.66
 30.77     588.00      24.25
 30.87     622.44      24.95
 30.97     639.00      25.28
 31.07     617.00      24.84
 31.17     608.40      24.67
 31.27     576.00      24.00
 31.37     549.46      23.44
 31.47     522.46      22.86
 31.57     568.00      23.83
 31.67     545.00      23.35
 31.77     576.64      24.01
 31.87     525.00      22.91
 31.97     518.00      22.76
 32.07     539.15      23.22
 32.17     499.00      22.34
 32.27     563.00      23.73
 32.37     542.00      23.28
 32.47     514.88      22.69
 32.57     556.00      23.58
 32.67     543.00      23.30
 32.77     561.65      23.70
 32.87     583.00      24.15
 32.97     576.00      24.00
 33.07     577.39      24.03
 33.17     528.84      23.00
 33.27     504.38      22.46
 33.37     556.00      23.58
 33.47     548.82      23.43
 33.57     618.88      24.88
 33.67     611.21      24.72
 33.77     674.00      25.96
 33.87     830.00      28.81
 33.97     995.82      31.56
 34.07    1082.00      32.89
 34.17    1068.85      32.69
 34.27     960.07      30.98
 34.37     780.18      27.93
 34.47     683.00      26.13
 34.57     650.93      25.51
 34.67     581.00      24.10
 34.77     518.83      22.78
 34.87     555.80      23.58
 34.97     501.00      22.38
 35.07     527.00      22.96
 35.17     550.20      23.46
 35.27     526.74      22.95
 35.37     531.00      23.04
 35.47     566.95      23.81
 35.57     539.00      23.22
 35.67     519.63      22.80
 35.77     543.57      23.31
 35.87     473.52      21.76
 35.97     543.00      23.30
 36.07     489.64      22.13
 36.17     485.00      22.02
 36.27     480.78      21.93
 36.37     517.00      22.74
 36.47     478.51      21.87
 36.57     495.00      22.25
 36.67     454.00      21.31
 36.77     516.00      22.72
 36.87     474.77      21.79
 36.97     503.00      22.43
 37.07     556.64      23.59
 37.17     517.00      22.74
 37.27     498.97      22.34
 37.37     472.00      21.73
 37.47     532.00      23.07
 37.57     555.72      23.57
 37.67     505.00      22.47
 37.77     494.00      22.23
 37.87     535.00      23.13
 37.97     562.66      23.72
 38.07     547.45      23.40
 38.17     469.49      21.67
 38.27     526.00      22.93
 38.37     477.00      21.84
 38.47     567.00      23.81
 38.57     479.00      21.89
 38.67     484.00      22.00
 38.77     532.46      23.08
 38.87     514.00      22.67
 38.97     501.39      22.39
 39.07     495.69      22.26
 39.17     490.17      22.14
 39.27     475.00      21.79
 39.37     495.00      22.25
 39.47     501.00      22.38
 39.57     501.00      22.38
 39.67     482.82      21.97
 39.77     474.98      21.79
 39.87     477.00      21.84
 39.97     501.00      22.38
 40.07     493.00      22.20
 40.17     477.00      21.84
 40.27     532.00      23.07
 40.37     504.00      22.45
 40.47     509.00      22.56
 40.57     514.00      22.67
 40.67     482.00      21.95
 40.77     478.00      21.86
 40.87     460.00      21.45
 40.97     513.56      22.66
 41.07     483.12      21.98
 41.17     511.82      22.62
 41.27     523.98      22.89
 41.37     482.67      21.97
 41.47     529.18      23.00
 41.57     524.29      22.90
 41.67     485.00      22.02
 41.77     494.00      22.23
 41.87     526.00      22.93
 41.97     508.00      22.54
 42.07     510.00      22.58
 42.17     518.00      22.76
 42.27     535.31      23.14
 42.37     529.00      23.00
 42.47     545.00      23.35
 42.57     604.00      24.58
 42.67     566.00      23.79
 42.77     637.00      25.24
 42.87     604.52      24.59
 42.97     632.87      25.16
 43.07     579.90      24.08
 43.17     484.00      22.00
 43.27     485.00      22.02
 43.37     537.38      23.18
 43.47     549.98      23.45
 43.57     510.00      22.58
 43.67     457.99      21.40
 43.77     515.00      22.69
 43.87     507.00      22.52
 43.97     471.88      21.72
 44.07     461.00      21.47
 44.17     485.00      22.02
 44.27     470.00      21.68
 44.37     461.00      21.47
 44.47     473.00      21.75
 44.57     469.65      21.67
 44.67     520.00      22.80
 44.77     523.93      22.89
 44.87     500.07      22.36
 44.97     541.26      23.26
 45.07     505.99      22.49
 45.17     463.36      21.53
 45.27     469.00      21.66
 45.37     500.00      22.36
 45.47     449.00      21.19
 45.57     498.00      22.32
 45.67     510.81      22.60
 45.77     453.93      21.31
 45.87     529.93      23.02
 45.97     477.00      21.84
 46.07     487.00      22.07
 46.17     500.26      22.37
 46.27     471.00      21.70
 46.37     503.00      22.43
 46.47     494.00      22.23
 46.57     478.03      21.86
 46.67     473.00      21.75
 46.77     511.00      22.61
 46.87     490.00      22.14
 46.97     485.00      22.02
 47.07     505.00      22.47
 47.17     448.00      21.17
 47.27     537.40      23.18
 47.37     466.00      21.59
 47.47     529.00      23.00
 47.57     560.00      23.66
 47.67     539.00      23.22
 47.77     600.00      24.49
 47.87     564.00      23.75
 47.97     626.92      25.04
 48.07     551.80      23.49
 48.17     605.97      24.62
 48.27     542.00      23.28
 48.37     539.07      23.22
 48.47     499.66      22.35
 48.57     509.00      22.56
 48.67     561.58      23.70
 48.77     515.00      22.69
 48.87     514.00      22.67
 48.97     572.63      23.93
 49.07     561.00      23.69
 49.17     598.94      24.47
 49.27     609.57      24.69
 49.37     645.10      25.40
 49.47     690.00      26.27
 49.57     747.38      27.34
 49.67     888.00      29.80
 49.77     980.98      31.32
 49.87    1285.00      35.85
 49.97    1714.00      41.40
 50.07    2082.01      45.63
 50.17    2409.76      49.09
 50.27    2552.00      50.52
 50.37    2381.00      48.80
 50.47    2180.00      46.69
 50.57    1589.05      39.86
 50.67    1196.08      34.58
 50.77     900.00      30.00
 50.87     741.94      27.24
 50.97     601.00      24.52
 51.07     633.70      25.17
 51.17     605.00      24.60
 51.27     525.00      22.91
 51.37     609.58      24.69
 51.47     555.00      23.56
 51.57     567.00      23.81
 51.67     517.79      22.76
 51.77     538.00      23.19
 51.87     544.00      23.32
 51.97     573.00      23.94
 52.07     588.00      24.25
 52.17     528.00      22.98
 52.27     501.33      22.39
 52.37     493.16      22.21
 52.47     567.00      23.81
 52.57     560.41      23.67
 52.67     586.00      24.21
 52.77     516.96      22.74
 52.87     593.00      24.35
 52.97     598.00      24.45
 53.07     695.67      26.38
 53.17     798.00      28.25
 53.27     871.68      29.52
 53.37    1084.00      32.92
 53.47    1099.00      33.15
 53.57    1227.14      35.03
 53.67    1120.53      33.47
 53.77    1104.08      33.23
 53.87     963.00      31.03
 53.97     794.53      28.19
 54.07     758.02      27.53
 54.17     646.00      25.42
 54.27     626.72      25.03
 54.37     589.00      24.27
 54.47     575.00      23.98
 54.57     572.00      23.92
 54.67     565.00      23.77
 54.77     578.61      24.05
 54.87     548.00      23.41
 54.97     543.00      23.30
 55.07     569.00      23.85
 55.17     589.00      24.27
 55.27     547.00      23.39
 55.37     531.00      23.04
 55.47     565.00      23.77
 55.57     539.34      23.22
 55.67     517.46      22.75
 55.77     571.00      23.90
 55.87     611.14      24.72
 55.97     606.00      24.62
 56.07     620.29      24.91
 56.17     717.04      26.78
 56.27     793.00      28.16
 56.37    1030.99      32.11
 56.47    1228.00      35.04
 56.57    1510.00      38.86
 56.67    1928.00      43.91
 56.77    2293.00      47.89
 56.87    2665.29      51.63
 56.97    2720.00      52.15
 57.07    2541.00      50.41
 57.17    2287.50      47.83
 57.27    1902.00      43.61
 57.37    1507.00      38.82
 57.47    1157.00      34.01
 57.57     939.86      30.66
 57.67     782.71      27.98
 57.77     741.00      27.22
 57.87     707.00      26.59
 57.97     695.00      26.36
 58.07     685.00      26.17
 58.17     647.00      25.44
 58.27     712.00      26.68
 58.37     800.51      28.29
 58.47     898.00      29.97
 58.57    1045.00      32.33
 58.67    1201.00      34.66
 58.77    1265.00      35.57
 58.87    1515.00      38.92
 58.97    1551.35      39.39
 59.07    1616.00      40.20
 59.17    1660.23      40.75
 59.27    1542.00      39.27
 59.37    1365.71      36.96
 59.47    1377.24      37.11
 59.57    1228.82      35.05
 59.67    1181.00      34.37
 59.77    1196.00      34.58
 59.87    1163.00      34.10
 59.97    1237.08      35.17
 60.07    1396.00      37.36
 60.17    1517.00      38.95
 60.27    1609.00      40.11
 60.37    1596.00      39.95
 60.47    1502.00      38.76
 60.57    1409.19      37.54
 60.67    1170.48      34.21
 60.77     954.53      30.90
 60.87     907.00      30.12
 60.97     737.00      27.15
 61.07     676.00      26.00
 61.17     696.00      26.38
 61.27     672.00      25.92
 61.37     639.00      25.28
 61.47     664.13      25.77
 61.57     708.00      26.61
 61.67     720.00      26.83
 61.77     867.20      29.45
 61.87     951.00      30.84
 61.97    1130.00      33.62
 62.07    1358.76      36.86
 62.17    1391.00      37.30
 62.27    1374.00      37.07
 62.37    1386.81      37.24
 62.47    1235.11      35.14
 62.57    1128.71      33.60
 62.67     957.00      30.94
 62.77     847.00      29.10
 62.87     700.00      26.46
 62.97     679.57      26.07
 63.07     644.90      25.39
 63.17     591.29      24.32
 63.27     551.16      23.48
 63.37     517.00      22.74
 63.47     511.04      22.61
 63.57     551.00      23.47
 63.67     601.48      24.53
 63.77     539.29      23.22
 63.87     586.00      24.21
 63.97     646.00      25.42
 64.07     717.00      26.78
 64.17     698.00      26.42
 64.27     768.00      27.71
 64.37     884.00      29.73
 64.47     849.55      29.15
 64.57     976.59      31.25
 64.67    1001.00      31.64
 64.77    1062.00      32.59
 64.87    1005.92      31.72
 64.97     884.65      29.74
 65.07     927.00      30.45
 65.17     850.00      29.15
 65.27     764.00      27.64
 65.37     698.00      26.42
 65.47     643.52      25.37
 65.57     668.00      25.85
 65.67     618.00      24.86
 65.77     589.00      24.27
 65.87     595.00      24.39
 65.97     558.00      23.62
 66.07     558.39      23.63
 66.17     518.00      22.76
 66.27     525.09      22.91
 66.37     557.00      23.60
 66.47     558.00      23.62
 66.57     566.30      23.80
 66.67     592.70      24.35
 66.77     539.00      23.22
 66.87     586.00      24.21
 66.97     494.00      22.23
 67.07     562.73      23.72
 67.17     643.00      25.36
 67.27     743.14      27.26
 67.37     760.00      27.57
 67.47     907.00      30.12
 67.57    1092.00      33.05
 67.67    1331.00      36.48
 67.77    1654.98      40.68
 67.87    1775.00      42.13
 67.97    2216.00      47.07
 68.07    2306.00      48.02
 68.17    2374.13      48.73
 68.27    2480.25      49.80
 68.37    2296.00      47.92
 68.47    2073.62      45.54
 68.57    1720.00      41.47
 68.67    1484.00      38.52
 68.77    1186.00      34.44
 68.87     944.00      30.72
 68.97     797.00      28.23
 69.07     724.00      26.91
 69.17     689.00      26.25
 69.27     654.00      25.57
 69.37     614.00      24.78
 69.47     621.00      24.92
 69.57     537.11      23.18
 69.67     593.00      24.35
 69.77     572.00      23.92
 69.87     577.00      24.02
 69.97     552.93      23.51
 70.07     607.00      24.64
 70.17     531.00      23.04
 70.27     571.00      23.90
 70.37     571.14      23.90
 70.47     553.00      23.52
 70.57     576.00      24.00
 70.67     550.04      23.45
 70.77     604.00      24.58
 70.87     601.74      24.53
 70.97     585.00      24.19
 71.07     660.99      25.71
 71.17     626.10      25.02
 71.27     718.00      26.80
 71.37     842.00      29.02
 71.47     906.32      30.11
 71.57    1077.38      32.82
 71.67    1264.00      35.55
 71.77    1475.00      38.41
 71.87    1728.47      41.57
 71.97    1778.00      42.17
 72.07    1916.00      43.77
 72.17    1988.00      44.59
 72.27    1938.00      44.02
 72.37    1752.00      41.86
 72.47    1667.00      40.83
 72.57    1421.16      37.70
 72.67    1377.00      37.11
 72.77    1218.70      34.91
 72.87    1059.68      32.55
 72.97     971.00      31.16
 73.07     846.00      29.09
 73.17     907.26      30.12
 73.27     873.97      29.56
 73.37     727.28      26.97
 73.47     717.00      26.78
 73.57     652.45      25.54
 73.67     684.12      26.16
 73.77     646.67      25.43
 73.87     611.81      24.73
 73.97     561.00      23.69
 74.07     582.00      24.12
 74.17     610.34      24.71
 74.27     542.00      23.28
 74.37     594.00      24.37
 74.47     550.07      23.45
 74.57     610.00      24.70
 74.67     629.00      25.08
 74.77     598.00      24.45
 74.87     585.00      24.19
 74.97     644.00      25.38
 75.07     592.63      24.34
 75.17     579.00      24.06
 75.27     520.28      22.81
 75.37     536.00      23.15
 75.47     539.08      23.22
 75.57     521.00      22.83
 75.67     583.44      24.15
 75.77     556.00      23.58
 75.87     571.00      23.90
 75.97     552.74      23.51
 76.07     558.35      23.63
 76.17     603.00      24.56
 76.27     656.00      25.61
 76.37     650.25      25.50
 76.47     650.00      25.50
 76.57     678.24      26.04
 76.67     688.00      26.23
 76.77     630.00      25.10
 76.87     645.00      25.40
 76.97     698.00      26.42
 77.07     623.00      24.96
 77.17     621.00      24.92
 77.27     624.35      24.99
 77.37     578.60      24.05
 77.47     550.82      23.47
 77.57     527.00      22.96
 77.67     581.13      24.11
 77.77     536.41      23.16
 77.87     543.00      23.30
 77.97     487.59      22.08
 78.07     504.00      22.45
 78.17     534.00      23.11
 78.27     494.00      22.23
 78.37     534.21      23.11
 78.47     513.94      22.67
 78.57     476.00      21.82
 78.67     515.00      22.69
 78.77     539.00      23.22
 78.87     511.69      22.62
 78.97     508.27      22.54
 79.07     486.00      22.05
 79.17     522.00      22.85
 79.27     532.57      23.08
 79.37     545.80      23.36
 79.47     539.46      23.23
 79.57     540.75      23.25
 79.67     550.00      23.45
 79.77     477.00      21.84
 79.87     516.00      22.72
 79.97     508.00      22.54
 80.07     560.00      23.66
 80.17     537.00      23.17
 80.27     520.00      22.80
 80.37     581.34      24.11
 80.47     529.00      23.00
 80.57     583.00      24.15
 80.67     572.00      23.92
 80.77     619.88      24.90
 80.87     663.00      25.75
 80.97     604.00      24.58
 81.07     699.00      26.44
 81.17     703.00      26.51
 81.27     722.87      26.89
 81.37     738.00      27.17
 81.47     725.00      26.93
 81.57     768.00      27.71
 81.67     740.18      27.21
 81.77     829.00      28.79
 81.87     729.82      27.02
 81.97     742.00      27.24
 82.07     679.80      26.07
 82.17     678.00      26.04
 82.27     675.00      25.98
 82.37     610.00      24.70
 82.47     584.00      24.17
 82.57     596.62      24.43
 82.67     614.00      24.78
 82.77     578.00      24.04
 82.87     533.43      23.10
 82.97     530.00      23.02
 83.07     495.00      22.25
 83.17     500.87      22.38
 83.27     595.00      24.39
 83.37     579.00      24.06
 83.47     569.85      23.87
 83.57     572.83      23.93
 83.67     567.00      23.81
 83.77     568.00      23.83
 83.87     569.54      23.87
 83.97     512.00      22.63
 84.07     585.12      24.19
 84.17     547.00      23.39
 84.27     593.78      24.37
 84.37     552.00      23.49
 84.47     565.93      23.79
 84.57     507.00      22.52
 84.67     494.00      22.23
 84.77     530.00      23.02
 84.87     521.00      22.83
 84.97     505.89      22.49
 85.07     478.58      21.88
 85.17     513.27      22.66
 85.27     566.00      23.79
 85.37     510.70      22.60
 85.47     516.00      22.72
 85.57     520.89      22.82
 85.67     542.00      23.28
 85.77     499.00      22.34
 85.87     515.48      22.70
 85.97     471.70      21.72
 86.07     539.00      23.22
 86.17     535.00      23.13
 86.27     488.98      22.11
 86.37     504.12      22.45
 86.47     512.92      22.65
 86.57     577.00      24.02
 86.67     566.00      23.79
 86.77     567.00      23.81
 86.87     550.00      23.45
 86.97     567.00      23.81
 87.07     579.00      24.06
 87.17     573.00      23.94
 87.27     656.18      25.62
 87.37     625.03      25.00
 87.47     595.65      24.41
 87.57     642.00      25.34
 87.67     577.02      24.02
 87.77     600.08      24.50
 87.87     563.01      23.73
 87.97     637.00      25.24
 88.07     591.00      24.31
 88.17     620.00      24.90
 88.27     565.01      23.77
 88.37     566.00      23.79
 88.47     522.25      22.85
 88.57     565.00      23.77
 88.67     595.00      24.39
 88.77     569.00      23.85
 88.87     582.02      24.13
 88.97     572.00      23.92
 89.07     598.00      24.45
 89.17     599.00      24.47
 89.27     566.00      23.79
 89.37     582.07      24.13
 89.47     589.70      24.28
 89.57     617.00      24.84
 89.67     596.00      24.41
 89.77     552.21      23.50
 89.87     520.00      22.80
 89.97     536.00      23.15
 90.07     556.00      23.58
 90.17     587.00      24.23
 90.27     539.00      23.22
 90.37     578.62      24.05
 90.47     480.00      21.91
 90.57     494.00      22.23
 90.67     540.00      23.24
 90.77     520.00      22.80
 90.87     545.00      23.35
 90.97     507.00      22.52
 91.07     478.00      21.86
 91.17     522.00      22.85
 91.27     527.00      22.96
 91.37     527.00      22.96
 91.47     495.00      22.25
 91.57     532.00      23.07
 91.67     520.00      22.80
 91.77     527.55      22.97
 91.87     494.00      22.23
 91.97     522.00      22.85
 92.07     559.00      23.64
 92.17     593.74      24.37
 92.27     589.00      24.27
 92.37     544.00      23.32
 92.47     541.00      23.26
 92.57     582.85      24.14
 92.67     674.00      25.96
 92.77     684.00      26.15
 92.87     661.00      25.71
 92.97     690.86      26.28
 93.07     694.00      26.34
 93.17     770.09      27.75
 93.27     779.00      27.91
 93.37     753.66      27.45
 93.47     836.00      28.91
 93.57     779.00      27.91
 93.67     845.00      29.07
 93.77     769.91      27.75
 93.87     889.00      29.82
 93.97     790.00      28.11
 94.07     882.96      29.71
 94.17     881.00      29.68
 94.27     887.00      29.78
 94.37     890.00      29.83
 94.47     894.00      29.90
 94.57     872.00      29.53
 94.67     939.00      30.64
 94.77     915.00      30.25
 94.87     925.00      30.41
 94.97     911.85      30.20
 95.07     907.00      30.12
 95.17     869.00      29.48
 95.27     870.00      29.50
 95.37     910.00      30.17
 95.47     766.00      27.68
 95.57     772.00      27.78
 95.67     717.00      26.78
 95.77     769.00      27.73
 95.87     661.02      25.71
 95.97     709.45      26.64
 96.07     664.00      25.77
 96.17     648.00      25.46
 96.27     663.00      25.75
 96.37     703.00      26.51
 96.47     748.00      27.35
 96.57     767.85      27.71
 96.67     853.00      29.21
 96.77     861.09      29.34
 96.87     936.00      30.59
 96.97    1024.00      32.00
 97.07    1127.00      33.57
 97.17    1214.00      34.84
 97.27    1263.00      35.54
 97.37    1384.24      37.21
 97.47    1381.00      37.16
 97.57    1422.82      37.72
 97.67    1504.00      38.78
 97.77    1420.69      37.69
 97.87    1448.52      38.06
 97.97    1371.00      37.03
 98.07    1309.02      36.18
 98.17    1228.00      35.04
 98.27    1227.00      35.03
 98.37    1055.56      32.49
 98.47    1023.00      31.98
 98.57     952.00      30.85
 98.67     905.00      30.08
 98.77     874.45      29.57
 98.87     805.48      28.38
 98.97     849.27      29.14
 99.07     829.10      28.79
 99.17     804.79      28.37
 99.27     786.00      28.04
 99.37     828.00      28.77
 99.47     897.00      29.95
 99.57    1001.00      31.64
 99.67    1062.00      32.59
 99.77    1162.00      34.09
 99.87    1217.00      34.89
 99.97    1270.08      35.64
100.07    1422.88      37.72
100.17    1610.86      40.14
100.27    1722.00      41.50
100.37    1726.00      41.55
100.47    1849.00      43.00
100.57    1980.00      44.50
100.67    2032.50      45.08
100.77    2171.00      46.59
100.87    2091.79      45.74
100.97    2022.87      44.98
101.07    2135.00      46.21
101.17    2111.00      45.95
101.27    1908.61      43.69
101.37    2039.00      45.16
101.47    1795.00      42.37
101.57    1709.00      41.34
101.67    1589.00      39.86
101.77    1509.00      38.85
101.87    1444.81      38.01
101.97    1397.00      37.38
102.07    1250.79      35.37
102.17    1208.45      34.76
102.27    1190.00      34.50
102.37    1154.00      33.97
102.47    1102.00      33.20
102.57    1063.00      32.60
102.67    1065.00      32.63
102.77    1071.94      32.74
102.87    1015.00      31.86
102.97    1043.00      32.30
103.07     978.00      31.27
103.17     916.00      30.27
103.27     923.54      30.39
103.37     810.00      28.46
103.47     845.00      29.07
103.57     793.00      28.16
103.67     769.00      27.73
103.77     708.00      26.61
103.87     697.00      26.40
103.97     616.00      24.82
104.07     612.00      24.74
104.17     641.00      25.32
104.27     618.00      24.86
104.37     563.49      23.74
104.47     516.00      22.72
104.57     551.08      23.48
104.67     555.25      23.56
104.77     543.49      23.31
104.87     485.76      22.04
104.97     545.00      23.35
105.07     470.80      21.70
105.17     524.00      22.89
105.27     512.00      22.63
105.37     547.18      23.39
105.47     534.00      23.11
105.57     494.00      22.23
105.67     510.00      22.58
105.77     518.00      22.76
105.87     497.00      22.29
105.97     513.00      22.65
106.07     564.00      23.75
106.17     584.00      24.17
106.27     544.00      23.32
106.37     595.56      24.40
106.47     551.49      23.48
106.57     655.00      25.59
106.67     593.00      24.35
106.77     604.67      24.59
106.87     608.76      24.67
106.97     669.00      25.87
107.07     635.13      25.20
107.17     676.82      26.02
107.27     651.02      25.52
107.37     593.00      24.35
107.47     721.00      26.85
107.57     687.00      26.21
107.67     693.46      26.33
107.77     664.00      25.77
107.87     648.00      25.46
107.97     705.13      26.55
108.07     669.00      25.87
108.17     664.20      25.77
108.27     646.00      25.42
108.37     693.54      26.34
108.47     714.24      26.73
108.57     677.00      26.02
108.67     663.57      25.76
108.77     712.81      26.70
108.87     661.45      25.72
108.97     683.00      26.13
109.07     638.00      25.26
109.17     672.38      25.93
109.27     667.00      25.83
109.37     659.00      25.67
109.47     613.00      24.76
109.57     581.00      24.10
109.67     621.00      24.92
109.77     605.00      24.60
109.87     644.00      25.38
109.97     596.00      24.41
110.07     562.00      23.71
110.17     617.12      24.84
110.27     571.00      23.90
110.37     531.13      23.05
110.47     565.00      23.77
110.57     510.43      22.59
110.67     497.59      22.31
110.77     524.00      22.89
110.87     512.00      22.63
110.97     497.71      22.31
111.07     476.20      21.82
111.17     525.00      22.91
111.27     505.00      22.47
111.37     520.00      22.80
111.47     522.57      22.86
111.57     538.00      23.19
111.67     523.00      22.87
111.77     552.00      23.49
111.87     527.00      22.96
111.97     496.89      22.29
112.07     567.14      23.81
112.17     549.00      23.43
112.27     534.77      23.13
112.37     564.13      23.75
112.47     603.00      24.56
112.57     530.00      23.02
112.67     608.00      24.66
112.77     567.00      23.81
112.87     607.00      24.64
112.97     606.16      24.62
113.07     613.00      24.76
113.17     641.00      25.32
113.27     674.00      25.96
113.37     712.86      26.70
113.47     751.00      27.40
113.57     767.00      27.69
113.67     746.54      27.32
113.77     816.00      28.57
113.87     851.05      29.17
113.97     910.00      30.17
114.07     902.94      30.05
114.17     955.98      30.92
114.27    1093.00      33.06
114.37    1198.00      34.61
114.47    1208.00      34.76
114.57    1313.47      36.24
114.67    1423.00      37.72
114.77    1478.50      38.45
114.87    1679.00      40.98
114.97    1822.00      42.68
115.07    2085.80      45.67
115.17    2261.16      47.55
115.27    2625.00      51.23
115.37    2715.00      52.11
115.47    2944.72      54.27
115.57    3246.00      56.97
115.67    3738.33      61.14
115.77    4013.00      63.35
115.87    4299.00      65.57
115.97    4874.50      69.82
116.07    5144.81      71.73
116.17    5542.00      74.44
116.27    6151.99      78.43
116.37    6375.00      79.84
116.47    6667.00      81.65
116.57    6915.59      83.16
116.67    7127.00      84.42
116.77    7142.12      84.51
116.87    7292.00      85.39
116.97    7106.00      84.30
117.07    7111.00      84.33
117.17    6865.00      82.86
117.27    6467.00      80.42
117.37    6194.00      78.70
117.47    5869.36      76.61
117.57    5262.00      72.54
117.67    5011.00      70.79
117.77    4571.15      67.61
117.87    4405.00      66.37
117.97    3918.52      62.60
118.07    3635.00      60.29
118.17    3282.00      57.29
118.27    2782.93      52.75
118.37    2632.00      51.30
118.47    2240.00      47.33
118.57    1948.00      44.14
118.67    1696.36      41.19
118.77    1600.00      40.00
118.87    1332.00      36.50
118.97    1177.84      34.32
119.07    1082.22      32.90
119.17    1057.00      32.51
119.27     964.31      31.05
119.37     847.00      29.10
119.47     791.00      28.12
119.57     756.00      27.50
119.67     698.00      26.42
119.77     744.90      27.29
119.87     635.86      25.22
119.97     625.00      25.00
120.07     600.07      24.50
120.17     660.02      25.69
120.27     612.56      24.75
120.37     561.01      23.69
120.47     556.00      23.58
120.57     564.00      23.75
120.67     555.00      23.56
120.77     604.80      24.59
120.87     564.00      23.75
120.97     601.00      24.52
121.07     541.00      23.26
121.17     556.00      23.58
121.27     568.31      23.84
121.37     558.00      23.62
121.47     545.51      23.36
121.57     520.60      22.82
121.67     578.96      24.06
121.77     546.00      23.37
121.87     589.00      24.27
121.97     592.00      24.33
122.07     627.89      25.06
122.17     608.00      24.66
122.27     612.00      24.74
122.37     591.00      24.31
122.47     580.00      24.08
122.57     616.00      24.82
122.67     576.30      24.01
122.77     651.00      25.51
122.87     613.13      24.76
122.97     654.00      25.57
123.07     638.00      25.26
123.17     638.00      25.26
123.27     640.00      25.30
123.37     621.00      24.92
123.47     634.00      25.18
123.57     669.57      25.88
123.67     605.68      24.61
123.77     606.00      24.62
123.87     648.00      25.46
123.97     582.00      24.12
124.07     644.00      25.38
124.17     656.00      25.61
124.27     610.00      24.70
124.37     555.22      23.56
124.47     621.97      24.94
124.57     572.00      23.92
124.67     603.00      24.56
124.77     609.00      24.68
124.87     580.00      24.08
124.97     606.00      24.62
