  9.97     730.00      27.02
 10.07     668.60      25.86
 10.17     690.00      26.27
 10.27     697.62      26.41
 10.37     693.89      26.34
 10.47     643.50      25.37
 10.57     731.00      27.04
 10.67     655.63      25.61
 10.77     739.00      27.18
 10.87     685.81      26.19
 10.97     685.72      26.19
 11.07     659.91      25.69
 11.17     714.00      26.72
 11.27     656.00      25.61
 11.37     711.00      26.66
 11.47     718.00      26.80
 11.57     681.00      26.10
 11.67     699.16      26.44
 11.77     765.00      27.66
 11.87     736.97      27.15
 11.97     762.00      27.60
 12.07     730.37      27.03
 12.17     816.00      28.57
 12.27     800.00      28.28
 12.37     826.00      28.74
 12.47     759.00      27.55
 12.57     778.00      27.89
 12.67     747.89      27.35
 12.77     613.00      24.76
 12.87     682.00      26.12
 12.97     687.00      26.21
 13.07     648.00      25.46
 13.17     673.00      25.94
 13.27     635.00      25.20
 13.37     672.00      25.92
 13.47     616.63      24.83
 13.57     632.00      25.14
 13.67     668.00      25.85
 13.77     633.60      25.17
 13.87     648.28      25.46
 13.97     665.00      25.79
 14.07     635.00      25.20
 14.17     676.00      26.00
 14.27     636.00      25.22
 14.37     686.00      26.19
 14.47     680.00      26.08
 14.57     626.44      25.03
 14.67     646.00      25.42
 14.77     600.00      24.49
 14.87     650.50      25.50
 14.97     604.00      24.58
 15.07     696.93      26.40
 15.17     645.39      25.40
 15.27     624.00      24.98
 15.37     619.00      24.88
 15.47     636.00      25.22
 15.57     611.00      24.72
 15.67     633.00      25.16
 15.77     610.00      24.70
 15.87     646.00      25.42
 15.97     633.00      25.16
 16.07     692.85      26.32
 16.17     606.12      24.62
 16.27     603.00      24.56
 16.37     600.00      24.49
 16.47     638.68      25.27
 16.57     658.00      25.65
 16.67     581.00      24.10
 16.77     621.00      24.92
 16.87     664.00      25.77
 16.97     602.00      24.54
 17.07     601.93      24.53
 17.17     607.00      24.64
 17.27     639.00      25.28
 17.37     667.00      25.83
 17.47     623.00      24.96
 17.57     614.00      24.78
 17.67     645.00      25.40
 17.77     673.00      25.94
 17.87     618.00      24.86
 17.97     590.00      24.29
 18.07     595.00      24.39
 18.17     582.18      24.13
 18.27     609.00      24.68
 18.37     641.49      25.33
 18.47     602.00      24.54
 18.57     618.00      24.86
 18.67     577.00      24.02
 18.77     662.83      25.75
 18.87     621.27      24.93
 18.97     630.00      25.10
 19.07     602.00      24.54
 19.17     623.00      24.96
 19.27     618.00      24.86
 19.37     652.37      25.54
 19.47     571.00      23.90
 19.57     597.00      24.43
 19.67     605.00      24.60
 19.77     665.83      25.80
 19.87     611.00      24.72
 19.97     660.24      25.70
 20.07     637.00      25.24
 20.17     628.00      25.06
 20.27     649.38      25.48
 20.37     584.30      24.17
 20.47     613.00      24.76
 20.57     650.00      25.50
 20.67     632.01      25.14
 20.77     598.00      24.45
 20.87     617.00      24.84
 20.97     647.00      25.44
 21.07     596.00      24.41
 21.17     660.29      25.70
 21.27     665.90      25.81
 21.37     631.00      25.12
 21.47     577.64      24.03
 21.57     585.35      24.19
 21.67     608.00      24.66
 21.77     583.00      24.15
 21.87     593.00      24.35
 21.97     636.00      25.22
 22.07     630.29      25.11
 22.17     589.00      24.27
 22.27     632.00      25.14
 22.37     580.00      24.08
 22.47     641.46      25.33
 22.57     661.63      25.72
 22.67     608.92      24.68
 22.77     566.64      23.80
 22.87     617.00      24.84
 22.97     619.00      24.88
 23.07     610.00      24.70
 23.17     614.57      24.79
 23.27     578.28      24.05
 23.37     575.81      24.00
 23.47     600.00      24.49
 23.57     630.00      25.10
 23.67     606.70      24.63
 23.77     604.00      24.58
 23.87     612.51      24.75
 23.97     600.61      24.51
 24.07     620.00      24.90
 24.17     580.11      24.09
 24.27     604.00      24.58
 24.37     635.00      25.20
 24.47     606.00      24.62
 24.57     688.00      26.23
 24.67     621.19      24.92
 24.77     690.00      26.27
 24.87     720.96      26.85
 24.97     738.00      27.17
 25.07     710.00      26.65
 25.17     690.00      26.27
 25.27     676.00      26.00
 25.37     680.40      26.08
 25.47     604.00      24.58
 25.57     638.46      25.27
 25.67     641.00      25.32
 25.77     665.21      25.79
 25.87     609.00      24.68
 25.97     616.00      24.82
 26.07     652.00      25.53
 26.17     636.77      25.23
 26.27     673.35      25.95
 26.37     654.65      25.59
 26.47     636.00      25.22
 26.57     627.00      25.04
 26.67     610.77      24.71
 26.77     638.00      25.26
 26.87     657.00      25.63
 26.97     720.00      26.83
 27.07     686.00      26.19
 27.17     673.00      25.94
 27.27     705.00      26.55
 27.37     730.72      27.03
 27.47     675.04      25.98
 27.57     720.00      26.83
 27.67     818.00      28.60
 27.77     815.33      28.55
 27.87    1016.00      31.87
 27.97    1387.67      37.25
 28.07    1872.00      43.27
 28.17    3034.00      55.08
 28.27    4673.27      68.36
 28.37    5754.87      75.86
 28.47    6307.00      79.42
 28.57    5221.67      72.26
 28.67    3861.66      62.14
 28.77    3004.00      54.81
 28.87    2759.00      52.53
 28.97    3040.00      55.14
 29.07    3603.00      60.02
 29.17    3446.65      58.71
 29.27    3062.00      55.34
 29.37    2254.18      47.48
 29.47    1577.00      39.71
 29.57    1201.00      34.66
 29.67    1016.00      31.87
 29.77     798.44      28.26
 29.87     818.91      28.62
 29.97     718.78      26.81
 30.07     686.28      26.20
 30.17     734.00      27.09
 30.27     663.00      25.75
 30.37     699.68      26.45
 30.47     679.00      26.06
 30.57     619.00      24.88
 30.67     703.00      26.51
 30.77     705.00      26.55
 30.87     692.11      26.31
 30.97     739.52      27.19
 31.07     719.50      26.82
 31.17     772.00      27.78
 31.27     735.00      27.11
 31.37     724.70      26.92
 31.47     668.86      25.86
 31.57     600.91      24.51
 31.67     579.14      24.07
 31.77     694.00      26.34
 31.87     646.00      25.42
 31.97     625.00      25.00
 32.07     609.00      24.68
 32.17     576.07      24.00
 32.27     657.00      25.63
 32.37     675.00      25.98
 32.47     625.00      25.00
 32.57     609.00      24.68
 32.67     563.00      23.73
 32.77     629.00      25.08
 32.87     624.18      24.98
 32.97     604.95      24.60
 33.07     642.00      25.34
 33.17     649.00      25.48
 33.27     597.00      24.43
 33.37     636.00      25.22
 33.47     601.00      24.52
 33.57     626.00      25.02
 33.67     685.06      26.17
 33.77     661.00      25.71
 33.87     744.00      27.28
 33.97     802.00      28.32
 34.07     938.86      30.64
 34.17    1121.00      33.48
 34.27    1221.00      34.94
 34.37    1168.00      34.18
 34.47    1038.73      32.23
 34.57     959.00      30.97
 34.67     767.00      27.69
 34.77     722.53      26.88
 34.87     691.75      26.30
 34.97     654.00      25.57
 35.07     657.00      25.63
 35.17     658.00      25.65
 35.27     646.00      25.42
 35.37     614.00      24.78
 35.47     576.00      24.00
 35.57     608.91      24.68
 35.67     587.02      24.23
 35.77     610.00      24.70
 35.87     582.00      24.12
 35.97     607.00      24.64
 36.07     628.97      25.08
 36.17     536.00      23.15
 36.27     559.00      23.64
 36.37     606.00      24.62
 36.47     576.92      24.02
 36.57     566.27      23.80
 36.67     591.00      24.31
 36.77     589.00      24.27
 36.87     554.74      23.55
 36.97     610.33      24.70
 37.07     554.97      23.56
 37.17     591.57      24.32
 37.27     601.87      24.53
 37.37     537.35      23.18
 37.47     560.00      23.66
 37.57     572.00      23.92
 37.67     575.00      23.98
 37.77     608.00      24.66
 37.87     608.51      24.67
 37.97     598.00      24.45
 38.07     717.63      26.79
 38.17     651.00      25.51
 38.27     722.08      26.87
 38.37     743.81      27.27
 38.47     649.00      25.48
 38.57     612.00      24.74
 38.67     589.00      24.27
 38.77     610.00      24.70
 38.87     643.09      25.36
 38.97     599.00      24.47
 39.07     574.00      23.96
 39.17     599.00      24.47
 39.27     594.00      24.37
 39.37     572.00      23.92
 39.47     584.00      24.17
 39.57     561.39      23.69
 39.67     560.00      23.66
 39.77     531.00      23.04
 39.87     525.39      22.92
 39.97     566.47      23.80
 40.07     556.00      23.58
 40.17     529.80      23.02
 40.27     530.00      23.02
 40.37     552.00      23.49
 40.47     564.00      23.75
 40.57     548.00      23.41
 40.67     578.00      24.04
 40.77     628.00      25.06
 40.87     574.00      23.96
 40.97     573.00      23.94
 41.07     550.89      23.47
 41.17     594.00      24.37
 41.27     559.81      23.66
 41.37     580.35      24.09
 41.47     573.00      23.94
 41.57     652.00      25.53
 41.67     582.00      24.12
 41.77     569.00      23.85
 41.87     580.00      24.08
 41.97     566.70      23.81
 42.07     582.00      24.12
 42.17     573.00      23.94
 42.27     560.00      23.66
 42.37     529.00      23.00
 42.47     574.27      23.96
 42.57     645.80      25.41
 42.67     598.00      24.45
 42.77     664.00      25.77
 42.87     638.00      25.26
 42.97     703.15      26.52
 43.07     600.00      24.49
 43.17     652.00      25.53
 43.27     631.13      25.12
 43.37     644.28      25.38
 43.47     616.00      24.82
 43.57     567.00      23.81
 43.67     609.00      24.68
 43.77     559.04      23.64
 43.87     576.00      24.00
 43.97     605.00      24.60
 44.07     616.00      24.82
 44.17     577.00      24.02
 44.27     550.00      23.45
 44.37     565.00      23.77
 44.47     580.00      24.08
 44.57     560.00      23.66
 44.67     516.00      22.72
 44.77     567.00      23.81
 44.87     616.47      24.83
 44.97     609.00      24.68
 45.07     576.00      24.00
 45.17     607.15      24.64
 45.27     563.77      23.74
 45.37     608.00      24.66
 45.47     566.00      23.79
 45.57     528.00      22.98
 45.67     607.00      24.64
 45.77     616.00      24.82
 45.87     567.43      23.82
 45.97     599.00      24.47
 46.07     575.43      23.99
 46.17     575.00      23.98
 46.27     589.00      24.27
 46.37     615.51      24.81
 46.47     552.37      23.50
 46.57     588.00      24.25
 46.67     583.00      24.15
 46.77     594.00      24.37
 46.87     540.27      23.24
 46.97     573.00      23.94
 47.07     609.82      24.69
 47.17     587.00      24.23
 47.27     601.27      24.52
 47.37     590.54      24.30
 47.47     601.00      24.52
 47.57     609.68      24.69
 47.67     579.00      24.06
 47.77     647.46      25.45
 47.87     620.00      24.90
 47.97     648.93      25.47
 48.07     635.00      25.20
 48.17     671.00      25.90
 48.27     664.00      25.77
 48.37     651.10      25.52
 48.47     616.00      24.82
 48.57     610.00      24.70
 48.67     604.00      24.58
 48.77     622.00      24.94
 48.87     599.00      24.47
 48.97     623.96      24.98
 49.07     649.00      25.48
 49.17     603.00      24.56
 49.27     617.00      24.84
 49.37     604.00      24.58
 49.47     611.14      24.72
 49.57     675.77      26.00
 49.67     690.42      26.28
 49.77     715.00      26.74
 49.87     793.00      28.16
 49.97    1022.81      31.98
 50.07    1338.23      36.58
 50.17    1700.00      41.23
 50.27    2080.00      45.61
 50.37    2515.95      50.16
 50.47    2836.00      53.25
 50.57    3048.00      55.21
 50.67    2624.16      51.23
 50.77    2379.01      48.78
 50.87    1875.14      43.30
 50.97    1526.69      39.07
 51.07    1154.00      33.97
 51.17     921.65      30.36
 51.27     806.00      28.39
 51.37     774.00      27.82
 51.47     752.00      27.42
 51.57     747.80      27.35
 51.67     733.00      27.07
 51.77     709.00      26.63
 51.87     656.00      25.61
 51.97     655.56      25.60
 52.07     704.00      26.53
 52.17     660.00      25.69
 52.27     685.51      26.18
 52.37     677.31      26.03
 52.47     668.24      25.85
 52.57     646.87      25.43
 52.67     655.47      25.60
 52.77     665.19      25.79
 52.87     679.00      26.06
 52.97     656.59      25.62
 53.07     725.00      26.93
 53.17     716.00      26.76
 53.27     769.00      27.73
 53.37     758.86      27.55
 53.47     944.39      30.73
 53.57    1000.00      31.62
 53.67    1176.00      34.29
 53.77    1176.00      34.29
 53.87    1315.17      36.27
 53.97    1268.00      35.61
 54.07    1255.70      35.44
 54.17    1108.91      33.30
 54.27     986.00      31.40
 54.37     879.31      29.65
 54.47     792.00      28.14
 54.57     765.00      27.66
 54.67     733.99      27.09
 54.77     703.00      26.51
 54.87     649.00      25.48
 54.97     670.00      25.88
 55.07     640.00      25.30
 55.17     682.70      26.13
 55.27     618.00      24.86
 55.37     642.00      25.34
 55.47     646.00      25.42
 55.57     653.85      25.57
 55.67     661.00      25.71
 55.77     679.81      26.07
 55.87     685.00      26.17
 55.97     718.00      26.80
 56.07     700.68      26.47
 56.17     682.00      26.12
 56.27     716.76      26.77
 56.37     784.00      28.00
 56.47     818.00      28.60
 56.57     975.00      31.22
 56.67    1170.58      34.21
 56.77    1404.00      37.47
 56.87    1604.30      40.05
 56.97    2012.00      44.86
 57.07    2288.10      47.83
 57.17    2564.00      50.64
 57.27    2664.93      51.62
 57.37    2670.18      51.67
 57.47    2286.36      47.82
 57.57    1987.75      44.58
 57.67    1742.49      41.74
 57.77    1396.00      37.36
 57.87    1204.42      34.70
 57.97    1028.00      32.06
 58.07     927.75      30.46
 58.17     879.33      29.65
 58.27     757.00      27.51
 58.37     772.00      27.78
 58.47     749.00      27.37
 58.57     833.00      28.86
 58.67     811.85      28.49
 58.77     895.93      29.93
 58.87     961.00      31.00
 58.97    1006.00      31.72
 59.07    1180.00      34.35
 59.17    1223.00      34.97
 59.27    1287.04      35.88
 59.37    1257.00      35.45
 59.47    1253.45      35.40
 59.57    1292.00      35.94
 59.67    1347.00      36.70
 59.77    1221.53      34.95
 59.87    1198.00      34.61
 59.97    1217.09      34.89
 60.07    1199.06      34.63
 60.17    1289.00      35.90
 60.27    1359.00      36.86
 60.37    1449.00      38.07
 60.47    1522.36      39.02
 60.57    1690.00      41.11
 60.67    1610.00      40.12
 60.77    1477.08      38.43
 60.87    1392.00      37.31
 60.97    1306.32      36.14
 61.07    1195.00      34.57
 61.17     968.82      31.13
 61.27     952.00      30.85
 61.37     805.00      28.37
 61.47     808.95      28.44
 61.57     764.00      27.64
 61.67     784.00      28.00
 61.77     776.00      27.86
 61.87     823.00      28.69
 61.97     910.00      30.17
 62.07    1014.00      31.84
 62.17    1168.38      34.18
 62.27    1267.56      35.60
 62.37    1423.00      37.72
 62.47    1543.00      39.28
 62.57    1610.00      40.12
 62.67    1567.00      39.59
 62.77    1549.98      39.37
 62.87    1498.54      38.71
 62.97    1252.00      35.38
 63.07    1104.00      33.23
 63.17    1046.30      32.35
 63.27     916.46      30.27
 63.37     837.00      28.93
 63.47     765.00      27.66
 63.57     740.00      27.20
 63.67     690.00      26.27
 63.77     685.11      26.17
 63.87     711.00      26.66
 63.97     712.00      26.68
 64.07     654.00      25.57
 64.17     751.00      27.40
 64.27     749.00      27.37
 64.37     810.00      28.46
 64.47     786.64      28.05
 64.57     903.02      30.05
 64.67    1006.14      31.72
 64.77    1069.49      32.70
 64.87    1274.00      35.69
 64.97    1294.00      35.97
 65.07    1318.86      36.32
 65.17    1427.00      37.78
 65.27    1394.75      37.35
 65.37    1386.00      37.23
 65.47    1186.24      34.44
 65.57    1231.00      35.09
 65.67    1105.00      33.24
 65.77    1006.01      31.72
 65.87     906.00      30.10
 65.97     833.42      28.87
 66.07     752.00      27.42
 66.17     733.00      27.07
 66.27     702.00      26.50
 66.37     759.84      27.57
 66.47     703.66      26.53
 66.57     640.00      25.30
 66.67     715.00      26.74
 66.77     646.00      25.42
 66.87     639.00      25.28
 66.97     661.00      25.71
 67.07     625.00      25.00
 67.17     638.00      25.26
 67.27     672.00      25.92
 67.37     775.67      27.85
 67.47     720.00      26.83
 67.57     792.00      28.14
 67.67     889.00      29.82
 67.77     933.23      30.55
 67.87    1129.00      33.60
 67.97    1308.21      36.17
 68.07    1527.33      39.08
 68.17    1707.43      41.32
 68.27    2008.32      44.81
 68.37    2143.80      46.30
 68.47    2482.80      49.83
 68.57    2619.00      51.18
 68.67    2360.84      48.59
 68.77    2297.00      47.93
 68.87    2126.00      46.11
 68.97    1895.00      43.53
 69.07    1635.28      40.44
 69.17    1432.00      37.84
 69.27    1260.00      35.50
 69.37    1091.18      33.03
 69.47    1000.00      31.62
 69.57     887.13      29.78
 69.67     855.00      29.24
 69.77     743.00      27.26
 69.87     720.59      26.84
 69.97     667.14      25.83
 70.07     688.00      26.23
 70.17     718.00      26.80
 70.27     657.00      25.63
 70.37     669.00      25.87
 70.47     715.00      26.74
 70.57     620.11      24.90
 70.67     667.00      25.83
 70.77     643.00      25.36
 70.87     743.00      27.26
 70.97     674.88      25.98
 71.07     676.00      26.00
 71.17     635.38      25.21
 71.27     723.00      26.89
 71.37     730.00      27.02
 71.47     749.00      27.37
 71.57     788.00      28.07
 71.67     826.78      28.75
 71.77     920.00      30.33
 71.87    1035.00      32.17
 71.97    1198.00      34.61
 72.07    1317.00      36.29
 72.17    1522.27      39.02
 72.27    1615.00      40.19
 72.37    1824.00      42.71
 72.47    1869.00      43.23
 72.57    1951.88      44.18
 72.67    1962.72      44.30
 72.77    1880.86      43.37
 72.87    1696.00      41.18
 72.97    1511.00      38.87
 73.07    1447.86      38.05
 73.17    1248.00      35.33
 73.27    1009.00      31.76
 73.37     957.28      30.94
 73.47     858.00      29.29
 73.57     837.00      28.93
 73.67     729.00      27.00
 73.77     709.00      26.63
 73.87     743.00      27.26
 73.97     646.00      25.42
 74.07     679.00      26.06
 74.17     651.00      25.51
 74.27     635.00      25.20
 74.37     619.16      24.88
 74.47     671.62      25.92
 74.57     588.00      24.25
 74.67     635.00      25.20
 74.77     665.00      25.79
 74.87     732.00      27.06
 74.97     664.00      25.77
 75.07     701.68      26.49
 75.17     692.00      26.31
 75.27     719.00      26.81
 75.37     709.00      26.63
 75.47     687.44      26.22
 75.57     706.00      26.57
 75.67     670.00      25.88
 75.77     640.36      25.31
 75.87     681.00      26.10
 75.97     618.88      24.88
 76.07     623.00      24.96
 76.17     610.00      24.70
 76.27     659.00      25.67
 76.37     664.24      25.77
 76.47     759.26      27.55
 76.57     739.00      27.18
 76.67     745.00      27.29
 76.77     877.00      29.61
 76.87     869.00      29.48
 76.97     876.00      29.60
 77.07     887.00      29.78
 77.17     957.26      30.94
 77.27     869.91      29.49
 77.37     921.18      30.35
 77.47     860.00      29.33
 77.57     814.00      28.53
 77.67     745.00      27.29
 77.77     736.00      27.13
 77.87     766.34      27.68
 77.97     685.00      26.17
 78.07     704.99      26.55
 78.17     661.00      25.71
 78.27     663.00      25.75
 78.37     557.00      23.60
 78.47     608.00      24.66
 78.57     650.94      25.51
 78.67     635.48      25.21
 78.77     605.59      24.61
 78.87     635.00      25.20
 78.97     629.00      25.08
 79.07     595.09      24.39
 79.17     589.00      24.27
 79.27     600.00      24.49
 79.37     552.00      23.49
 79.47     642.33      25.34
 79.57     620.00      24.90
 79.67     568.00      23.83
 79.77     628.00      25.06
 79.87     579.00      24.06
 79.97     602.00      24.54
 80.07     596.00      24.41
 80.17     579.73      24.08
 80.27     630.42      25.11
 80.37     684.00      26.15
 80.47     694.14      26.35
 80.57     728.68      26.99
 80.67     711.49      26.67
 80.77     774.00      27.82
 80.87     833.00      28.86
 80.97     868.24      29.47
 81.07     896.00      29.93
 81.17    1016.00      31.87
 81.27    1028.00      32.06
 81.37    1119.63      33.46
 81.47    1152.54      33.95
 81.57    1188.00      34.47
 81.67    1224.00      34.99
 81.77    1241.00      35.23
 81.87    1147.71      33.88
 81.97    1294.00      35.97
 82.07    1159.00      34.04
 82.17    1101.00      33.18
 82.27    1102.00      33.20
 82.37     938.62      30.64
 82.47     984.90      31.38
 82.57     862.00      29.36
 82.67     826.00      28.74
 82.77     823.00      28.69
 82.87     768.09      27.71
 82.97     745.00      27.29
 83.07     669.00      25.87
 83.17     675.28      25.99
 83.27     641.00      25.32
 83.37     576.00      24.00
 83.47     613.95      24.78
 83.57     619.00      24.88
 83.67     601.00      24.52
 83.77     583.00      24.15
 83.87     591.00      24.31
 83.97     611.00      24.72
 84.07     675.10      25.98
 84.17     664.00      25.77
 84.27     634.15      25.18
 84.37     632.00      25.14
 84.47     638.00      25.26
 84.57     570.00      23.87
 84.67     642.00      25.34
 84.77     626.70      25.03
 84.87     627.27      25.05
 84.97     667.00      25.83
 85.07     598.99      24.47
 85.17     614.51      24.79
 85.27     621.00      24.92
 85.37     594.00      24.37
 85.47     640.96      25.32
 85.57     619.84      24.90
 85.67     601.00      24.52
 85.77     632.42      25.15
 85.87     557.00      23.60
 85.97     598.00      24.45
 86.07     566.00      23.79
 86.17     598.00      24.45
 86.27     607.00      24.64
 86.37     582.87      24.14
 86.47     633.00      25.16
 86.57     576.00      24.00
 86.67     608.22      24.66
 86.77     633.25      25.16
 86.87     591.00      24.31
 86.97     645.00      25.40
 87.07     658.00      25.65
 87.17     601.48      24.53
 87.27     639.00      25.28
 87.37     692.00      26.31
 87.47     636.00      25.22
 87.57     663.85      25.77
 87.67     724.00      26.91
 87.77     661.00      25.71
 87.87     719.39      26.82
 87.97     730.00      27.02
 88.07     646.23      25.42
 88.17     701.25      26.48
 88.27     705.53      26.56
 88.37     705.05      26.55
 88.47     703.00      26.51
 88.57     632.00      25.14
 88.67     723.00      26.89
 88.77     709.00      26.63
 88.87     673.00      25.94
 88.97     687.02      26.21
 89.07     616.00      24.82
 89.17     594.04      24.37
 89.27     648.00      25.46
 89.37     622.60      24.95
 89.47     646.06      25.42
 89.57     589.47      24.28
 89.67     595.95      24.41
 89.77     679.00      26.06
 89.87     624.00      24.98
 89.97     658.82      25.67
 90.07     646.22      25.42
 90.17     663.00      25.75
 90.27     667.00      25.83
 90.37     643.00      25.36
 90.47     591.18      24.31
 90.57     627.00      25.04
 90.67     602.00      24.54
 90.77     645.00      25.40
 90.87     629.00      25.08
 90.97     615.00      24.80
 91.07     623.51      24.97
 91.17     548.00      23.41
 91.27     591.00      24.31
 91.37     573.00      23.94
 91.47     605.00      24.60
 91.57     574.00      23.96
 91.67     617.00      24.84
 91.77     523.30      22.88
 91.87     542.55      23.29
 91.97     550.61      23.47
 92.07     547.66      23.40
 92.17     608.00      24.66
 92.27     587.00      24.23
 92.37     612.75      24.75
 92.47     584.00      24.17
 92.57     636.05      25.22
 92.67     601.30      24.52
 92.77     617.00      24.84
 92.87     614.08      24.78
 92.97     648.00      25.46
 93.07     652.00      25.53
 93.17     684.00      26.15
 93.27     673.00      25.94
 93.37     653.00      25.55
 93.47     746.27      27.32
 93.57     709.00      26.63
 93.67     712.39      26.69
 93.77     746.00      27.31
 93.87     783.00      27.98
 93.97     774.21      27.82
 94.07     787.59      28.06
 94.17     846.77      29.10
 94.27     833.00      28.86
 94.37     828.00      28.77
 94.47     875.34      29.59
 94.57     907.00      30.12
 94.67     834.00      28.88
 94.77     894.00      29.90
 94.87     883.20      29.72
 94.97     974.00      31.21
 95.07     932.01      30.53
 95.17    1019.00      31.92
 95.27    1036.57      32.20
 95.37    1006.83      31.73
 95.47     971.00      31.16
 95.57    1074.00      32.77
 95.67    1023.67      31.99
 95.77     961.00      31.00
 95.87     957.36      30.94
 95.97     974.67      31.22
 96.07     925.00      30.41
 96.17     889.00      29.82
 96.27     868.00      29.46
 96.37     819.57      28.63
 96.47     782.00      27.96
 96.57     855.00      29.24
 96.67     782.97      27.98
 96.77     864.00      29.39
 96.87     758.04      27.53
 96.97     866.00      29.43
 97.07     784.75      28.01
 97.17     914.00      30.23
 97.27     893.67      29.89
 97.37     985.00      31.38
 97.47    1092.00      33.05
 97.57    1193.00      34.54
 97.67    1185.28      34.43
 97.77    1297.00      36.01
 97.87    1336.00      36.55
 97.97    1450.00      38.08
 98.07    1517.78      38.96
 98.17    1494.00      38.65
 98.27    1514.00      38.91
 98.37    1521.15      39.00
 98.47    1602.00      40.02
 98.57    1587.76      39.85
 98.67    1558.16      39.47
 98.77    1417.85      37.65
 98.87    1356.00      36.82
 98.97    1397.00      37.38
 99.07    1298.00      36.03
 99.17    1217.00      34.89
 99.27    1137.00      33.72
 99.37    1001.00      31.64
 99.47     989.00      31.45
 99.57     911.00      30.18
 99.67     981.84      31.33
 99.77     992.82      31.51
 99.87     952.00      30.85
 99.97    1004.80      31.70
100.07    1070.00      32.71
100.17    1008.90      31.76
100.27    1166.00      34.15
100.37    1219.00      34.91
100.47    1271.15      35.65
100.57    1284.00      35.83
100.67    1472.00      38.37
100.77    1564.78      39.56
100.87    1669.00      40.85
100.97    1776.00      42.14
101.07    1784.00      42.24
101.17    1942.71      44.08
101.27    1984.00      44.54
101.37    2013.00      44.87
101.47    2043.00      45.20
101.57    2068.00      45.48
101.67    2013.24      44.87
101.77    2048.17      45.26
101.87    2086.00      45.67
101.97    1973.00      44.42
102.07    1980.00      44.50
102.17    1828.23      42.76
102.27    1898.65      43.57
102.37    1675.07      40.93
102.47    1626.00      40.32
102.57    1600.36      40.00
102.67    1463.00      38.25
102.77    1467.00      38.30
102.87    1507.34      38.82
102.97    1369.84      37.01
103.07    1357.21      36.84
103.17    1239.00      35.20
103.27    1352.33      36.77
103.37    1217.00      34.89
103.47    1183.00      34.39
103.57    1108.00      33.29
103.67    1193.00      34.54
103.77    1099.00      33.15
103.87    1042.00      32.28
103.97    1045.00      32.33
104.07    1037.82      32.22
104.17     946.12      30.76
104.27     931.00      30.51
104.37     870.00      29.50
104.47     918.00      30.30
104.57     832.99      28.86
104.67     732.39      27.06
104.77     750.56      27.40
104.87     748.00      27.35
104.97     703.00      26.51
105.07     650.00      25.50
105.17     683.06      26.14
105.27     617.00      24.84
105.37     669.00      25.87
105.47     616.07      24.82
105.57     635.00      25.20
105.67     617.37      24.85
105.77     646.00      25.42
105.87     592.35      24.34
105.97     576.00      24.00
106.07     632.00      25.14
106.17     609.65      24.69
106.27     572.00      23.92
106.37     616.75      24.83
106.47     552.92      23.51
106.57     599.00      24.47
106.67     636.00      25.22
106.77     611.00      24.72
106.87     632.00      25.14
106.97     589.54      24.28
107.07     587.00      24.23
107.17     686.87      26.21
107.27     669.00      25.87
107.37     704.00      26.53
107.47     689.00      26.25
107.57     675.51      25.99
107.67     759.98      27.57
107.77     755.00      27.48
107.87     745.00      27.29
107.97     752.57      27.43
108.07     730.00      27.02
108.17     764.00      27.64
108.27     782.00      27.96
108.37     770.00      27.75
108.47     770.00      27.75
108.57     767.30      27.70
108.67     797.00      28.23
108.77     730.00      27.02
108.87     749.00      27.37
108.97     730.00      27.02
109.07     724.00      26.91
109.17     753.00      27.44
109.27     719.00      26.81
109.37     801.07      28.30
109.47     758.02      27.53
109.57     718.40      26.80
109.67     792.43      28.15
109.77     757.00      27.51
109.87     721.00      26.85
109.97     713.86      26.72
110.07     720.00      26.83
110.17     728.00      26.98
110.27     733.00      27.07
110.37     708.00      26.61
110.47     722.00      26.87
110.57     731.00      27.04
110.67     655.00      25.59
110.77     668.15      25.85
110.87     639.00      25.28
110.97     723.23      26.89
111.07     696.14      26.38
111.17     679.00      26.06
111.27     638.40      25.27
111.37     623.14      24.96
111.47     618.57      24.87
111.57     581.15      24.11
111.67     613.00      24.76
111.77     607.00      24.64
111.87     572.00      23.92
111.97     593.65      24.36
112.07     597.00      24.43
112.17     577.32      24.03
112.27     607.00      24.64
112.37     556.73      23.60
112.47     610.00      24.70
112.57     551.00      23.47
112.67     540.00      23.24
112.77     616.00      24.82
112.87     544.08      23.33
112.97     597.00      24.43
113.07     622.00      24.94
113.17     555.85      23.58
113.27     599.00      24.47
113.37     631.69      25.13
113.47     609.63      24.69
113.57     628.00      25.06
113.67     643.92      25.38
113.77     619.14      24.88
113.87     625.00      25.00
113.97     643.00      25.36
114.07     673.41      25.95
114.17     674.00      25.96
114.27     654.00      25.57
114.37     651.00      25.51
114.47     697.79      26.42
114.57     630.00      25.10
114.67     719.00      26.81
114.77     717.12      26.78
114.87     797.00      28.23
114.97     890.00      29.83
115.07     869.94      29.49
115.17     887.00      29.78
115.27    1009.00      31.76
115.37    1105.00      33.24
115.47    1199.00      34.63
115.57    1326.00      36.41
115.67    1443.17      37.99
115.77    1680.00      40.99
115.87    1898.00      43.57
115.97    2112.00      45.96
116.07    2344.00      48.41
116.17    2564.00      50.64
116.27    2867.00      53.54
116.37    3329.56      57.70
116.47    3715.00      60.95
116.57    4040.00      63.56
116.67    4286.48      65.47
116.77    4708.35      68.62
116.87    5168.00      71.89
116.97    5524.00      74.32
117.07    6096.19      78.08
117.17    6413.00      80.08
117.27    6635.00      81.46
117.37    6963.99      83.45
117.47    7147.00      84.54
117.57    7220.16      84.97
117.67    7281.56      85.33
117.77    7415.15      86.11
117.87    7470.51      86.43
117.97    7414.00      86.10
118.07    6982.70      83.56
118.17    6797.00      82.44
118.27    6618.00      81.35
118.37    6423.62      80.15
118.47    5923.00      76.96
118.57    5622.00      74.98
118.67    5242.00      72.40
118.77    4897.00      69.98
118.87    4563.93      67.56
118.97    4164.30      64.53
119.07    3709.00      60.90
119.17    3283.61      57.30
119.27    3078.00      55.48
119.37    2802.00      52.93
119.47    2547.29      50.47
119.57    2221.00      47.13
119.67    1926.14      43.89
119.77    1918.00      43.79
119.87    1697.29      41.20
119.97    1602.00      40.02
120.07    1501.00      38.74
120.17    1310.00      36.19
120.27    1194.60      34.56
120.37    1129.00      33.60
120.47     985.99      31.40
120.57     971.48      31.17
120.67     890.08      29.83
120.77     848.00      29.12
120.87     860.00      29.33
120.97     815.00      28.55
121.07     764.00      27.64
121.17     753.55      27.45
121.27     737.93      27.16
121.37     716.74      26.77
121.47     685.00      26.17
121.57     680.00      26.08
121.67     743.00      27.26
121.77     689.00      26.25
121.87     692.00      26.31
121.97     654.00      25.57
122.07     706.00      26.57
122.17     680.00      26.08
122.27     671.00      25.90
122.37     698.90      26.44
122.47     648.62      25.47
122.57     672.00      25.92
122.67     663.91      25.77
122.77     661.00      25.71
122.87     617.00      24.84
122.97     649.00      25.48
123.07     709.00      26.63
123.17     684.00      26.15
123.27     750.00      27.39
123.37     703.40      26.52
123.47     707.00      26.59
123.57     723.92      26.91
123.67     713.00      26.70
123.77     774.61      27.83
123.87     741.00      27.22
123.97     691.00      26.29
124.07     739.89      27.20
124.17     743.00      27.26
124.27     674.00      25.96
124.37     773.00      27.80
124.47     730.00      27.02
124.57     710.59      26.66
124.67     700.56      26.47
124.77     723.09      26.89
124.87     731.00      27.04
124.97     672.45      25.93
