  9.97     624.00      24.98
 10.07     585.00      24.19
 10.17     549.62      23.44
 10.27     602.00      24.54
 10.37     548.41      23.42
 10.47     580.77      24.10
 10.57     614.00      24.78
 10.67     608.00      24.66
 10.77     558.92      23.64
 10.87     557.00      23.60
 10.97     600.00      24.49
 11.07     612.79      24.75
 11.17     580.00      24.08
 11.27     568.08      23.83
 11.37     615.00      24.80
 11.47     600.00      24.49
 11.57     569.88      23.87
 11.67     636.00      25.22
 11.77     575.50      23.99
 11.87     565.64      23.78
 11.97     668.00      25.85
 12.07     645.00      25.40
 12.17     647.00      25.44
 12.27     676.00      26.00
 12.37     648.00      25.46
 12.47     621.26      24.93
 12.57     625.00      25.00
 12.67     619.00      24.88
 12.77     520.00      22.80
 12.87     582.00      24.12
 12.97     527.45      22.97
 13.07     605.81      24.61
 13.17     534.00      23.11
 13.27     527.55      22.97
 13.37     566.00      23.79
 13.47     567.34      23.82
 13.57     564.00      23.75
 13.67     581.00      24.10
 13.77     559.32      23.65
 13.87     539.00      23.22
 13.97     607.53      24.65
 14.07     591.00      24.31
 14.17     617.00      24.84
 14.27     534.00      23.11
 14.37     575.70      23.99
 14.47     529.00      23.00
 14.57     554.19      23.54
 14.67     557.00      23.60
 14.77     500.00      22.36
 14.87     574.00      23.96
 14.97     570.00      23.87
 15.07     545.00      23.35
 15.17     548.83      23.43
 15.27     539.77      23.23
 15.37     575.74      23.99
 15.47     537.42      23.18
 15.57     543.00      23.30
 15.67     604.94      24.60
 15.77     536.00      23.15
 15.87     569.00      23.85
 15.97     600.68      24.51
 16.07     565.00      23.77
 16.17     548.00      23.41
 16.27     588.00      24.25
 16.37     552.29      23.50
 16.47     568.88      23.85
 16.57     543.00      23.30
 16.67     542.00      23.28
 16.77     571.58      23.91
 16.87     567.00      23.81
 16.97     562.00      23.71
 17.07     535.00      23.13
 17.17     575.30      23.99
 17.27     477.00      21.84
 17.37     567.00      23.81
 17.47     556.91      23.60
 17.57     552.00      23.49
 17.67     569.00      23.85
 17.77     571.78      23.91
 17.87     552.55      23.51
 17.97     551.00      23.47
 18.07     556.00      23.58
 18.17     570.39      23.88
 18.27     596.00      24.41
 18.37     513.00      22.65
 18.47     567.00      23.81
 18.57     544.00      23.32
 18.67     552.00      23.49
 18.77     535.00      23.13
 18.87     547.48      23.40
 18.97     565.00      23.77
 19.07     542.28      23.29
 19.17     525.00      22.91
 19.27     549.00      23.43
 19.37     563.00      23.73
 19.47     558.00      23.62
 19.57     559.82      23.66
 19.67     580.77      24.10
 19.77     539.92      23.24
 19.87     562.00      23.71
 19.97     559.00      23.64
 20.07     513.05      22.65
 20.17     546.00      23.37
 20.27     529.00      23.00
 20.37     571.33      23.90
 20.47     526.00      22.93
 20.57     524.00      22.89
 20.67     544.65      23.34
 20.77     543.00      23.30
 20.87     543.00      23.30
 20.97     579.19      24.07
 21.07     538.00      23.19
 21.17     526.52      22.95
 21.27     550.00      23.45
 21.37     511.00      22.61
 21.47     513.87      22.67
 21.57     586.00      24.21
 21.67     547.00      23.39
 21.77     546.03      23.37
 21.87     528.00      22.98
 21.97     523.00      22.87
 22.07     544.55      23.34
 22.17     556.00      23.58
 22.27     495.00      22.25
 22.37     549.00      23.43
 22.47     560.85      23.68
 22.57     517.97      22.76
 22.67     572.00      23.92
 22.77     508.00      22.54
 22.87     567.00      23.81
 22.97     562.91      23.73
 23.07     539.00      23.22
 23.17     546.00      23.37
 23.27     550.00      23.45
 23.37     520.00      22.80
 23.47     570.00      23.87
 23.57     587.00      24.23
 23.67     543.00      23.30
 23.77     532.00      23.07
 23.87     546.00      23.37
 23.97     567.00      23.81
 24.07     530.80      23.04
 24.17     578.40      24.05
 24.27     593.00      24.35
 24.37     560.27      23.67
 24.47     592.00      24.33
 24.57     609.00      24.68
 24.67     575.00      23.98
 24.77     614.39      24.79
 24.87     666.95      25.83
 24.97     603.00      24.56
 25.07     565.00      23.77
 25.17     569.00      23.85
 25.27     575.00      23.98
 25.37     553.00      23.52
 25.47     573.00      23.94
 25.57     574.89      23.98
 25.67     567.00      23.81
 25.77     586.90      24.23
 25.87     584.00      24.17
 25.97     546.00      23.37
 26.07     563.00      23.73
 26.17     584.00      24.17
 26.27     527.94      22.98
 26.37     541.00      23.26
 26.47     558.00      23.62
 26.57     558.00      23.62
 26.67     563.00      23.73
 26.77     525.00      22.91
 26.87     573.76      23.95
 26.97     548.00      23.41
 27.07     582.66      24.14
 27.17     542.00      23.28
 27.27     535.00      23.13
 27.37     574.17      23.96
 27.47     521.41      22.83
 27.57     572.00      23.92
 27.67     545.00      23.35
 27.77     602.32      24.54
 27.87     623.00      24.96
 27.97     623.54      24.97
 28.07     752.00      27.42
 28.17     892.00      29.87
 28.27     972.09      31.18
 28.37     860.83      29.34
 28.47     826.29      28.75
 28.57     720.00      26.83
 28.67     684.00      26.15
 28.77     678.72      26.05
 28.87     797.00      28.23
 28.97     819.00      28.62
 29.07     787.00      28.05
 29.17     738.00      27.17
 29.27     672.40      25.93
 29.37     557.00      23.60
 29.47     608.00      24.66
 29.57     554.00      23.54
 29.67     580.00      24.08
 29.77     541.00      23.26
 29.87     527.14      22.96
 29.97     526.70      22.95
 30.07     507.08      22.52
 30.17     575.00      23.98
 30.27     604.00      24.58
 30.37     551.00      23.47
 30.47     537.38      23.18
 30.57     516.00      22.72
 30.67     520.36      22.81
 30.77     523.00      22.87
 30.87     619.00      24.88
 30.97     648.65      25.47
 31.07     627.00      25.04
 31.17     575.88      24.00
 31.27     614.00      24.78
 31.37     540.00      23.24
 31.47     551.16      23.48
 31.57     519.66      22.80
 31.67     538.00      23.19
 31.77     505.26      22.48
 31.87     494.53      22.24
 31.97     565.00      23.77
 32.07     530.45      23.03
 32.17     546.00      23.37
 32.27     531.74      23.06
 32.37     565.00      23.77
 32.47     542.00      23.28
 32.57     569.00      23.85
 32.67     504.00      22.45
 32.77     504.05      22.45
 32.87     567.43      23.82
 32.97     548.00      23.41
 33.07     534.00      23.11
 33.17     559.00      23.64
 33.27     520.00      22.80
 33.37     536.46      23.16
 33.47     561.00      23.69
 33.57     578.55      24.05
 33.67     675.85      26.00
 33.77     734.00      27.09
 33.87     835.00      28.90
 33.97     988.00      31.43
 34.07     999.00      31.61
 34.17    1107.00      33.27
 34.27     871.00      29.51
 34.37     794.00      28.18
 34.47     653.00      25.55
 34.57     604.00      24.58
 34.67     594.00      24.37
 34.77     544.32      23.33
 34.87     584.79      24.18
 34.97     516.72      22.73
 35.07     508.86      22.56
 35.17     549.47      23.44
 35.27     480.23      21.91
 35.37     552.07      23.50
 35.47     552.00      23.49
 35.57     490.00      22.14
 35.67     554.00      23.54
 35.77     483.00      21.98
 35.87     549.00      23.43
 35.97     524.65      22.91
 36.07     527.00      22.96
 36.17     532.00      23.07
 36.27     529.25      23.01
 36.37     546.03      23.37
 36.47     512.00      22.63
 36.57     520.00      22.80
 36.67     531.00      23.04
 36.77     496.26      22.28
 36.87     521.00      22.83
 36.97     533.00      23.09
 37.07     533.87      23.11
 37.17     509.00      22.56
 37.27     530.65      23.04
 37.37     507.60      22.53
 37.47     476.00      21.82
 37.57     566.00      23.79
 37.67     544.96      23.34
 37.77     540.35      23.25
 37.87     555.00      23.56
 37.97     523.00      22.87
 38.07     503.00      22.43
 38.17     510.96      22.60
 38.27     554.21      23.54
 38.37     529.00      23.00
 38.47     528.00      22.98
 38.57     511.00      22.61
 38.67     523.00      22.87
 38.77     510.00      22.58
 38.87     501.00      22.38
 38.97     488.00      22.09
 39.07     524.56      22.90
 39.17     514.00      22.67
 39.27     527.11      22.96
 39.37     502.00      22.41
 39.47     546.83      23.38
 39.57     529.00      23.00
 39.67     534.00      23.11
 39.77     516.00      22.72
 39.87     508.00      22.54
 39.97     523.49      22.88
 40.07     511.00      22.61
 40.17     530.00      23.02
 40.27     490.00      22.14
 40.37     499.52      22.35
 40.47     485.69      22.04
 40.57     467.00      21.61
 40.67     497.00      22.29
 40.77     501.00      22.38
 40.87     538.25      23.20
 40.97     513.53      22.66
 41.07     472.00      21.73
 41.17     472.00      21.73
 41.27     516.00      22.72
 41.37     478.00      21.86
 41.47     521.62      22.84
 41.57     441.00      21.00
 41.67     470.00      21.68
 41.77     497.00      22.29
 41.87     482.00      21.95
 41.97     510.00      22.58
 42.07     527.69      22.97
 42.17     559.62      23.66
 42.27     560.77      23.68
 42.37     557.00      23.60
 42.47     528.00      22.98
 42.57     549.00      23.43
 42.67     586.00      24.21
 42.77     559.00      23.64
 42.87     575.00      23.98
 42.97     588.00      24.25
 43.07     574.00      23.96
 43.17     546.00      23.37
 43.27     529.00      23.00
 43.37     546.98      23.39
 43.47     495.00      22.25
 43.57     518.00      22.76
 43.67     491.00      22.16
 43.77     473.00      21.75
 43.87     492.49      22.19
 43.97     494.00      22.23
 44.07     521.00      22.83
 44.17     469.00      21.66
 44.27     499.00      22.34
 44.37     531.87      23.06
 44.47     523.49      22.88
 44.57     509.09      22.56
 44.67     505.41      22.48
 44.77     518.00      22.76
 44.87     499.00      22.34
 44.97     534.40      23.12
 45.07     470.30      21.69
 45.17     481.00      21.93
 45.27     484.07      22.00
 45.37     514.00      22.67
 45.47     464.37      21.55
 45.57     550.00      23.45
 45.67     543.00      23.30
 45.77     511.00      22.61
 45.87     498.29      22.32
 45.97     466.00      21.59
 46.07     530.00      23.02
 46.17     509.83      22.58
 46.27     500.00      22.36
 46.37     516.00      22.72
 46.47     498.00      22.32
 46.57     495.00      22.25
 46.67     507.00      22.52
 46.77     527.00      22.96
 46.87     506.00      22.49
 46.97     480.00      21.91
 47.07     470.00      21.68
 47.17     539.00      23.22
 47.27     495.00      22.25
 47.37     508.62      22.55
 47.47     574.36      23.97
 47.57     526.00      22.93
 47.67     534.27      23.11
 47.77     578.00      24.04
 47.87     584.16      24.17
 47.97     584.00      24.17
 48.07     584.00      24.17
 48.17     602.47      24.55
 48.27     585.25      24.19
 48.37     550.00      23.45
 48.47     543.00      23.30
 48.57     502.62      22.42
 48.67     495.28      22.25
 48.77     520.00      22.80
 48.87     523.57      22.88
 48.97     513.72      22.67
 49.07     530.00      23.02
 49.17     509.00      22.56
 49.27     556.00      23.58
 49.37     551.92      23.49
 49.47     596.00      24.41
 49.57     654.00      25.57
 49.67     825.38      28.73
 49.77     985.00      31.38
 49.87    1325.27      36.40
 49.97    1590.00      39.87
 50.07    2075.21      45.55
 50.17    2346.00      48.44
 50.27    2482.00      49.82
 50.37    2393.81      48.93
 50.47    1924.35      43.87
 50.57    1632.00      40.40
 50.67    1233.00      35.11
 50.77     939.42      30.65
 50.87     795.64      28.21
 50.97     660.11      25.69
 51.07     634.94      25.20
 51.17     611.00      24.72
 51.27     645.00      25.40
 51.37     561.00      23.69
 51.47     598.00      24.45
 51.57     589.00      24.27
 51.67     584.57      24.18
 51.77     572.00      23.92
 51.87     506.00      22.49
 51.97     548.00      23.41
 52.07     505.00      22.47
 52.17     570.00      23.87
 52.27     547.27      23.39
 52.37     601.00      24.52
 52.47     537.05      23.17
 52.57     579.46      24.07
 52.67     598.75      24.47
 52.77     658.00      25.65
 52.87     636.00      25.22
 52.97     717.27      26.78
 53.07     732.00      27.06
 53.17     826.00      28.74
 53.27    1019.00      31.92
 53.37    1136.86      33.72
 53.47    1166.24      34.15
 53.57    1224.75      35.00
 53.67    1205.00      34.71
 53.77    1025.00      32.02
 53.87     906.39      30.11
 53.97     902.05      30.03
 54.07     750.00      27.39
 54.17     645.00      25.40
 54.27     608.60      24.67
 54.37     595.00      24.39
 54.47     553.46      23.53
 54.57     572.00      23.92
 54.67     587.00      24.23
 54.77     546.00      23.37
 54.87     616.00      24.82
 54.97     528.00      22.98
 55.07     529.00      23.00
 55.17     582.00      24.12
 55.27     572.23      23.92
 55.37     563.73      23.74
 55.47     525.54      22.92
 55.57     533.46      23.10
 55.67     565.00      23.77
 55.77     608.49      24.67
 55.87     607.00      24.64
 55.97     642.00      25.34
 56.07     683.00      26.13
 56.17     769.00      27.73
 56.27     862.30      29.36
 56.37    1055.00      32.48
 56.47    1358.00      36.85
 56.57    1622.00      40.27
 56.67    1904.00      43.63
 56.77    2342.00      48.39
 56.87    2476.00      49.76
 56.97    2543.97      50.44
 57.07    2410.28      49.09
 57.17    2083.00      45.64
 57.27    1866.05      43.20
 57.37    1455.00      38.14
 57.47    1238.00      35.19
 57.57    1039.16      32.24
 57.67     911.00      30.18
 57.77     788.00      28.07
 57.87     757.00      27.51
 57.97     727.00      26.96
 58.07     697.00      26.40
 58.17     688.98      26.25
 58.27     737.38      27.15
 58.37     805.00      28.37
 58.47     827.81      28.77
 58.57     929.00      30.48
 58.67    1005.00      31.70
 58.77    1094.00      33.08
 58.87    1253.04      35.40
 58.97    1237.43      35.18
 59.07    1250.12      35.36
 59.17    1298.15      36.03
 59.27    1316.00      36.28
 59.37    1226.12      35.02
 59.47    1212.00      34.81
 59.57    1238.00      35.19
 59.67    1198.00      34.61
 59.77    1152.00      33.94
 59.87    1188.13      34.47
 59.97    1334.00      36.52
 60.07    1374.56      37.08
 60.17    1536.00      39.19
 60.27    1581.56      39.77
 60.37    1467.00      38.30
 60.47    1514.00      38.91
 60.57    1268.56      35.62
 60.67    1096.57      33.11
 60.77    1004.00      31.69
 60.87     871.00      29.51
 60.97     755.96      27.49
 61.07     674.00      25.96
 61.17     712.00      26.68
 61.27     645.00      25.40
 61.37     617.50      24.85
 61.47     682.00      26.12
 61.57     732.00      27.06
 61.67     847.00      29.10
 61.77     949.24      30.81
 61.87    1004.00      31.69
 61.97    1101.00      33.18
 62.07    1244.00      35.27
 62.17    1373.00      37.05
 62.27    1335.00      36.54
 62.37    1388.63      37.26
 62.47    1204.00      34.70
 62.57    1070.28      32.72
 62.67     932.68      30.54
 62.77     858.00      29.29
 62.87     765.00      27.66
 62.97     655.00      25.59
 63.07     657.00      25.63
 63.17     629.00      25.08
 63.27     586.00      24.21
 63.37     610.17      24.70
 63.47     640.00      25.30
 63.57     550.00      23.45
 63.67     567.04      23.81
 63.77     614.00      24.78
 63.87     636.00      25.22
 63.97     681.00      26.10
 64.07     644.04      25.38
 64.17     781.00      27.95
 64.27     840.35      28.99
 64.37     829.03      28.79
 64.47     919.00      30.32
 64.57     933.00      30.55
 64.67    1018.66      31.92
 64.77    1017.00      31.89
 64.87     986.00      31.40
 64.97     984.00      31.37
 65.07     864.00      29.39
 65.17     833.00      28.86
 65.27     783.38      27.99
 65.37     726.46      26.95
 65.47     693.88      26.34
 65.57     669.34      25.87
 65.67     612.61      24.75
 65.77     619.91      24.90
 65.87     585.05      24.19
 65.97     589.83      24.29
 66.07     572.47      23.93
 66.17     509.00      22.56
 66.27     532.44      23.07
 66.37     556.00      23.58
 66.47     590.00      24.29
 66.57     566.76      23.81
 66.67     526.00      22.93
 66.77     627.89      25.06
 66.87     595.01      24.39
 66.97     611.00      24.72
 67.07     677.72      26.03
 67.17     671.00      25.90
 67.27     693.00      26.32
 67.37     861.00      29.34
 67.47     945.00      30.74
 67.57    1126.55      33.56
 67.67    1433.00      37.85
 67.77    1647.00      40.58
 67.87    1950.00      44.16
 67.97    2149.43      46.36
 68.07    2201.16      46.92
 68.17    2282.45      47.77
 68.27    2279.89      47.75
 68.37    2206.00      46.97
 68.47    1979.00      44.49
 68.57    1695.29      41.17
 68.67    1434.00      37.87
 68.77    1224.00      34.99
 68.87    1034.00      32.16
 68.97     882.00      29.70
 69.07     818.64      28.61
 69.17     704.80      26.55
 69.27     612.47      24.75
 69.37     651.00      25.51
 69.47     626.00      25.02
 69.57     580.00      24.08
 69.67     572.34      23.92
 69.77     634.00      25.18
 69.87     551.05      23.47
 69.97     583.00      24.15
 70.07     521.00      22.83
 70.17     572.00      23.92
 70.27     612.00      24.74
 70.37     611.00      24.72
 70.47     530.40      23.03
 70.57     531.73      23.06
 70.67     602.00      24.54
 70.77     578.00      24.04
 70.87     654.00      25.57
 70.97     628.00      25.06
 71.07     628.00      25.06
 71.17     700.00      26.46
 71.27     797.87      28.25
 71.37     904.02      30.07
 71.47    1031.70      32.12
 71.57    1121.00      33.48
 71.67    1314.00      36.25
 71.77    1574.19      39.68
 71.87    1681.00      41.00
 71.97    1826.00      42.73
 72.07    1874.00      43.29
 72.17    1831.00      42.79
 72.27    1867.00      43.21
 72.37    1766.00      42.02
 72.47    1495.02      38.67
 72.57    1425.00      37.75
 72.67    1259.00      35.48
 72.77    1013.00      31.83
 72.87     956.00      30.92
 72.97     852.00      29.19
 73.07     839.80      28.98
 73.17     776.50      27.87
 73.27     740.96      27.22
 73.37     687.65      26.22
 73.47     621.00      24.92
 73.57     582.30      24.13
 73.67     570.00      23.87
 73.77     607.00      24.64
 73.87     603.79      24.57
 73.97     626.57      25.03
 74.07     600.16      24.50
 74.17     605.51      24.61
 74.27     599.00      24.47
 74.37     597.00      24.43
 74.47     602.34      24.54
 74.57     564.92      23.77
 74.67     604.84      24.59
 74.77     526.24      22.94
 74.87     573.42      23.95
 74.97     639.00      25.28
 75.07     550.00      23.45
 75.17     578.00      24.04
 75.27     507.71      22.53
 75.37     594.00      24.37
 75.47     580.00      24.08
 75.57     532.00      23.07
 75.67     522.87      22.87
 75.77     529.00      23.00
 75.87     651.00      25.51
 75.97     545.00      23.35
 76.07     646.00      25.42
 76.17     655.00      25.59
 76.27     675.00      25.98
 76.37     613.00      24.76
 76.47     682.00      26.12
 76.57     727.90      26.98
 76.67     735.95      27.13
 76.77     692.75      26.32
 76.87     680.00      26.08
 76.97     649.18      25.48
 77.07     650.00      25.50
 77.17     543.00      23.30
 77.27     589.00      24.27
 77.37     624.58      24.99
 77.47     559.00      23.64
 77.57     543.00      23.30
 77.67     558.00      23.62
 77.77     507.70      22.53
 77.87     483.00      21.98
 77.97     537.00      23.17
 78.07     533.80      23.10
 78.17     537.72      23.19
 78.27     497.00      22.29
 78.37     471.00      21.70
 78.47     528.00      22.98
 78.57     544.23      23.33
 78.67     518.32      22.77
 78.77     553.00      23.52
 78.87     524.62      22.90
 78.97     473.00      21.75
 79.07     506.00      22.49
 79.17     490.52      22.15
 79.27     504.00      22.45
 79.37     509.00      22.56
 79.47     532.00      23.07
 79.57     471.00      21.70
 79.67     478.00      21.86
 79.77     545.00      23.35
 79.87     548.00      23.41
 79.97     501.00      22.38
 80.07     546.00      23.37
 80.17     543.00      23.30
 80.27     547.66      23.40
 80.37     550.00      23.45
 80.47     599.00      24.47
 80.57     582.00      24.12
 80.67     597.00      24.43
 80.77     623.00      24.96
 80.87     628.72      25.07
 80.97     711.00      26.66
 81.07     723.06      26.89
 81.17     664.00      25.77
 81.27     740.58      27.21
 81.37     732.58      27.07
 81.47     717.00      26.78
 81.57     753.00      27.44
 81.67     712.00      26.68
 81.77     713.00      26.70
 81.87     764.00      27.64
 81.97     652.68      25.55
 82.07     642.68      25.35
 82.17     661.00      25.71
 82.27     675.00      25.98
 82.37     667.52      25.84
 82.47     604.00      24.58
 82.57     598.81      24.47
 82.67     558.00      23.62
 82.77     594.26      24.38
 82.87     559.00      23.64
 82.97     488.00      22.09
 83.07     554.00      23.54
 83.17     536.00      23.15
 83.27     521.00      22.83
 83.37     525.00      22.91
 83.47     515.00      22.69
 83.57     530.46      23.03
 83.67     503.00      22.43
 83.77     533.00      23.09
 83.87     529.00      23.00
 83.97     571.00      23.90
 84.07     573.00      23.94
 84.17     549.00      23.43
 84.27     517.00      22.74
 84.37     521.64      22.84
 84.47     594.00      24.37
 84.57     528.00      22.98
 84.67     559.00      23.64
 84.77     553.80      23.53
 84.87     552.00      23.49
 84.97     544.00      23.32
 85.07     516.00      22.72
 85.17     543.00      23.30
 85.27     523.00      22.87
 85.37     524.39      22.90
 85.47     510.00      22.58
 85.57     527.00      22.96
 85.67     536.48      23.16
 85.77     524.27      22.90
 85.87     521.03      22.83
 85.97     506.00      22.49
 86.07     518.00      22.76
 86.17     473.79      21.77
 86.27     499.56      22.35
 86.37     487.66      22.08
 86.47     550.00      23.45
 86.57     552.00      23.49
 86.67     572.00      23.92
 86.77     583.00      24.15
 86.87     537.00      23.17
 86.97     581.30      24.11
 87.07     544.37      23.33
 87.17     556.31      23.59
 87.27     625.00      25.00
 87.37     637.00      25.24
 87.47     668.00      25.85
 87.57     582.01      24.12
 87.67     609.00      24.68
 87.77     619.00      24.88
 87.87     616.00      24.82
 87.97     583.18      24.15
 88.07     638.00      25.26
 88.17     564.00      23.75
 88.27     588.00      24.25
 88.37     519.44      22.79
 88.47     519.46      22.79
 88.57     521.20      22.83
 88.67     561.24      23.69
 88.77     583.00      24.15
 88.87     577.00      24.02
 88.97     553.06      23.52
 89.07     574.85      23.98
 89.17     604.65      24.59
 89.27     543.97      23.32
 89.37     622.99      24.96
 89.47     580.00      24.08
 89.57     609.00      24.68
 89.67     579.00      24.06
 89.77     538.07      23.20
 89.87     578.00      24.04
 89.97     547.18      23.39
 90.07     550.00      23.45
 90.17     506.00      22.49
 90.27     544.00      23.32
 90.37     493.00      22.20
 90.47     552.37      23.50
 90.57     538.88      23.21
 90.67     466.00      21.59
 90.77     534.00      23.11
 90.87     481.12      21.93
 90.97     542.00      23.28
 91.07     499.00      22.34
 91.17     502.00      22.41
 91.27     521.00      22.83
 91.37     539.00      23.22
 91.47     502.97      22.43
 91.57     546.00      23.37
 91.67     508.00      22.54
 91.77     535.54      23.14
 91.87     535.36      23.14
 91.97     535.97      23.15
 92.07     525.24      22.92
 92.17     572.00      23.92
 92.27     554.00      23.54
 92.37     521.00      22.83
 92.47     597.00      24.43
 92.57     581.00      24.10
 92.67     631.00      25.12
 92.77     638.00      25.26
 92.87     670.00      25.88
 92.97     674.00      25.96
 93.07     737.00      27.15
 93.17     711.00      26.66
 93.27     698.00      26.42
 93.37     762.60      27.62
 93.47     812.28      28.50
 93.57     753.11      27.44
 93.67     763.08      27.62
 93.77     757.94      27.53
 93.87     760.00      27.57
 93.97     805.00      28.37
 94.07     839.00      28.97
 94.17     790.44      28.11
 94.27     848.00      29.12
 94.37     828.00      28.77
 94.47     862.00      29.36
 94.57     931.00      30.51
 94.67     867.00      29.44
 94.77     832.49      28.85
 94.87     941.00      30.68
 94.97     908.62      30.14
 95.07     821.22      28.66
 95.17     831.00      28.83
 95.27     844.24      29.06
 95.37     857.00      29.27
 95.47     809.82      28.46
 95.57     775.00      27.84
 95.67     753.00      27.44
 95.77     759.00      27.55
 95.87     744.00      27.28
 95.97     688.00      26.23
 96.07     688.00      26.23
 96.17     674.42      25.97
 96.27     722.18      26.87
 96.37     685.60      26.18
 96.47     772.30      27.79
 96.57     806.00      28.39
 96.67     891.00      29.85
 96.77     891.98      29.87
 96.87     971.00      31.16
 96.97    1124.27      33.53
 97.07    1201.00      34.66
 97.17    1167.00      34.16
 97.27    1281.00      35.79
 97.37    1267.88      35.61
 97.47    1347.00      36.70
 97.57    1363.00      36.92
 97.67    1364.62      36.94
 97.77    1347.42      36.71
 97.87    1425.06      37.75
 97.97    1389.00      37.27
 98.07    1326.08      36.42
 98.17    1255.00      35.43
 98.27    1152.00      33.94
 98.37    1150.00      33.91
 98.47    1033.00      32.14
 98.57     947.93      30.79
 98.67     954.00      30.89
 98.77     952.75      30.87
 98.87     830.52      28.82
 98.97     853.76      29.22
 99.07     855.00      29.24
 99.17     845.00      29.07
 99.27     895.00      29.92
 99.37     885.32      29.75
 99.47     960.00      30.98
 99.57    1010.00      31.78
 99.67    1113.56      33.37
 99.77    1190.00      34.50
 99.87    1285.00      35.85
 99.97    1337.68      36.57
100.07    1491.00      38.61
100.17    1608.00      40.10
100.27    1630.37      40.38
100.37    1731.47      41.61
100.47    1942.00      44.07
100.57    1965.00      44.33
100.67    1971.00      44.40
100.77    1945.72      44.11
100.87    2084.32      45.65
100.97    1999.00      44.71
101.07    2062.00      45.41
101.17    1867.79      43.22
101.27    1846.00      42.97
101.37    1715.00      41.41
101.47    1737.00      41.68
101.57    1556.87      39.46
101.67    1474.00      38.39
101.77    1481.88      38.50
101.87    1402.00      37.44
101.97    1323.00      36.37
102.07    1270.00      35.64
102.17    1240.00      35.21
102.27    1224.64      34.99
102.37    1144.00      33.82
102.47    1129.00      33.60
102.57    1097.37      33.13
102.67    1144.00      33.82
102.77    1069.28      32.70
102.87    1084.00      32.92
102.97     967.00      31.10
103.07     960.52      30.99
103.17     925.00      30.41
103.27     916.16      30.27
103.37     882.00      29.70
103.47     820.00      28.64
103.57     871.00      29.51
103.67     769.00      27.73
103.77     732.00      27.06
103.87     677.51      26.03
103.97     685.00      26.17
104.07     650.00      25.50
104.17     595.52      24.40
104.27     585.30      24.19
104.37     577.19      24.02
104.47     574.00      23.96
104.57     590.00      24.29
104.67     532.57      23.08
104.77     529.00      23.00
104.87     564.77      23.76
104.97     538.00      23.19
105.07     544.00      23.32
105.17     507.80      22.53
105.27     558.00      23.62
105.37     489.74      22.13
105.47     555.00      23.56
105.57     542.32      23.29
105.67     562.00      23.71
105.77     550.89      23.47
105.87     511.51      22.62
105.97     548.01      23.41
106.07     581.00      24.10
106.17     520.00      22.80
106.27     596.00      24.41
106.37     616.35      24.83
106.47     604.26      24.58
106.57     652.01      25.53
106.67     615.71      24.81
106.77     644.98      25.40
106.87     606.00      24.62
106.97     675.30      25.99
107.07     627.00      25.04
107.17     690.71      26.28
107.27     656.00      25.61
107.37     669.13      25.87
107.47     694.00      26.34
107.57     649.00      25.48
107.67     681.00      26.10
107.77     664.00      25.77
107.87     665.00      25.79
107.97     679.00      26.06
108.07     732.31      27.06
108.17     635.00      25.20
108.27     685.00      26.17
108.37     628.00      25.06
108.47     654.00      25.57
108.57     664.00      25.77
108.67     695.29      26.37
108.77     681.06      26.10
108.87     718.00      26.80
108.97     674.00      25.96
109.07     681.00      26.10
109.17     652.68      25.55
109.27     671.20      25.91
109.37     648.00      25.46
109.47     693.11      26.33
109.57     663.00      25.75
109.67     662.00      25.73
109.77     650.00      25.50
109.87     576.07      24.00
109.97     602.00      24.54
110.07     628.00      25.06
110.17     591.62      24.32
110.27     566.00      23.79
110.37     610.00      24.70
110.47     584.00      24.17
110.57     538.33      23.20
110.67     577.00      24.02
110.77     560.00      23.66
110.87     593.00      24.35
110.97     538.00      23.19
111.07     554.00      23.54
111.17     520.00      22.80
111.27     534.00      23.11
111.37     529.13      23.00
111.47     538.00      23.19
111.57     532.00      23.07
111.67     537.00      23.17
111.77     523.00      22.87
111.87     562.56      23.72
111.97     557.05      23.60
112.07     559.58      23.66
112.17     517.43      22.75
112.27     583.00      24.15
112.37     552.00      23.49
112.47     587.00      24.23
112.57     558.13      23.62
112.67     548.00      23.41
112.77     580.00      24.08
112.87     588.00      24.25
112.97     607.27      24.64
113.07     589.00      24.27
113.17     665.78      25.80
113.27     598.85      24.47
113.37     675.73      25.99
113.47     637.00      25.24
113.57     608.00      24.66
113.67     701.00      26.48
113.77     768.47      27.72
113.87     733.00      27.07
113.97     781.00      27.95
114.07     795.00      28.20
114.17     887.00      29.78
114.27     862.00      29.36
114.37     942.00      30.69
114.47    1074.00      32.77
114.57    1097.14      33.12
114.67    1336.00      36.55
114.77    1459.00      38.20
114.87    1649.00      40.61
114.97    1668.31      40.84
115.07    1969.00      44.37
115.17    2182.52      46.72
115.27    2467.14      49.67
115.37    2688.25      51.85
115.47    2936.79      54.19
115.57    3367.13      58.03
115.67    3595.41      59.96
115.77    3987.09      63.14
115.87    4380.96      66.19
115.97    4729.95      68.77
116.07    5142.00      71.71
116.17    5483.50      74.05
116.27    5817.00      76.27
116.37    6030.05      77.65
116.47    6480.00      80.50
116.57    6664.22      81.63
116.67    6818.00      82.57
116.77    6813.00      82.54
116.87    6705.29      81.89
116.97    6587.64      81.16
117.07    6555.19      80.96
117.17    6451.16      80.32
117.27    6190.00      78.68
117.37    5974.94      77.30
117.47    5648.90      75.16
117.57    5120.44      71.56
117.67    4783.00      69.16
117.77    4451.00      66.72
117.87    4217.18      64.94
117.97    3816.00      61.77
118.07    3482.00      59.01
118.17    3179.00      56.38
118.27    2805.00      52.96
118.37    2532.00      50.32
118.47    2261.00      47.55
118.57    2026.97      45.02
118.67    1787.59      42.28
118.77    1668.66      40.85
118.87    1417.00      37.64
118.97    1258.00      35.47
119.07    1141.00      33.78
119.17    1044.00      32.31
119.27     961.00      31.00
119.37     986.00      31.40
119.47     874.00      29.56
119.57     817.55      28.59
119.67     838.00      28.95
119.77     700.00      26.46
119.87     657.00      25.63
119.97     691.41      26.29
120.07     607.00      24.64
120.17     631.00      25.12
120.27     649.00      25.48
120.37     555.00      23.56
120.47     625.00      25.00
120.57     629.10      25.08
120.67     621.94      24.94
120.77     568.00      23.83
120.87     583.66      24.16
120.97     580.00      24.08
121.07     554.00      23.54
121.17     578.00      24.04
121.27     572.00      23.92
121.37     560.34      23.67
121.47     615.00      24.80
121.57     578.03      24.04
121.67     573.78      23.95
121.77     609.33      24.68
121.87     628.83      25.08
121.97     596.10      24.42
122.07     625.00      25.00
122.17     635.00      25.20
122.27     630.00      25.10
122.37     601.00      24.52
122.47     570.00      23.87
122.57     640.00      25.30
122.67     600.00      24.49
122.77     628.00      25.06
122.87     653.00      25.55
122.97     582.12      24.13
123.07     654.84      25.59
123.17     634.00      25.18
123.27     661.00      25.71
123.37     646.00      25.42
123.47     627.00      25.04
123.57     604.00      24.58
123.67     627.00      25.04
123.77     584.00      24.17
123.87     654.00      25.57
123.97     622.74      24.95
124.07     592.00      24.33
124.17     600.00      24.49
124.27     573.00      23.94
124.37     616.00      24.82
124.47     590.00      24.29
124.57     608.00      24.66
124.67     562.45      23.72
124.77     557.00      23.60
124.87     538.37      23.20
124.97     616.00      24.82
