  9.97     622.00      24.94
 10.07     685.00      26.17
 10.17     729.00      27.00
 10.27     615.34      24.81
 10.37     680.81      26.09
 10.47     614.00      24.78
 10.57     669.00      25.87
 10.67     635.00      25.20
 10.77     686.00      26.19
 10.87     696.79      26.40
 10.97     693.00      26.32
 11.07     682.00      26.12
 11.17     618.96      24.88
 11.27     697.00      26.40
 11.37     663.00      25.75
 11.47     604.46      24.59
 11.57     623.35      24.97
 11.67     680.00      26.08
 11.77     607.51      24.65
 11.87     714.00      26.72
 11.97     695.74      26.38
 12.07     757.93      27.53
 12.17     772.02      27.79
 12.27     828.00      28.77
 12.37     742.70      27.25
 12.47     762.00      27.60
 12.57     716.94      26.78
 12.67     643.00      25.36
 12.77     702.13      26.50
 12.87     631.00      25.12
 12.97     682.00      26.12
 13.07     620.00      24.90
 13.17     642.15      25.34
 13.27     587.00      24.23
 13.37     628.75      25.07
 13.47     597.75      24.45
 13.57     656.11      25.61
 13.67     595.00      24.39
 13.77     646.00      25.42
 13.87     641.00      25.32
 13.97     628.16      25.06
 14.07     639.15      25.28
 14.17     633.00      25.16
 14.27     629.00      25.08
 14.37     598.00      24.45
 14.47     618.00      24.86
 14.57     593.00      24.35
 14.67     639.13      25.28
 14.77     645.00      25.40
 14.87     624.00      24.98
 14.97     674.60      25.97
 15.07     626.00      25.02
 15.17     558.00      23.62
 15.27     607.00      24.64
 15.37     607.78      24.65
 15.47     581.00      24.10
 15.57     676.85      26.02
 15.67     585.45      24.20
 15.77     612.00      24.74
 15.87     632.11      25.14
 15.97     613.00      24.76
 16.07     636.00      25.22
 16.17     661.05      25.71
 16.27     594.00      24.37
 16.37     583.29      24.15
 16.47     645.00      25.40
 16.57     631.00      25.12
 16.67     606.00      24.62
 16.77     588.00      24.25
 16.87     623.36      24.97
 16.97     545.00      23.35
 17.07     630.00      25.10
 17.17     673.00      25.94
 17.27     614.00      24.78
 17.37     583.35      24.15
 17.47     551.00      23.47
 17.57     584.00      24.17
 17.67     593.64      24.36
 17.77     617.00      24.84
 17.87     669.51      25.87
 17.97     611.00      24.72
 18.07     603.00      24.56
 18.17     620.00      24.90
 18.27     600.46      24.50
 18.37     610.00      24.70
 18.47     627.87      25.06
 18.57     606.67      24.63
 18.67     624.97      25.00
 18.77     641.00      25.32
 18.87     588.91      24.27
 18.97     596.00      24.41
 19.07     655.51      25.60
 19.17     577.00      24.02
 19.27     609.00      24.68
 19.37     528.00      22.98
 19.47     616.50      24.83
 19.57     592.00      24.33
 19.67     630.00      25.10
 19.77     641.00      25.32
 19.87     577.00      24.02
 19.97     603.00      24.56
 20.07     580.00      24.08
 20.17     595.84      24.41
 20.27     652.00      25.53
 20.37     622.25      24.94
 20.47     592.00      24.33
 20.57     591.65      24.32
 20.67     598.00      24.45
 20.77     600.00      24.49
 20.87     610.00      24.70
 20.97     645.91      25.41
 21.07     657.01      25.63
 21.17     598.00      24.45
 21.27     619.00      24.88
 21.37     620.71      24.91
 21.47     630.59      25.11
 21.57     577.50      24.03
 21.67     608.00      24.66
 21.77     627.00      25.04
 21.87     581.00      24.10
 21.97     566.00      23.79
 22.07     618.00      24.86
 22.17     652.00      25.53
 22.27     615.00      24.80
 22.37     592.00      24.33
 22.47     575.00      23.98
 22.57     581.33      24.11
 22.67     603.00      24.56
 22.77     598.00      24.45
 22.87     603.00      24.56
 22.97     596.00      24.41
 23.07     589.00      24.27
 23.17     619.00      24.88
 23.27     585.31      24.19
 23.37     587.00      24.23
 23.47     621.00      24.92
 23.57     614.00      24.78
 23.67     645.00      25.40
 23.77     575.00      23.98
 23.87     572.00      23.92
 23.97     655.00      25.59
 24.07     614.00      24.78
 24.17     617.00      24.84
 24.27     645.00      25.40
 24.37     604.00      24.58
 24.47     642.00      25.34
 24.57     624.00      24.98
 24.67     615.99      24.82
 24.77     708.00      26.61
 24.87     776.00      27.86
 24.97     738.00      27.17
 25.07     728.84      27.00
 25.17     648.00      25.46
 25.27     656.00      25.61
 25.37     619.00      24.88
 25.47     616.79      24.84
 25.57     666.00      25.81
 25.67     625.47      25.01
 25.77     681.00      26.10
 25.87     654.48      25.58
 25.97     651.00      25.51
 26.07     620.00      24.90
 26.17     642.00      25.34
 26.27     616.00      24.82
 26.37     587.50      24.24
 26.47     603.00      24.56
 26.57     649.74      25.49
 26.67     619.82      24.90
 26.77     583.00      24.15
 26.87     654.00      25.57
 26.97     689.00      26.25
 27.07     623.00      24.96
 27.17     641.00      25.32
 27.27     679.84      26.07
 27.37     653.00      25.55
 27.47     727.00      26.96
 27.57     764.00      27.64
 27.67     683.15      26.14
 27.77     809.70      28.46
 27.87     909.05      30.15
 27.97    1034.00      32.16
 28.07    1462.00      38.24
 28.17    2150.00      46.37
 28.27    3040.68      55.14
 28.37    3448.00      58.72
 28.47    3439.26      58.65
 28.57    2839.00      53.28
 28.67    2297.17      47.93
 28.77    1721.00      41.48
 28.87    1781.00      42.20
 28.97    2005.81      44.79
 29.07    2283.00      47.78
 29.17    2125.00      46.10
 29.27    1905.00      43.65
 29.37    1491.04      38.61
 29.47    1111.60      33.34
 29.57     917.49      30.29
 29.67     830.06      28.81
 29.77     800.00      28.28
 29.87     777.00      27.87
 29.97     706.00      26.57
 30.07     660.68      25.70
 30.17     772.00      27.78
 30.27     576.88      24.02
 30.37     599.18      24.48
 30.47     691.00      26.29
 30.57     649.00      25.48
 30.67     690.00      26.27
 30.77     689.00      26.25
 30.87     646.00      25.42
 30.97     740.00      27.20
 31.07     731.00      27.04
 31.17     721.07      26.85
 31.27     719.00      26.81
 31.37     608.26      24.66
 31.47     637.00      25.24
 31.57     637.00      25.24
 31.67     637.51      25.25
 31.77     663.00      25.75
 31.87     628.00      25.06
 31.97     586.00      24.21
 32.07     607.00      24.64
 32.17     607.00      24.64
 32.27     594.00      24.37
 32.37     632.34      25.15
 32.47     581.26      24.11
 32.57     608.00      24.66
 32.67     599.00      24.47
 32.77     624.24      24.98
 32.87     558.74      23.64
 32.97     533.94      23.11
 33.07     604.96      24.60
 33.17     574.88      23.98
 33.27     579.00      24.06
 33.37     587.15      24.23
 33.47     619.00      24.88
 33.57     645.00      25.40
 33.67     581.00      24.10
 33.77     702.00      26.50
 33.87     740.00      27.20
 33.97     868.00      29.46
 34.07     967.45      31.10
 34.17    1069.60      32.70
 34.27    1050.15      32.41
 34.37    1052.00      32.43
 34.47     873.00      29.55
 34.57     788.30      28.08
 34.67     673.00      25.94
 34.77     632.00      25.14
 34.87     628.00      25.06
 34.97     564.00      23.75
 35.07     576.74      24.02
 35.17     578.53      24.05
 35.27     614.84      24.80
 35.37     550.00      23.45
 35.47     545.00      23.35
 35.57     601.29      24.52
 35.67     577.00      24.02
 35.77     565.00      23.77
 35.87     527.00      22.96
 35.97     584.00      24.17
 36.07     574.00      23.96
 36.17     523.15      22.87
 36.27     578.00      24.04
 36.37     519.00      22.78
 36.47     556.00      23.58
 36.57     601.00      24.52
 36.67     563.00      23.73
 36.77     553.00      23.52
 36.87     571.00      23.90
 36.97     519.92      22.80
 37.07     581.90      24.12
 37.17     581.00      24.10
 37.27     548.00      23.41
 37.37     550.00      23.45
 37.47     566.00      23.79
 37.57     556.37      23.59
 37.67     552.11      23.50
 37.77     568.00      23.83
 37.87     561.00      23.69
 37.97     580.00      24.08
 38.07     638.00      25.26
 38.17     605.86      24.61
 38.27     624.24      24.98
 38.37     603.00      24.56
 38.47     603.00      24.56
 38.57     588.00      24.25
 38.67     557.00      23.60
 38.77     538.00      23.19
 38.87     558.00      23.62
 38.97     499.00      22.34
 39.07     547.00      23.39
 39.17     543.00      23.30
 39.27     533.44      23.10
 39.37     539.47      23.23
 39.47     572.34      23.92
 39.57     553.00      23.52
 39.67     546.60      23.38
 39.77     575.85      24.00
 39.87     545.00      23.35
 39.97     598.23      24.46
 40.07     578.00      24.04
 40.17     539.00      23.22
 40.27     498.00      22.32
 40.37     513.35      22.66
 40.47     555.00      23.56
 40.57     506.00      22.49
 40.67     594.57      24.38
 40.77     537.00      23.17
 40.87     540.00      23.24
 40.97     530.00      23.02
 41.07     595.86      24.41
 41.17     527.00      22.96
 41.27     551.00      23.47
 41.37     495.00      22.25
 41.47     477.00      21.84
 41.57     528.00      22.98
 41.67     538.00      23.19
 41.77     519.79      22.80
 41.87     583.03      24.15
 41.97     555.79      23.58
 42.07     546.00      23.37
 42.17     626.00      25.02
 42.27     513.00      22.65
 42.37     527.00      22.96
 42.47     566.06      23.79
 42.57     608.25      24.66
 42.67     571.00      23.90
 42.77     662.00      25.73
 42.87     630.00      25.10
 42.97     623.00      24.96
 43.07     637.00      25.24
 43.17     604.45      24.59
 43.27     572.00      23.92
 43.37     552.00      23.49
 43.47     612.10      24.74
 43.57     563.94      23.75
 43.67     497.00      22.29
 43.77     568.75      23.85
 43.87     563.00      23.73
 43.97     529.00      23.00
 44.07     494.00      22.23
 44.17     609.00      24.68
 44.27     556.00      23.58
 44.37     500.95      22.38
 44.47     589.06      24.27
 44.57     559.70      23.66
 44.67     558.00      23.62
 44.77     599.00      24.47
 44.87     560.00      23.66
 44.97     573.00      23.94
 45.07     567.46      23.82
 45.17     555.37      23.57
 45.27     620.00      24.90
 45.37     530.00      23.02
 45.47     513.34      22.66
 45.57     507.00      22.52
 45.67     540.00      23.24
 45.77     554.00      23.54
 45.87     552.00      23.49
 45.97     532.13      23.07
 46.07     528.00      22.98
 46.17     533.00      23.09
 46.27     601.00      24.52
 46.37     547.00      23.39
 46.47     562.00      23.71
 46.57     545.00      23.35
 46.67     570.14      23.88
 46.77     559.95      23.66
 46.87     571.00      23.90
 46.97     565.00      23.77
 47.07     556.40      23.59
 47.17     537.92      23.19
 47.27     574.00      23.96
 47.37     537.12      23.18
 47.47     559.01      23.64
 47.57     567.00      23.81
 47.67     576.00      24.00
 47.77     579.69      24.08
 47.87     652.32      25.54
 47.97     590.34      24.30
 48.07     585.53      24.20
 48.17     693.83      26.34
 48.27     642.00      25.34
 48.37     638.00      25.26
 48.47     576.00      24.00
 48.57     578.00      24.04
 48.67     561.00      23.69
 48.77     543.55      23.31
 48.87     564.31      23.76
 48.97     618.90      24.88
 49.07     624.63      24.99
 49.17     573.14      23.94
 49.27     621.00      24.92
 49.37     639.52      25.29
 49.47     612.00      24.74
 49.57     706.16      26.57
 49.67     684.00      26.15
 49.77     792.82      28.16
 49.87     930.00      30.50
 49.97    1068.00      32.68
 50.07    1461.00      38.22
 50.17    1769.00      42.06
 50.27    2134.00      46.20
 50.37    2462.00      49.62
 50.47    2661.00      51.58
 50.57    2569.00      50.69
 50.67    2170.00      46.58
 50.77    1813.00      42.58
 50.87    1483.89      38.52
 50.97    1115.37      33.40
 51.07     892.00      29.87
 51.17     816.00      28.57
 51.27     705.00      26.55
 51.37     675.50      25.99
 51.47     711.00      26.66
 51.57     719.12      26.82
 51.67     636.00      25.22
 51.77     650.00      25.50
 51.87     642.00      25.34
 51.97     622.00      24.94
 52.07     613.00      24.76
 52.17     591.77      24.33
 52.27     619.83      24.90
 52.37     610.00      24.70
 52.47     645.89      25.41
 52.57     629.53      25.09
 52.67     574.00      23.96
 52.77     604.00      24.58
 52.87     643.00      25.36
 52.97     604.10      24.58
 53.07     675.00      25.98
 53.17     695.75      26.38
 53.27     759.00      27.55
 53.37     882.00      29.70
 53.47     961.00      31.00
 53.57    1106.88      33.27
 53.67    1184.00      34.41
 53.77    1255.88      35.44
 53.87    1230.76      35.08
 53.97    1202.02      34.67
 54.07    1050.00      32.40
 54.17     987.00      31.42
 54.27     884.00      29.73
 54.37     835.52      28.91
 54.47     745.00      27.29
 54.57     670.00      25.88
 54.67     656.00      25.61
 54.77     629.00      25.08
 54.87     631.99      25.14
 54.97     586.53      24.22
 55.07     696.00      26.38
 55.17     597.00      24.43
 55.27     660.00      25.69
 55.37     628.75      25.07
 55.47     609.96      24.70
 55.57     656.36      25.62
 55.67     649.00      25.48
 55.77     636.00      25.22
 55.87     699.00      26.44
 55.97     674.00      25.96
 56.07     696.81      26.40
 56.17     689.00      26.25
 56.27     732.00      27.06
 56.37     820.21      28.64
 56.47     901.00      30.02
 56.57    1090.00      33.02
 56.67    1314.00      36.25
 56.77    1637.71      40.47
 56.87    1941.00      44.06
 56.97    2257.00      47.51
 57.07    2526.55      50.26
 57.17    2466.72      49.67
 57.27    2584.38      50.84
 57.37    2398.10      48.97
 57.47    2087.00      45.68
 57.57    1714.00      41.40
 57.67    1384.00      37.20
 57.77    1173.65      34.26
 57.87     995.00      31.54
 57.97     874.13      29.57
 58.07     861.00      29.34
 58.17     778.46      27.90
 58.27     774.98      27.84
 58.37     784.00      28.00
 58.47     827.95      28.77
 58.57     811.00      28.48
 58.67     891.00      29.85
 58.77     992.00      31.50
 58.87    1050.89      32.42
 58.97    1077.00      32.82
 59.07    1176.00      34.29
 59.17    1228.22      35.05
 59.27    1293.00      35.96
 59.37    1278.26      35.75
 59.47    1287.00      35.87
 59.57    1237.31      35.18
 59.67    1184.00      34.41
 59.77    1134.92      33.69
 59.87    1236.00      35.16
 59.97    1237.00      35.17
 60.07    1166.24      34.15
 60.17    1322.00      36.36
 60.27    1379.00      37.13
 60.37    1443.00      37.99
 60.47    1583.00      39.79
 60.57    1575.00      39.69
 60.67    1607.00      40.09
 60.77    1393.00      37.32
 60.87    1342.00      36.63
 60.97    1189.99      34.50
 61.07    1064.00      32.62
 61.17     917.00      30.28
 61.27     835.81      28.91
 61.37     768.71      27.73
 61.47     811.00      28.48
 61.57     679.56      26.07
 61.67     779.00      27.91
 61.77     844.00      29.05
 61.87     894.35      29.91
 61.97     923.00      30.38
 62.07    1065.00      32.63
 62.17    1182.00      34.38
 62.27    1359.62      36.87
 62.37    1455.47      38.15
 62.47    1395.00      37.35
 62.57    1479.00      38.46
 62.67    1444.00      38.00
 62.77    1319.80      36.33
 62.87    1254.66      35.42
 62.97    1027.23      32.05
 63.07     842.00      29.02
 63.17     786.00      28.04
 63.27     721.00      26.85
 63.37     693.00      26.32
 63.47     687.00      26.21
 63.57     644.61      25.39
 63.67     652.00      25.53
 63.77     624.12      24.98
 63.87     628.75      25.07
 63.97     666.00      25.81
 64.07     637.47      25.25
 64.17     717.00      26.78
 64.27     741.00      27.22
 64.37     792.93      28.16
 64.47     792.57      28.15
 64.57     941.00      30.68
 64.67     966.60      31.09
 64.77    1169.00      34.19
 64.87    1146.00      33.85
 64.97    1171.00      34.22
 65.07    1217.98      34.90
 65.17    1229.00      35.06
 65.27    1119.73      33.46
 65.37    1062.00      32.59
 65.47    1010.00      31.78
 65.57     954.00      30.89
 65.67     841.00      29.00
 65.77     781.00      27.95
 65.87     778.00      27.89
 65.97     759.00      27.55
 66.07     714.60      26.73
 66.17     656.00      25.61
 66.27     657.72      25.65
 66.37     628.00      25.06
 66.47     658.05      25.65
 66.57     597.00      24.43
 66.67     658.00      25.65
 66.77     615.00      24.80
 66.87     634.90      25.20
 66.97     651.00      25.51
 67.07     673.47      25.95
 67.17     639.00      25.28
 67.27     673.00      25.94
 67.37     673.11      25.94
 67.47     757.00      27.51
 67.57     885.82      29.76
 67.67     931.00      30.51
 67.77    1093.00      33.06
 67.87    1219.00      34.91
 67.97    1439.00      37.93
 68.07    1700.00      41.23
 68.17    1958.00      44.25
 68.27    2107.00      45.90
 68.37    2303.00      47.99
 68.47    2365.80      48.64
 68.57    2356.73      48.55
 68.67    2273.00      47.68
 68.77    2018.22      44.92
 68.87    1838.00      42.87
 68.97    1554.00      39.42
 69.07    1349.60      36.74
 69.17    1123.00      33.51
 69.27    1027.29      32.05
 69.37     863.00      29.38
 69.47     810.00      28.46
 69.57     703.00      26.51
 69.67     763.38      27.63
 69.77     711.72      26.68
 69.87     695.49      26.37
 69.97     665.00      25.79
 70.07     626.58      25.03
 70.17     609.00      24.68
 70.27     600.61      24.51
 70.37     666.00      25.81
 70.47     646.55      25.43
 70.57     645.28      25.40
 70.67     595.00      24.39
 70.77     649.00      25.48
 70.87     632.20      25.14
 70.97     665.14      25.79
 71.07     638.00      25.26
 71.17     712.98      26.70
 71.27     743.00      27.26
 71.37     765.23      27.66
 71.47     780.00      27.93
 71.57     831.00      28.83
 71.67     864.78      29.41
 71.77    1070.00      32.71
 71.87    1149.00      33.90
 71.97    1302.00      36.08
 72.07    1469.65      38.34
 72.17    1701.36      41.25
 72.27    1782.00      42.21
 72.37    1976.00      44.45
 72.47    1957.00      44.24
 72.57    1872.48      43.27
 72.67    1802.00      42.45
 72.77    1643.87      40.54
 72.87    1480.00      38.47
 72.97    1298.11      36.03
 73.07    1126.33      33.56
 73.17    1046.00      32.34
 73.27     924.67      30.41
 73.37     830.00      28.81
 73.47     753.00      27.44
 73.57     735.76      27.12
 73.67     655.43      25.60
 73.77     644.00      25.38
 73.87     666.00      25.81
 73.97     636.32      25.23
 74.07     633.00      25.16
 74.17     660.00      25.69
 74.27     598.00      24.45
 74.37     633.95      25.18
 74.47     583.73      24.16
 74.57     573.92      23.96
 74.67     566.89      23.81
 74.77     661.94      25.73
 74.87     641.00      25.32
 74.97     670.54      25.89
 75.07     643.26      25.36
 75.17     717.00      26.78
 75.27     666.00      25.81
 75.37     672.00      25.92
 75.47     625.45      25.01
 75.57     663.00      25.75
 75.67     676.00      26.00
 75.77     623.00      24.96
 75.87     574.47      23.97
 75.97     566.00      23.79
 76.07     634.00      25.18
 76.17     654.00      25.57
 76.27     655.00      25.59
 76.37     701.00      26.48
 76.47     650.76      25.51
 76.57     707.00      26.59
 76.67     730.65      27.03
 76.77     799.16      28.27
 76.87     812.00      28.50
 76.97     860.00      29.33
 77.07     792.00      28.14
 77.17     818.00      28.60
 77.27     821.00      28.65
 77.37     784.00      28.00
 77.47     758.00      27.53
 77.57     737.26      27.15
 77.67     676.07      26.00
 77.77     638.00      25.26
 77.87     609.00      24.68
 77.97     591.00      24.31
 78.07     563.57      23.74
 78.17     639.85      25.30
 78.27     614.00      24.78
 78.37     543.58      23.31
 78.47     596.44      24.42
 78.57     526.31      22.94
 78.67     573.00      23.94
 78.77     538.00      23.19
 78.87     617.13      24.84
 78.97     603.05      24.56
 79.07     554.00      23.54
 79.17     570.41      23.88
 79.27     555.57      23.57
 79.37     569.00      23.85
 79.47     569.00      23.85
 79.57     525.00      22.91
 79.67     597.00      24.43
 79.77     565.00      23.77
 79.87     564.00      23.75
 79.97     614.83      24.80
 80.07     541.99      23.28
 80.17     579.00      24.06
 80.27     547.00      23.39
 80.37     611.00      24.72
 80.47     642.00      25.34
 80.57     565.00      23.77
 80.67     681.00      26.10
 80.77     751.81      27.42
 80.87     680.34      26.08
 80.97     750.00      27.39
 81.07     764.00      27.64
 81.17     836.61      28.92
 81.27     943.25      30.71
 81.37     908.00      30.13
 81.47     957.00      30.94
 81.57     960.00      30.98
 81.67    1014.61      31.85
 81.77    1004.00      31.69
 81.87     995.91      31.56
 81.97     919.46      30.32
 82.07     915.00      30.25
 82.17     912.00      30.20
 82.27     854.46      29.23
 82.37     792.00      28.14
 82.47     809.73      28.46
 82.57     723.00      26.89
 82.67     768.00      27.71
 82.77     699.00      26.44
 82.87     693.00      26.32
 82.97     666.00      25.81
 83.07     597.00      24.43
 83.17     620.00      24.90
 83.27     578.00      24.04
 83.37     598.00      24.45
 83.47     566.86      23.81
 83.57     572.00      23.92
 83.67     559.53      23.65
 83.77     571.56      23.91
 83.87     596.00      24.41
 83.97     567.00      23.81
 84.07     564.00      23.75
 84.17     585.00      24.19
 84.27     594.00      24.37
 84.37     589.60      24.28
 84.47     586.29      24.21
 84.57     595.00      24.39
 84.67     570.00      23.87
 84.77     583.00      24.15
 84.87     606.45      24.63
 84.97     622.78      24.96
 85.07     596.00      24.41
 85.17     634.79      25.20
 85.27     590.00      24.29
 85.37     529.03      23.00
 85.47     560.00      23.66
 85.57     530.00      23.02
 85.67     530.92      23.04
 85.77     589.17      24.27
 85.87     577.00      24.02
 85.97     539.22      23.22
 86.07     558.00      23.62
 86.17     565.00      23.77
 86.27     592.26      24.34
 86.37     584.00      24.17
 86.47     565.00      23.77
 86.57     592.00      24.33
 86.67     564.00      23.75
 86.77     542.51      23.29
 86.87     609.00      24.68
 86.97     594.00      24.37
 87.07     621.00      24.92
 87.17     577.00      24.02
 87.27     653.19      25.56
 87.37     639.02      25.28
 87.47     685.00      26.17
 87.57     693.00      26.32
 87.67     682.00      26.12
 87.77     726.00      26.94
 87.87     689.00      26.25
 87.97     662.00      25.73
 88.07     712.00      26.68
 88.17     660.73      25.70
 88.27     672.37      25.93
 88.37     655.00      25.59
 88.47     614.40      24.79
 88.57     654.00      25.57
 88.67     623.00      24.96
 88.77     593.38      24.36
 88.87     619.59      24.89
 88.97     588.00      24.25
 89.07     612.73      24.75
 89.17     601.00      24.52
 89.27     604.00      24.58
 89.37     607.00      24.64
 89.47     616.00      24.82
 89.57     617.00      24.84
 89.67     590.11      24.29
 89.77     640.00      25.30
 89.87     633.74      25.17
 89.97     580.69      24.10
 90.07     692.00      26.31
 90.17     620.00      24.90
 90.27     637.00      25.24
 90.37     644.00      25.38
 90.47     593.00      24.35
 90.57     576.00      24.00
 90.67     545.09      23.35
 90.77     585.00      24.19
 90.87     559.00      23.64
 90.97     566.00      23.79
 91.07     562.48      23.72
 91.17     559.87      23.66
 91.27     529.43      23.01
 91.37     547.00      23.39
 91.47     556.00      23.58
 91.57     582.00      24.12
 91.67     559.00      23.64
 91.77     563.00      23.73
 91.87     585.21      24.19
 91.97     550.87      23.47
 92.07     572.00      23.92
 92.17     556.00      23.58
 92.27     556.00      23.58
 92.37     574.39      23.97
 92.47     580.99      24.10
 92.57     569.00      23.85
 92.67     617.85      24.86
 92.77     634.08      25.18
 92.87     578.72      24.06
 92.97     587.00      24.23
 93.07     635.33      25.21
 93.17     707.30      26.60
 93.27     640.01      25.30
 93.37     674.00      25.96
 93.47     686.00      26.19
 93.57     736.00      27.13
 93.67     727.00      26.96
 93.77     773.00      27.80
 93.87     734.50      27.10
 93.97     829.00      28.79
 94.07     872.00      29.53
 94.17     815.00      28.55
 94.27     853.00      29.21
 94.37     821.00      28.65
 94.47     839.00      28.97
 94.57     895.00      29.92
 94.67     936.00      30.59
 94.77     892.00      29.87
 94.87     886.66      29.78
 94.97     986.50      31.41
 95.07     992.00      31.50
 95.17     944.00      30.72
 95.27     922.75      30.38
 95.37     972.80      31.19
 95.47     968.00      31.11
 95.57     908.73      30.15
 95.67     923.00      30.38
 95.77     897.89      29.96
 95.87     920.57      30.34
 95.97     814.39      28.54
 96.07     852.00      29.19
 96.17     790.09      28.11
 96.27     775.00      27.84
 96.37     748.00      27.35
 96.47     784.40      28.01
 96.57     737.59      27.16
 96.67     792.00      28.14
 96.77     785.00      28.02
 96.87     850.00      29.15
 96.97     809.01      28.44
 97.07     909.00      30.15
 97.17     949.88      30.82
 97.27    1012.00      31.81
 97.37    1090.00      33.02
 97.47    1139.00      33.75
 97.57    1283.33      35.82
 97.67    1297.00      36.01
 97.77    1359.00      36.86
 97.87    1476.00      38.42
 97.97    1522.59      39.02
 98.07    1525.89      39.06
 98.17    1563.52      39.54
 98.27    1516.00      38.94
 98.37    1523.00      39.03
 98.47    1468.00      38.31
 98.57    1422.95      37.72
 98.67    1393.00      37.32
 98.77    1235.00      35.14
 98.87    1242.83      35.25
 98.97    1154.96      33.98
 99.07    1042.00      32.28
 99.17    1067.00      32.66
 99.27    1040.20      32.25
 99.37     908.00      30.13
 99.47     890.30      29.84
 99.57     902.49      30.04
 99.67     975.30      31.23
 99.77     970.00      31.14
 99.87    1005.00      31.70
 99.97    1005.49      31.71
100.07    1098.00      33.14
100.17    1155.76      34.00
100.27    1243.00      35.26
100.37    1349.00      36.73
100.47    1313.77      36.25
100.57    1485.00      38.54
100.67    1580.00      39.75
100.77    1616.39      40.20
100.87    1721.00      41.48
100.97    1907.00      43.67
101.07    1966.00      44.34
101.17    2041.00      45.18
101.27    2039.00      45.16
101.37    2041.07      45.18
101.47    2109.92      45.93
101.57    1991.00      44.62
101.67    2048.17      45.26
101.77    1934.00      43.98
101.87    1874.84      43.30
101.97    1864.00      43.17
102.07    1791.35      42.32
102.17    1711.65      41.37
102.27    1698.29      41.21
102.37    1556.00      39.45
102.47    1454.38      38.14
102.57    1423.00      37.72
102.67    1332.77      36.51
102.77    1301.00      36.07
102.87    1294.00      35.97
102.97    1229.00      35.06
103.07    1162.00      34.09
103.17    1245.50      35.29
103.27    1085.00      32.94
103.37    1112.00      33.35
103.47    1060.00      32.56
103.57    1071.01      32.73
103.67    1023.00      31.98
103.77     962.30      31.02
103.87     981.00      31.32
103.97     916.43      30.27
104.07     873.97      29.56
104.17     841.00      29.00
104.27     798.00      28.25
104.37     791.00      28.12
104.47     733.00      27.07
104.57     651.80      25.53
104.67     705.00      26.55
104.77     678.00      26.04
104.87     652.00      25.53
104.97     596.24      24.42
105.07     632.00      25.14
105.17     573.16      23.94
105.27     564.30      23.76
105.37     556.34      23.59
105.47     582.00      24.12
105.57     602.00      24.54
105.67     575.00      23.98
105.77     600.00      24.49
105.87     563.38      23.74
105.97     588.00      24.25
106.07     587.02      24.23
106.17     617.00      24.84
106.27     614.51      24.79
106.37     624.00      24.98
106.47     542.55      23.29
106.57     566.00      23.79
106.67     599.00      24.47
106.77     628.00      25.06
106.87     634.00      25.18
106.97     585.00      24.19
107.07     633.00      25.16
107.17     661.43      25.72
107.27     622.00      24.94
107.37     701.00      26.48
107.47     692.00      26.31
107.57     694.00      26.34
107.67     675.12      25.98
107.77     716.00      26.76
107.87     662.00      25.73
107.97     761.60      27.60
108.07     730.93      27.04
108.17     727.00      26.96
108.27     714.00      26.72
108.37     692.00      26.31
108.47     731.00      27.04
108.57     688.00      26.23
108.67     787.00      28.05
108.77     752.37      27.43
108.87     712.00      26.68
108.97     703.00      26.51
109.07     685.00      26.17
109.17     679.00      26.06
109.27     749.19      27.37
109.37     675.10      25.98
109.47     769.31      27.74
109.57     697.00      26.40
109.67     743.00      27.26
109.77     699.58      26.45
109.87     685.28      26.18
109.97     680.22      26.08
110.07     732.74      27.07
110.17     719.00      26.81
110.27     727.00      26.96
110.37     660.00      25.69
110.47     677.00      26.02
110.57     624.65      24.99
110.67     686.00      26.19
110.77     664.55      25.78
110.87     580.73      24.10
110.97     609.00      24.68
111.07     576.00      24.00
111.17     645.00      25.40
111.27     604.00      24.58
111.37     662.00      25.73
111.47     594.00      24.37
111.57     534.00      23.11
111.67     604.00      24.58
111.77     597.00      24.43
111.87     573.00      23.94
111.97     569.00      23.85
112.07     556.00      23.58
112.17     583.00      24.15
112.27     567.00      23.81
112.37     562.00      23.71
112.47     581.30      24.11
112.57     602.00      24.54
112.67     577.00      24.02
112.77     623.09      24.96
112.87     549.59      23.44
112.97     589.00      24.27
113.07     548.00      23.41
113.17     600.37      24.50
113.27     600.00      24.49
113.37     564.09      23.75
113.47     605.35      24.60
113.57     602.28      24.54
113.67     638.36      25.27
113.77     656.48      25.62
113.87     640.00      25.30
113.97     597.04      24.43
114.07     647.00      25.44
114.17     704.96      26.55
114.27     624.62      24.99
114.37     690.00      26.27
114.47     717.00      26.78
114.57     732.18      27.06
114.67     811.00      28.48
114.77     883.52      29.72
114.87     903.00      30.05
114.97     956.17      30.92
115.07     969.00      31.13
115.17    1103.00      33.21
115.27    1276.00      35.72
115.37    1309.00      36.18
115.47    1539.00      39.23
115.57    1733.00      41.63
115.67    1919.00      43.81
115.77    2140.00      46.26
115.87    2372.00      48.70
115.97    2658.00      51.56
116.07    2879.05      53.66
116.17    3263.40      57.13
116.27    3676.00      60.63
116.37    3929.41      62.68
116.47    4235.00      65.08
116.57    4685.00      68.45
116.67    5122.13      71.57
116.77    5366.60      73.26
116.87    5737.74      75.75
116.97    6114.73      78.20
117.07    6532.00      80.82
117.17    6799.00      82.46
117.27    7127.96      84.43
117.37    7158.65      84.61
117.47    7165.00      84.65
117.57    7110.87      84.33
117.67    7244.00      85.11
117.77    7014.00      83.75
117.87    6713.26      81.93
117.97    6467.00      80.42
118.07    6225.00      78.90
118.17    6089.67      78.04
118.27    5617.00      74.95
118.37    5307.00      72.85
118.47    4890.00      69.93
118.57    4535.00      67.34
118.67    4141.00      64.35
118.77    3742.68      61.18
118.87    3447.00      58.71
118.97    3161.91      56.23
119.07    2891.52      53.77
119.17    2513.00      50.13
119.27    2302.00      47.98
119.37    2113.00      45.97
119.47    1831.67      42.80
119.57    1696.00      41.18
119.67    1496.00      38.68
119.77    1419.00      37.67
119.87    1219.00      34.91
119.97    1157.30      34.02
120.07    1119.46      33.46
120.17    1010.00      31.78
120.27     997.00      31.58
120.37     943.00      30.71
120.47     849.00      29.14
120.57     850.00      29.15
120.67     760.19      27.57
120.77     755.00      27.48
120.87     743.00      27.26
120.97     682.00      26.12
121.07     740.00      27.20
121.17     634.00      25.18
121.27     637.79      25.25
121.37     652.00      25.53
121.47     625.00      25.00
121.57     666.00      25.81
121.67     674.00      25.96
121.77     628.00      25.06
121.87     644.00      25.38
121.97     587.00      24.23
122.07     621.76      24.94
122.17     649.08      25.48
122.27     635.00      25.20
122.37     624.39      24.99
122.47     634.00      25.18
122.57     628.00      25.06
122.67     628.00      25.06
122.77     658.00      25.65
122.87     612.11      24.74
122.97     664.48      25.78
123.07     645.43      25.41
123.17     644.00      25.38
123.27     681.00      26.10
123.37     714.28      26.73
123.47     690.49      26.28
123.57     705.04      26.55
123.67     746.00      27.31
123.77     665.00      25.79
123.87     729.32      27.01
123.97     732.65      27.07
124.07     694.00      26.34
124.17     673.52      25.95
124.27     695.00      26.36
124.37     700.00      26.46
124.47     706.00      26.57
124.57     668.00      25.85
124.67     691.00      26.29
124.77     704.00      26.53
124.87     729.00      27.00
124.97     676.00      26.00
