  9.97     565.00      23.77
 10.07     597.00      24.43
 10.17     539.13      23.22
 10.27     595.00      24.39
 10.37     595.00      24.39
 10.47     578.00      24.04
 10.57     555.17      23.56
 10.67     555.00      23.56
 10.77     541.17      23.26
 10.87     602.00      24.54
 10.97     615.00      24.80
 11.07     611.06      24.72
 11.17     582.00      24.12
 11.27     590.00      24.29
 11.37     590.00      24.29
 11.47     630.00      25.10
 11.57     603.00      24.56
 11.67     582.91      24.14
 11.77     634.00      25.18
 11.87     635.00      25.20
 11.97     648.00      25.46
 12.07     653.00      25.55
 12.17     697.00      26.40
 12.27     737.00      27.15
 12.37     670.03      25.88
 12.47     644.00      25.38
 12.57     596.00      24.41
 12.67     628.00      25.06
 12.77     607.00      24.64
 12.87     612.00      24.74
 12.97     545.39      23.35
 13.07     621.28      24.93
 13.17     606.00      24.62
 13.27     597.14      24.44
 13.37     595.00      24.39
 13.47     560.00      23.66
 13.57     541.00      23.26
 13.67     593.00      24.35
 13.77     582.00      24.12
 13.87     568.00      23.83
 13.97     546.00      23.37
 14.07     564.00      23.75
 14.17     589.90      24.29
 14.27     535.00      23.13
 14.37     561.00      23.69
 14.47     578.00      24.04
 14.57     578.00      24.04
 14.67     535.26      23.14
 14.77     597.00      24.43
 14.87     559.00      23.64
 14.97     564.00      23.75
 15.07     596.43      24.42
 15.17     566.00      23.79
 15.27     593.00      24.35
 15.37     589.24      24.27
 15.47     558.00      23.62
 15.57     514.00      22.67
 15.67     543.49      23.31
 15.77     642.00      25.34
 15.87     524.00      22.89
 15.97     545.00      23.35
 16.07     587.00      24.23
 16.17     524.55      22.90
 16.27     555.00      23.56
 16.37     554.36      23.54
 16.47     586.12      24.21
 16.57     597.00      24.43
 16.67     573.83      23.95
 16.77     523.00      22.87
 16.87     555.35      23.57
 16.97     560.34      23.67
 17.07     553.00      23.52
 17.17     578.56      24.05
 17.27     555.00      23.56
 17.37     572.00      23.92
 17.47     569.00      23.85
 17.57     548.08      23.41
 17.67     557.00      23.60
 17.77     558.00      23.62
 17.87     573.00      23.94
 17.97     542.00      23.28
 18.07     585.73      24.20
 18.17     605.00      24.60
 18.27     564.00      23.75
 18.37     572.71      23.93
 18.47     540.90      23.26
 18.57     581.00      24.10
 18.67     545.00      23.35
 18.77     530.00      23.02
 18.87     544.00      23.32
 18.97     552.00      23.49
 19.07     529.40      23.01
 19.17     557.00      23.60
 19.27     533.14      23.09
 19.37     562.00      23.71
 19.47     567.00      23.81
 19.57     570.00      23.87
 19.67     539.00      23.22
 19.77     546.00      23.37
 19.87     554.00      23.54
 19.97     514.03      22.67
 20.07     506.00      22.49
 20.17     533.00      23.09
 20.27     511.00      22.61
 20.37     524.00      22.89
 20.47     568.00      23.83
 20.57     555.00      23.56
 20.67     600.08      24.50
 20.77     513.00      22.65
 20.87     564.55      23.76
 20.97     567.00      23.81
 21.07     523.00      22.87
 21.17     568.00      23.83
 21.27     543.00      23.30
 21.37     528.00      22.98
 21.47     537.00      23.17
 21.57     541.00      23.26
 21.67     585.00      24.19
 21.77     606.00      24.62
 21.87     562.00      23.71
 21.97     556.00      23.58
 22.07     547.00      23.39
 22.17     584.05      24.17
 22.27     554.00      23.54
 22.37     515.42      22.70
 22.47     530.50      23.03
 22.57     560.98      23.69
 22.67     551.64      23.49
 22.77     568.53      23.84
 22.87     588.17      24.25
 22.97     552.00      23.49
 23.07     538.00      23.19
 23.17     536.90      23.17
 23.27     552.00      23.49
 23.37     577.92      24.04
 23.47     527.44      22.97
 23.57     520.00      22.80
 23.67     532.00      23.07
 23.77     568.00      23.83
 23.87     603.00      24.56
 23.97     505.99      22.49
 24.07     547.00      23.39
 24.17     604.00      24.58
 24.27     554.03      23.54
 24.37     552.00      23.49
 24.47     539.89      23.24
 24.57     608.24      24.66
 24.67     634.88      25.20
 24.77     582.00      24.12
 24.87     587.35      24.24
 24.97     635.00      25.20
 25.07     615.00      24.80
 25.17     598.31      24.46
 25.27     576.00      24.00
 25.37     524.84      22.91
 25.47     557.55      23.61
 25.57     552.00      23.49
 25.67     566.00      23.79
 25.77     535.41      23.14
 25.87     513.60      22.66
 25.97     527.00      22.96
 26.07     588.00      24.25
 26.17     567.00      23.81
 26.27     502.84      22.42
 26.37     564.00      23.75
 26.47     582.00      24.12
 26.57     498.66      22.33
 26.67     509.16      22.56
 26.77     549.00      23.43
 26.87     563.00      23.73
 26.97     560.00      23.66
 27.07     575.76      24.00
 27.17     553.00      23.52
 27.27     504.29      22.46
 27.37     568.00      23.83
 27.47     542.95      23.30
 27.57     550.00      23.45
 27.67     518.21      22.76
 27.77     582.00      24.12
 27.87     596.60      24.43
 27.97     696.00      26.38
 28.07     762.00      27.60
 28.17     906.00      30.10
 28.27     958.00      30.95
 28.37     859.42      29.32
 28.47     798.00      28.25
 28.57     690.85      26.28
 28.67     684.00      26.15
 28.77     720.00      26.83
 28.87     753.00      27.44
 28.97     860.07      29.33
 29.07     779.00      27.91
 29.17     723.40      26.90
 29.27     604.64      24.59
 29.37     591.00      24.31
 29.47     535.53      23.14
 29.57     608.00      24.66
 29.67     559.55      23.65
 29.77     562.63      23.72
 29.87     563.28      23.73
 29.97     574.00      23.96
 30.07     539.62      23.23
 30.17     558.00      23.62
 30.27     556.82      23.60
 30.37     532.57      23.08
 30.47     521.69      22.84
 30.57     567.36      23.82
 30.67     616.00      24.82
 30.77     587.00      24.23
 30.87     603.00      24.56
 30.97     633.00      25.16
 31.07     587.00      24.23
 31.17     568.21      23.84
 31.27     586.00      24.21
 31.37     587.03      24.23
 31.47     569.00      23.85
 31.57     543.00      23.30
 31.67     516.80      22.73
 31.77     573.00      23.94
 31.87     550.00      23.45
 31.97     592.00      24.33
 32.07     516.22      22.72
 32.17     543.96      23.32
 32.27     569.00      23.85
 32.37     573.00      23.94
 32.47     560.12      23.67
 32.57     507.89      22.54
 32.67     551.00      23.47
 32.77     490.36      22.14
 32.87     540.85      23.26
 32.97     514.00      22.67
 33.07     510.00      22.58
 33.17     574.00      23.96
 33.27     538.00      23.19
 33.37     520.00      22.80
 33.47     613.00      24.76
 33.57     635.22      25.20
 33.67     642.73      25.35
 33.77     763.00      27.62
 33.87     895.64      29.93
 33.97    1007.00      31.73
 34.07    1035.00      32.17
 34.17    1012.00      31.81
 34.27     907.00      30.12
 34.37     784.00      28.00
 34.47     619.21      24.88
 34.57     613.00      24.76
 34.67     537.76      23.19
 34.77     566.00      23.79
 34.87     502.74      22.42
 34.97     560.54      23.68
 35.07     545.00      23.35
 35.17     541.00      23.26
 35.27     484.60      22.01
 35.37     502.00      22.41
 35.47     522.09      22.85
 35.57     502.36      22.41
 35.67     500.00      22.36
 35.77     507.00      22.52
 35.87     545.00      23.35
 35.97     473.00      21.75
 36.07     510.00      22.58
 36.17     500.00      22.36
 36.27     461.00      21.47
 36.37     470.85      21.70
 36.47     482.74      21.97
 36.57     500.27      22.37
 36.67     504.00      22.45
 36.77     553.26      23.52
 36.87     491.00      22.16
 36.97     498.00      22.32
 37.07     535.00      23.13
 37.17     511.00      22.61
 37.27     481.58      21.94
 37.37     508.00      22.54
 37.47     499.00      22.34
 37.57     531.00      23.04
 37.67     499.28      22.34
 37.77     532.00      23.07
 37.87     500.00      22.36
 37.97     478.00      21.86
 38.07     519.00      22.78
 38.17     486.42      22.05
 38.27     531.61      23.06
 38.37     550.57      23.46
 38.47     506.00      22.49
 38.57     512.00      22.63
 38.67     474.00      21.77
 38.77     497.00      22.29
 38.87     502.15      22.41
 38.97     503.77      22.44
 39.07     548.00      23.41
 39.17     498.72      22.33
 39.27     498.00      22.32
 39.37     494.99      22.25
 39.47     463.00      21.52
 39.57     526.69      22.95
 39.67     531.00      23.04
 39.77     496.00      22.27
 39.87     468.13      21.64
 39.97     475.22      21.80
 40.07     508.44      22.55
 40.17     505.43      22.48
 40.27     459.00      21.42
 40.37     485.00      22.02
 40.47     493.00      22.20
 40.57     488.00      22.09
 40.67     496.00      22.27
 40.77     521.35      22.83
 40.87     536.58      23.16
 40.97     512.00      22.63
 41.07     466.74      21.60
 41.17     532.00      23.07
 41.27     453.00      21.28
 41.37     472.56      21.74
 41.47     521.27      22.83
 41.57     495.00      22.25
 41.67     548.03      23.41
 41.77     515.63      22.71
 41.87     491.00      22.16
 41.97     481.00      21.93
 42.07     518.00      22.76
 42.17     477.00      21.84
 42.27     510.00      22.58
 42.37     588.00      24.25
 42.47     565.00      23.77
 42.57     569.00      23.85
 42.67     549.00      23.43
 42.77     568.00      23.83
 42.87     630.00      25.10
 42.97     545.71      23.36
 43.07     559.00      23.64
 43.17     523.00      22.87
 43.27     538.00      23.19
 43.37     515.95      22.71
 43.47     488.00      22.09
 43.57     515.00      22.69
 43.67     534.00      23.11
 43.77     523.00      22.87
 43.87     519.00      22.78
 43.97     459.00      21.42
 44.07     481.00      21.93
 44.17     493.00      22.20
 44.27     532.96      23.09
 44.37     511.66      22.62
 44.47     516.00      22.72
 44.57     515.00      22.69
 44.67     543.04      23.30
 44.77     492.00      22.18
 44.87     524.00      22.89
 44.97     513.00      22.65
 45.07     478.00      21.86
 45.17     541.71      23.27
 45.27     489.00      22.11
 45.37     504.00      22.45
 45.47     513.46      22.66
 45.57     491.00      22.16
 45.67     543.41      23.31
 45.77     455.00      21.33
 45.87     464.06      21.54
 45.97     523.79      22.89
 46.07     513.88      22.67
 46.17     524.00      22.89
 46.27     493.00      22.20
 46.37     489.26      22.12
 46.47     525.00      22.91
 46.57     531.00      23.04
 46.67     496.17      22.27
 46.77     492.00      22.18
 46.87     511.15      22.61
 46.97     502.00      22.41
 47.07     474.58      21.78
 47.17     493.00      22.20
 47.27     540.82      23.26
 47.37     533.00      23.09
 47.47     559.77      23.66
 47.57     570.00      23.87
 47.67     521.00      22.83
 47.77     539.00      23.22
 47.87     589.00      24.27
 47.97     594.00      24.37
 48.07     538.20      23.20
 48.17     586.00      24.21
 48.27     569.00      23.85
 48.37     572.53      23.93
 48.47     575.00      23.98
 48.57     513.00      22.65
 48.67     510.00      22.58
 48.77     556.10      23.58
 48.87     571.00      23.90
 48.97     574.00      23.96
 49.07     553.64      23.53
 49.17     581.24      24.11
 49.27     620.96      24.92
 49.37     598.00      24.45
 49.47     665.00      25.79
 49.57     666.90      25.82
 49.67     854.00      29.22
 49.77    1117.00      33.42
 49.87    1327.56      36.44
 49.97    1812.00      42.57
 50.07    2172.00      46.60
 50.17    2405.00      49.04
 50.27    2448.00      49.48
 50.37    2178.00      46.67
 50.47    1842.87      42.93
 50.57    1411.00      37.56
 50.67    1086.42      32.96
 50.77     847.00      29.10
 50.87     717.11      26.78
 50.97     697.49      26.41
 51.07     611.04      24.72
 51.17     641.77      25.33
 51.27     625.32      25.01
 51.37     604.00      24.58
 51.47     530.25      23.03
 51.57     561.00      23.69
 51.67     534.00      23.11
 51.77     563.00      23.73
 51.87     501.11      22.39
 51.97     547.94      23.41
 52.07     555.15      23.56
 52.17     548.00      23.41
 52.27     549.00      23.43
 52.37     558.00      23.62
 52.47     571.00      23.90
 52.57     578.00      24.04
 52.67     534.56      23.12
 52.77     608.00      24.66
 52.87     633.00      25.16
 52.97     713.97      26.72
 53.07     773.88      27.82
 53.17     849.42      29.14
 53.27    1101.00      33.18
 53.37    1128.00      33.59
 53.47    1239.03      35.20
 53.57    1233.00      35.11
 53.67    1055.00      32.48
 53.77    1003.00      31.67
 53.87     824.00      28.71
 53.97     782.98      27.98
 54.07     701.00      26.48
 54.17     654.00      25.57
 54.27     570.69      23.89
 54.37     537.39      23.18
 54.47     545.00      23.35
 54.57     549.00      23.43
 54.67     541.00      23.26
 54.77     584.20      24.17
 54.87     568.00      23.83
 54.97     578.00      24.04
 55.07     582.00      24.12
 55.17     519.91      22.80
 55.27     508.72      22.55
 55.37     526.33      22.94
 55.47     579.00      24.06
 55.57     542.00      23.28
 55.67     592.92      24.35
 55.77     609.00      24.68
 55.87     620.00      24.90
 55.97     623.00      24.96
 56.07     740.01      27.20
 56.17     803.00      28.34
 56.27     979.17      31.29
 56.37    1190.41      34.50
 56.47    1442.00      37.97
 56.57    1750.00      41.83
 56.67    2141.00      46.27
 56.77    2399.44      48.98
 56.87    2563.00      50.63
 56.97    2671.00      51.68
 57.07    2383.00      48.82
 57.17    2031.29      45.07
 57.27    1611.00      40.14
 57.37    1354.35      36.80
 57.47    1056.00      32.50
 57.57     913.00      30.22
 57.67     800.00      28.28
 57.77     768.00      27.71
 57.87     676.17      26.00
 57.97     704.00      26.53
 58.07     706.00      26.57
 58.17     701.00      26.48
 58.27     745.00      27.29
 58.37     747.00      27.33
 58.47     879.41      29.65
 58.57     912.00      30.20
 58.67    1114.00      33.38
 58.77    1205.18      34.72
 58.87    1340.04      36.61
 58.97    1352.00      36.77
 59.07    1324.31      36.39
 59.17    1281.35      35.80
 59.27    1333.00      36.51
 59.37    1254.00      35.41
 59.47    1197.70      34.61
 59.57    1199.00      34.63
 59.67    1191.00      34.51
 59.77    1067.00      32.66
 59.87    1160.37      34.06
 59.97    1266.79      35.59
 60.07    1451.00      38.09
 60.17    1445.83      38.02
 60.27    1477.01      38.43
 60.37    1422.74      37.72
 60.47    1350.95      36.76
 60.57    1188.22      34.47
 60.67    1064.77      32.63
 60.77     886.00      29.77
 60.87     841.00      29.00
 60.97     714.00      26.72
 61.07     633.65      25.17
 61.17     614.00      24.78
 61.27     658.29      25.66
 61.37     669.00      25.87
 61.47     667.00      25.83
 61.57     741.00      27.22
 61.67     866.00      29.43
 61.77     924.70      30.41
 61.87    1153.10      33.96
 61.97    1164.00      34.12
 62.07    1360.00      36.88
 62.17    1453.00      38.12
 62.27    1470.52      38.35
 62.37    1302.00      36.08
 62.47    1122.00      33.50
 62.57    1052.00      32.43
 62.67     988.46      31.44
 62.77     755.00      27.48
 62.87     711.00      26.66
 62.97     656.00      25.61
 63.07     577.00      24.02
 63.17     609.00      24.68
 63.27     540.21      23.24
 63.37     600.63      24.51
 63.47     558.00      23.62
 63.57     564.00      23.75
 63.67     536.00      23.15
 63.77     598.00      24.45
 63.87     636.00      25.22
 63.97     707.00      26.59
 64.07     768.00      27.71
 64.17     778.00      27.89
 64.27     905.00      30.08
 64.37     924.90      30.41
 64.47     992.65      31.51
 64.57    1022.43      31.98
 64.67    1027.83      32.06
 64.77     996.00      31.56
 64.87    1020.00      31.94
 64.97     925.00      30.41
 65.07     890.00      29.83
 65.17     811.35      28.48
 65.27     728.00      26.98
 65.37     666.00      25.81
 65.47     690.44      26.28
 65.57     644.00      25.38
 65.67     635.77      25.21
 65.77     605.00      24.60
 65.87     556.96      23.60
 65.97     571.00      23.90
 66.07     575.11      23.98
 66.17     525.65      22.93
 66.27     547.04      23.39
 66.37     600.00      24.49
 66.47     539.80      23.23
 66.57     539.78      23.23
 66.67     540.87      23.26
 66.77     545.00      23.35
 66.87     570.00      23.87
 66.97     578.28      24.05
 67.07     644.00      25.38
 67.17     719.00      26.81
 67.27     815.00      28.55
 67.37     920.00      30.33
 67.47    1098.00      33.14
 67.57    1253.14      35.40
 67.67    1519.00      38.97
 67.77    1728.00      41.57
 67.87    2073.00      45.53
 67.97    2239.00      47.32
 68.07    2324.00      48.21
 68.17    2479.75      49.80
 68.27    2342.84      48.40
 68.37    2128.00      46.13
 68.47    1897.19      43.56
 68.57    1522.00      39.01
 68.67    1264.45      35.56
 68.77    1081.00      32.88
 68.87     924.00      30.40
 68.97     830.18      28.81
 69.07     678.38      26.05
 69.17     658.00      25.65
 69.27     610.22      24.70
 69.37     604.00      24.58
 69.47     604.00      24.58
 69.57     557.00      23.60
 69.67     576.00      24.00
 69.77     532.00      23.07
 69.87     597.79      24.45
 69.97     597.45      24.44
 70.07     553.00      23.52
 70.17     585.00      24.19
 70.27     603.00      24.56
 70.37     565.77      23.79
 70.47     612.06      24.74
 70.57     569.00      23.85
 70.67     569.00      23.85
 70.77     610.86      24.72
 70.87     618.00      24.86
 70.97     625.00      25.00
 71.07     645.88      25.41
 71.17     727.00      26.96
 71.27     827.00      28.76
 71.37     970.00      31.14
 71.47    1059.97      32.56
 71.57    1280.00      35.78
 71.67    1408.00      37.52
 71.77    1617.46      40.22
 71.87    1813.00      42.58
 71.97    1886.78      43.44
 72.07    1956.64      44.23
 72.17    1904.32      43.64
 72.27    1738.00      41.69
 72.37    1652.30      40.65
 72.47    1487.00      38.56
 72.57    1328.00      36.44
 72.67    1109.00      33.30
 72.77    1013.00      31.83
 72.87     922.52      30.37
 72.97     818.00      28.60
 73.07     721.00      26.85
 73.17     751.72      27.42
 73.27     643.00      25.36
 73.37     687.00      26.21
 73.47     644.27      25.38
 73.57     632.63      25.15
 73.67     564.00      23.75
 73.77     582.00      24.12
 73.87     626.00      25.02
 73.97     640.00      25.30
 74.07     559.33      23.65
 74.17     573.28      23.94
 74.27     580.00      24.08
 74.37     617.63      24.85
 74.47     544.60      23.34
 74.57     599.00      24.47
 74.67     654.00      25.57
 74.77     560.00      23.66
 74.87     606.81      24.63
 74.97     536.67      23.17
 75.07     565.53      23.78
 75.17     583.91      24.16
 75.27     557.00      23.60
 75.37     539.96      23.24
 75.47     560.71      23.68
 75.57     577.00      24.02
 75.67     561.67      23.70
 75.77     577.30      24.03
 75.87     609.64      24.69
 75.97     648.00      25.46
 76.07     594.34      24.38
 76.17     680.00      26.08
 76.27     641.00      25.32
 76.37     684.00      26.15
 76.47     683.00      26.13
 76.57     720.00      26.83
 76.67     653.00      25.55
 76.77     642.00      25.34
 76.87     641.00      25.32
 76.97     678.55      26.05
 77.07     589.00      24.27
 77.17     613.60      24.77
 77.27     571.08      23.90
 77.37     593.00      24.35
 77.47     569.00      23.85
 77.57     524.00      22.89
 77.67     528.00      22.98
 77.77     498.49      22.33
 77.87     530.00      23.02
 77.97     501.10      22.39
 78.07     527.00      22.96
 78.17     516.00      22.72
 78.27     521.45      22.84
 78.37     492.00      22.18
 78.47     505.00      22.47
 78.57     525.12      22.92
 78.67     505.72      22.49
 78.77     509.59      22.57
 78.87     567.00      23.81
 78.97     522.30      22.85
 79.07     485.69      22.04
 79.17     533.94      23.11
 79.27     511.76      22.62
 79.37     500.41      22.37
 79.47     500.00      22.36
 79.57     555.00      23.56
 79.67     523.74      22.89
 79.77     531.19      23.05
 79.87     545.00      23.35
 79.97     542.00      23.28
 80.07     509.00      22.56
 80.17     581.14      24.11
 80.27     585.00      24.19
 80.37     559.00      23.64
 80.47     601.00      24.52
 80.57     622.00      24.94
 80.67     614.00      24.78
 80.77     656.00      25.61
 80.87     626.15      25.02
 80.97     692.00      26.31
 81.07     738.83      27.18
 81.17     734.00      27.09
 81.27     749.00      27.37
 81.37     758.61      27.54
 81.47     740.00      27.20
 81.57     770.16      27.75
 81.67     734.00      27.09
 81.77     740.00      27.20
 81.87     698.00      26.42
 81.97     687.00      26.21
 82.07     680.00      26.08
 82.17     647.44      25.44
 82.27     639.79      25.29
 82.37     694.00      26.34
 82.47     630.00      25.10
 82.57     551.54      23.48
 82.67     560.00      23.66
 82.77     521.00      22.83
 82.87     548.00      23.41
 82.97     553.00      23.52
 83.07     522.00      22.85
 83.17     571.58      23.91
 83.27     563.00      23.73
 83.37     554.00      23.54
 83.47     569.00      23.85
 83.57     595.54      24.40
 83.67     590.00      24.29
 83.77     514.00      22.67
 83.87     571.92      23.91
 83.97     604.41      24.58
 84.07     624.20      24.98
 84.17     551.00      23.47
 84.27     567.00      23.81
 84.37     553.00      23.52
 84.47     548.97      23.43
 84.57     585.00      24.19
 84.67     516.30      22.72
 84.77     541.00      23.26
 84.87     538.00      23.19
 84.97     560.00      23.66
 85.07     506.00      22.49
 85.17     567.00      23.81
 85.27     564.72      23.76
 85.37     570.66      23.89
 85.47     492.92      22.20
 85.57     510.00      22.58
 85.67     485.67      22.04
 85.77     561.58      23.70
 85.87     523.08      22.87
 85.97     540.00      23.24
 86.07     526.00      22.93
 86.17     548.00      23.41
 86.27     597.00      24.43
 86.37     535.00      23.13
 86.47     557.00      23.60
 86.57     562.00      23.71
 86.67     564.17      23.75
 86.77     598.64      24.47
 86.87     541.93      23.28
 86.97     617.63      24.85
 87.07     611.89      24.74
 87.17     662.09      25.73
 87.27     637.00      25.24
 87.37     663.00      25.75
 87.47     627.00      25.04
 87.57     654.00      25.57
 87.67     597.25      24.44
 87.77     666.25      25.81
 87.87     594.00      24.37
 87.97     577.93      24.04
 88.07     630.90      25.12
 88.17     590.41      24.30
 88.27     614.00      24.78
 88.37     540.61      23.25
 88.47     593.38      24.36
 88.57     587.03      24.23
 88.67     554.00      23.54
 88.77     587.12      24.23
 88.87     532.00      23.07
 88.97     574.00      23.96
 89.07     598.00      24.45
 89.17     580.15      24.09
 89.27     587.00      24.23
 89.37     572.00      23.92
 89.47     567.00      23.81
 89.57     590.00      24.29
 89.67     624.64      24.99
 89.77     563.00      23.73
 89.87     599.00      24.47
 89.97     515.00      22.69
 90.07     565.03      23.77
 90.17     586.55      24.22
 90.27     538.00      23.19
 90.37     573.32      23.94
 90.47     535.00      23.13
 90.57     532.00      23.07
 90.67     506.79      22.51
 90.77     529.00      23.00
 90.87     516.54      22.73
 90.97     484.00      22.00
 91.07     529.00      23.00
 91.17     556.00      23.58
 91.27     508.00      22.54
 91.37     525.35      22.92
 91.47     517.00      22.74
 91.57     571.00      23.90
 91.67     530.56      23.03
 91.77     553.00      23.52
 91.87     510.79      22.60
 91.97     568.00      23.83
 92.07     527.00      22.96
 92.17     612.20      24.74
 92.27     622.70      24.95
 92.37     598.00      24.45
 92.47     614.73      24.79
 92.57     668.41      25.85
 92.67     701.00      26.48
 92.77     654.16      25.58
 92.87     658.00      25.65
 92.97     714.00      26.72
 93.07     744.00      27.28
 93.17     758.00      27.53
 93.27     767.00      27.69
 93.37     792.00      28.14
 93.47     763.00      27.62
 93.57     805.00      28.37
 93.67     813.00      28.51
 93.77     784.41      28.01
 93.87     829.00      28.79
 93.97     828.66      28.79
 94.07     816.00      28.57
 94.17     890.64      29.84
 94.27     850.00      29.15
 94.37     912.00      30.20
 94.47     917.00      30.28
 94.57     901.00      30.02
 94.67     937.00      30.61
 94.77     940.00      30.66
 94.87     917.00      30.28
 94.97     952.00      30.85
 95.07     846.00      29.09
 95.17     871.03      29.51
 95.27     842.16      29.02
 95.37     818.00      28.60
 95.47     761.00      27.59
 95.57     768.00      27.71
 95.67     755.63      27.49
 95.77     743.85      27.27
 95.87     722.00      26.87
 95.97     683.00      26.13
 96.07     732.00      27.06
 96.17     670.00      25.88
 96.27     744.00      27.28
 96.37     735.00      27.11
 96.47     779.00      27.91
 96.57     816.05      28.57
 96.67     930.00      30.50
 96.77    1044.69      32.32
 96.87    1093.15      33.06
 96.97    1156.00      34.00
 97.07    1160.04      34.06
 97.17    1234.85      35.14
 97.27    1341.00      36.62
 97.37    1389.00      37.27
 97.47    1478.47      38.45
 97.57    1372.93      37.05
 97.67    1405.00      37.48
 97.77    1361.00      36.89
 97.87    1366.00      36.96
 97.97    1309.00      36.18
 98.07    1261.00      35.51
 98.17    1241.21      35.23
 98.27    1094.00      33.08
 98.37    1049.00      32.39
 98.47     944.72      30.74
 98.57     886.00      29.77
 98.67     855.00      29.24
 98.77     838.00      28.95
 98.87     869.41      29.49
 98.97     781.29      27.95
 99.07     832.80      28.86
 99.17     868.00      29.46
 99.27     921.00      30.35
 99.37    1004.99      31.70
 99.47     969.00      31.13
 99.57    1060.00      32.56
 99.67    1175.13      34.28
 99.77    1249.00      35.34
 99.87    1414.00      37.60
 99.97    1543.00      39.28
100.07    1627.00      40.34
100.17    1737.00      41.68
100.27    1881.00      43.37
100.37    1835.51      42.84
100.47    1886.00      43.43
100.57    2019.12      44.93
100.67    2019.00      44.93
100.77    2097.00      45.79
100.87    1980.00      44.50
100.97    1892.20      43.50
101.07    1891.00      43.49
101.17    1939.00      44.03
101.27    1757.47      41.92
101.37    1644.60      40.55
101.47    1661.00      40.76
101.57    1501.00      38.74
101.67    1413.00      37.59
101.77    1377.71      37.12
101.87    1285.00      35.85
101.97    1221.00      34.94
102.07    1253.00      35.40
102.17    1183.00      34.39
102.27    1229.38      35.06
102.37    1149.99      33.91
102.47    1134.00      33.67
102.57    1050.00      32.40
102.67    1072.00      32.74
102.77    1000.00      31.62
102.87    1068.89      32.69
102.97     992.00      31.50
103.07     979.00      31.29
103.17     883.08      29.72
103.27     832.67      28.86
103.37     778.69      27.90
103.47     791.00      28.12
103.57     787.00      28.05
103.67     697.92      26.42
103.77     727.00      26.96
103.87     668.00      25.85
103.97     662.00      25.73
104.07     643.00      25.36
104.17     617.00      24.84
104.27     599.83      24.49
104.37     526.52      22.95
104.47     558.00      23.62
104.57     595.76      24.41
104.67     594.00      24.37
104.77     581.00      24.10
104.87     535.00      23.13
104.97     556.90      23.60
105.07     507.00      22.52
105.17     537.00      23.17
105.27     552.00      23.49
105.37     548.00      23.41
105.47     557.00      23.60
105.57     580.00      24.08
105.67     557.00      23.60
105.77     556.38      23.59
105.87     550.00      23.45
105.97     591.00      24.31
106.07     625.00      25.00
106.17     623.78      24.98
106.27     556.00      23.58
106.37     623.82      24.98
106.47     584.19      24.17
106.57     607.00      24.64
106.67     626.00      25.02
106.77     654.49      25.58
106.87     662.00      25.73
106.97     699.00      26.44
107.07     638.00      25.26
107.17     663.00      25.75
107.27     716.00      26.76
107.37     742.27      27.24
107.47     675.00      25.98
107.57     726.00      26.94
107.67     648.00      25.46
107.77     701.00      26.48
107.87     658.00      25.65
107.97     701.00      26.48
108.07     671.00      25.90
108.17     654.00      25.57
108.27     737.86      27.16
108.37     673.53      25.95
108.47     723.00      26.89
108.57     687.14      26.21
108.67     690.00      26.27
108.77     666.00      25.81
108.87     696.00      26.38
108.97     697.31      26.41
109.07     649.49      25.49
109.17     657.00      25.63
109.27     632.00      25.14
109.37     652.47      25.54
109.47     606.17      24.62
109.57     617.00      24.84
109.67     640.00      25.30
109.77     615.00      24.80
109.87     572.77      23.93
109.97     613.00      24.76
110.07     593.66      24.37
110.17     626.00      25.02
110.27     554.00      23.54
110.37     550.84      23.47
110.47     588.00      24.25
110.57     537.00      23.17
110.67     532.00      23.07
110.77     503.58      22.44
110.87     618.00      24.86
110.97     539.00      23.22
111.07     536.00      23.15
111.17     546.34      23.37
111.27     573.87      23.96
111.37     571.00      23.90
111.47     543.00      23.30
111.57     578.00      24.04
111.67     554.00      23.54
111.77     534.00      23.11
111.87     564.35      23.76
111.97     573.17      23.94
112.07     530.00      23.02
112.17     601.33      24.52
112.27     549.31      23.44
112.37     645.00      25.40
112.47     559.06      23.64
112.57     565.57      23.78
112.67     637.61      25.25
112.77     582.00      24.12
112.87     597.00      24.43
112.97     628.00      25.06
113.07     628.83      25.08
113.17     639.00      25.28
113.27     643.96      25.38
113.37     658.00      25.65
113.47     714.00      26.72
113.57     711.86      26.68
113.67     737.00      27.15
113.77     765.00      27.66
113.87     833.64      28.87
113.97     794.00      28.18
114.07     848.00      29.12
114.17     923.00      30.38
114.27     999.14      31.61
114.37    1033.00      32.14
114.47    1250.43      35.36
114.57    1361.50      36.90
114.67    1493.20      38.64
114.77    1643.85      40.54
114.87    1868.00      43.22
114.97    2069.00      45.49
115.07    2314.00      48.10
115.17    2467.00      49.67
115.27    2873.00      53.60
115.37    3209.00      56.65
115.47    3303.00      57.47
115.57    3722.00      61.01
115.67    4052.05      63.66
115.77    4349.00      65.95
115.87    4854.00      69.67
115.97    5226.00      72.29
116.07    5535.00      74.40
116.17    5890.00      76.75
116.27    6113.00      78.19
116.37    6296.50      79.35
116.47    6550.00      80.93
116.57    6834.00      82.67
116.67    6953.33      83.39
116.77    6836.00      82.68
116.87    6596.91      81.22
116.97    6577.00      81.10
117.07    6165.00      78.52
117.17    6158.00      78.47
117.27    5957.96      77.19
117.37    5323.00      72.96
117.47    5050.00      71.06
117.57    4825.07      69.46
117.67    4325.12      65.77
117.77    3929.46      62.69
117.87    3530.47      59.42
117.97    3173.15      56.33
118.07    2863.00      53.51
118.17    2605.00      51.04
118.27    2353.00      48.51
118.37    2105.00      45.88
118.47    1870.00      43.24
118.57    1659.00      40.73
118.67    1476.00      38.42
118.77    1370.69      37.02
118.87    1188.00      34.47
118.97    1094.36      33.08
119.07    1039.00      32.23
119.17     918.00      30.30
119.27     892.09      29.87
119.37     813.00      28.51
119.47     737.00      27.15
119.57     707.60      26.60
119.67     731.14      27.04
119.77     628.00      25.06
119.87     629.00      25.08
119.97     633.00      25.16
120.07     597.00      24.43
120.17     621.00      24.92
120.27     566.36      23.80
120.37     565.00      23.77
120.47     578.00      24.04
120.57     565.00      23.77
120.67     604.00      24.58
120.77     550.46      23.46
120.87     563.92      23.75
120.97     611.00      24.72
121.07     577.91      24.04
121.17     586.00      24.21
121.27     556.45      23.59
121.37     567.00      23.81
121.47     634.00      25.18
121.57     616.00      24.82
121.67     606.00      24.62
121.77     586.00      24.21
121.87     589.00      24.27
121.97     569.63      23.87
122.07     614.00      24.78
122.17     572.00      23.92
122.27     624.00      24.98
122.37     660.00      25.69
122.47     634.00      25.18
122.57     628.00      25.06
122.67     670.00      25.88
122.77     631.00      25.12
122.87     653.45      25.56
122.97     625.04      25.00
123.07     651.00      25.51
123.17     652.00      25.53
123.27     629.69      25.09
123.37     638.00      25.26
123.47     642.00      25.34
123.57     587.81      24.24
123.67     648.38      25.46
123.77     603.56      24.57
123.87     633.43      25.17
123.97     627.00      25.04
124.07     649.74      25.49
124.17     584.70      24.18
124.27     572.27      23.92
124.37     623.00      24.96
124.47     598.00      24.45
124.57     637.84      25.26
124.67     602.00      24.54
124.77     574.00      23.96
124.87     597.30      24.44
124.97     575.00      23.98
