  9.97     706.00      26.57
 10.07     764.00      27.64
 10.17     780.00      27.93
 10.27     713.00      26.70
 10.37     679.00      26.06
 10.47     713.00      26.70
 10.57     713.87      26.72
 10.67     700.00      26.46
 10.77     768.00      27.71
 10.87     776.00      27.86
 10.97     761.45      27.59
 11.07     782.00      27.96
 11.17     696.73      26.40
 11.27     673.81      25.96
 11.37     722.00      26.87
 11.47     717.04      26.78
 11.57     754.00      27.46
 11.67     762.00      27.60
 11.77     786.00      28.04
 11.87     727.83      26.98
 11.97     740.49      27.21
 12.07     776.19      27.86
 12.17     765.55      27.67
 12.27     886.00      29.77
 12.37     866.00      29.43
 12.47     771.77      27.78
 12.57     727.23      26.97
 12.67     724.00      26.91
 12.77     704.00      26.53
 12.87     696.00      26.38
 12.97     693.42      26.33
 13.07     634.00      25.18
 13.17     742.00      27.24
 13.27     653.00      25.55
 13.37     654.00      25.57
 13.47     663.00      25.75
 13.57     707.41      26.60
 13.67     705.19      26.56
 13.77     675.63      25.99
 13.87     706.77      26.59
 13.97     705.00      26.55
 14.07     717.00      26.78
 14.17     710.25      26.65
 14.27     736.45      27.14
 14.37     678.56      26.05
 14.47     676.00      26.00
 14.57     653.00      25.55
 14.67     649.00      25.48
 14.77     680.00      26.08
 14.87     659.00      25.67
 14.97     675.11      25.98
 15.07     680.00      26.08
 15.17     617.00      24.84
 15.27     669.30      25.87
 15.37     676.00      26.00
 15.47     653.60      25.57
 15.57     688.18      26.23
 15.67     691.00      26.29
 15.77     641.00      25.32
 15.87     661.00      25.71
 15.97     680.00      26.08
 16.07     630.56      25.11
 16.17     618.00      24.86
 16.27     690.00      26.27
 16.37     636.88      25.24
 16.47     632.87      25.16
 16.57     662.00      25.73
 16.67     688.00      26.23
 16.77     682.03      26.12
 16.87     688.67      26.24
 16.97     696.33      26.39
 17.07     710.83      26.66
 17.17     708.66      26.62
 17.27     634.85      25.20
 17.37     672.00      25.92
 17.47     649.00      25.48
 17.57     644.00      25.38
 17.67     627.00      25.04
 17.77     641.00      25.32
 17.87     685.00      26.17
 17.97     657.00      25.63
 18.07     651.00      25.51
 18.17     608.48      24.67
 18.27     691.00      26.29
 18.37     665.00      25.79
 18.47     629.00      25.08
 18.57     676.00      26.00
 18.67     658.00      25.65
 18.77     692.41      26.31
 18.87     700.00      26.46
 18.97     622.76      24.96
 19.07     694.30      26.35
 19.17     676.78      26.02
 19.27     674.00      25.96
 19.37     643.00      25.36
 19.47     625.00      25.00
 19.57     614.00      24.78
 19.67     619.98      24.90
 19.77     614.00      24.78
 19.87     635.00      25.20
 19.97     697.19      26.40
 20.07     647.00      25.44
 20.17     691.85      26.30
 20.27     701.00      26.48
 20.37     637.00      25.24
 20.47     607.00      24.64
 20.57     621.98      24.94
 20.67     606.00      24.62
 20.77     620.00      24.90
 20.87     667.00      25.83
 20.97     606.90      24.64
 21.07     611.10      24.72
 21.17     644.00      25.38
 21.27     613.79      24.77
 21.37     596.37      24.42
 21.47     678.04      26.04
 21.57     674.00      25.96
 21.67     643.00      25.36
 21.77     631.00      25.12
 21.87     646.00      25.42
 21.97     615.00      24.80
 22.07     650.00      25.50
 22.17     622.00      24.94
 22.27     638.09      25.26
 22.37     648.00      25.46
 22.47     648.28      25.46
 22.57     594.00      24.37
 22.67     637.78      25.25
 22.77     683.69      26.15
 22.87     601.20      24.52
 22.97     622.00      24.94
 23.07     575.00      23.98
 23.17     618.00      24.86
 23.27     609.81      24.69
 23.37     621.23      24.92
 23.47     621.00      24.92
 23.57     661.87      25.73
 23.67     622.02      24.94
 23.77     596.37      24.42
 23.87     659.64      25.68
 23.97     653.00      25.55
 24.07     630.00      25.10
 24.17     681.00      26.10
 24.27     664.42      25.78
 24.37     638.00      25.26
 24.47     606.07      24.62
 24.57     685.00      26.17
 24.67     696.26      26.39
 24.77     633.17      25.16
 24.87     713.00      26.70
 24.97     671.65      25.92
 25.07     718.00      26.80
 25.17     683.00      26.13
 25.27     663.00      25.75
 25.37     687.00      26.21
 25.47     660.77      25.71
 25.57     709.00      26.63
 25.67     608.19      24.66
 25.77     696.80      26.40
 25.87     693.00      26.32
 25.97     665.00      25.79
 26.07     658.00      25.65
 26.17     610.49      24.71
 26.27     681.00      26.10
 26.37     658.50      25.66
 26.47     717.38      26.78
 26.57     635.00      25.20
 26.67     654.00      25.57
 26.77     670.28      25.89
 26.87     657.00      25.63
 26.97     690.01      26.27
 27.07     675.00      25.98
 27.17     753.29      27.45
 27.27     696.93      26.40
 27.37     789.00      28.09
 27.47     761.00      27.59
 27.57     804.00      28.35
 27.67     819.79      28.63
 27.77     942.00      30.69
 27.87    1065.00      32.63
 27.97    1397.00      37.38
 28.07    2017.00      44.91
 28.17    3259.00      57.09
 28.27    5150.00      71.76
 28.37    7856.00      88.63
 28.47    9020.00      94.97
 28.57    8534.00      92.38
 28.67    6686.00      81.77
 28.77    4714.00      68.66
 28.87    3732.32      61.09
 28.97    4061.17      63.73
 29.07    4629.00      68.04
 29.17    4855.07      69.68
 29.27    4574.00      67.63
 29.37    3549.91      59.58
 29.47    2532.00      50.32
 29.57    1883.61      43.40
 29.67    1298.00      36.03
 29.77     977.43      31.26
 29.87     982.00      31.34
 29.97     877.58      29.62
 30.07     826.00      28.74
 30.17     792.00      28.14
 30.27     760.00      27.57
 30.37     763.00      27.62
 30.47     709.00      26.63
 30.57     727.00      26.96
 30.67     672.08      25.92
 30.77     729.14      27.00
 30.87     762.00      27.60
 30.97     782.00      27.96
 31.07     801.64      28.31
 31.17     851.00      29.17
 31.27     777.00      27.87
 31.37     799.00      28.27
 31.47     735.00      27.11
 31.57     715.00      26.74
 31.67     692.00      26.31
 31.77     622.93      24.96
 31.87     645.00      25.40
 31.97     684.25      26.16
 32.07     674.00      25.96
 32.17     613.00      24.76
 32.27     682.00      26.12
 32.37     608.00      24.66
 32.47     617.00      24.84
 32.57     704.00      26.53
 32.67     642.00      25.34
 32.77     625.24      25.00
 32.87     655.38      25.60
 32.97     672.00      25.92
 33.07     663.00      25.75
 33.17     653.00      25.55
 33.27     617.80      24.86
 33.37     660.40      25.70
 33.47     684.00      26.15
 33.57     619.05      24.88
 33.67     699.00      26.44
 33.77     694.95      26.36
 33.87     765.00      27.66
 33.97     830.00      28.81
 34.07     930.76      30.51
 34.17    1112.00      33.35
 34.27    1199.57      34.63
 34.37    1276.00      35.72
 34.47    1225.73      35.01
 34.57     990.00      31.46
 34.67     965.00      31.06
 34.77     861.00      29.34
 34.87     785.10      28.02
 34.97     695.00      26.36
 35.07     709.97      26.65
 35.17     677.00      26.02
 35.27     726.00      26.94
 35.37     703.00      26.51
 35.47     653.00      25.55
 35.57     590.06      24.29
 35.67     648.14      25.46
 35.77     657.00      25.63
 35.87     621.00      24.92
 35.97     649.00      25.48
 36.07     640.00      25.30
 36.17     669.00      25.87
 36.27     660.00      25.69
 36.37     633.00      25.16
 36.47     623.42      24.97
 36.57     610.73      24.71
 36.67     678.00      26.04
 36.77     599.77      24.49
 36.87     623.32      24.97
 36.97     648.53      25.47
 37.07     663.00      25.75
 37.17     607.62      24.65
 37.27     662.00      25.73
 37.37     595.00      24.39
 37.47     620.00      24.90
 37.57     599.00      24.47
 37.67     600.00      24.49
 37.77     685.00      26.17
 37.87     707.00      26.59
 37.97     683.00      26.13
 38.07     683.00      26.13
 38.17     754.00      27.46
 38.27     750.29      27.39
 38.37     776.00      27.86
 38.47     758.00      27.53
 38.57     752.00      27.42
 38.67     692.00      26.31
 38.77     654.00      25.57
 38.87     647.88      25.45
 38.97     660.00      25.69
 39.07     577.78      24.04
 39.17     599.00      24.47
 39.27     637.00      25.24
 39.37     662.84      25.75
 39.47     663.48      25.76
 39.57     614.00      24.78
 39.67     596.00      24.41
 39.77     649.53      25.49
 39.87     645.92      25.42
 39.97     650.00      25.50
 40.07     598.00      24.45
 40.17     640.00      25.30
 40.27     611.00      24.72
 40.37     632.00      25.14
 40.47     566.23      23.80
 40.57     603.00      24.56
 40.67     593.00      24.35
 40.77     630.20      25.10
 40.87     573.00      23.94
 40.97     569.00      23.85
 41.07     582.00      24.12
 41.17     606.01      24.62
 41.27     604.00      24.58
 41.37     568.00      23.83
 41.47     647.00      25.44
 41.57     603.00      24.56
 41.67     630.00      25.10
 41.77     577.00      24.02
 41.87     607.68      24.65
 41.97     621.31      24.93
 42.07     610.22      24.70
 42.17     601.00      24.52
 42.27     575.27      23.98
 42.37     577.31      24.03
 42.47     620.91      24.92
 42.57     690.98      26.29
 42.67     637.00      25.24
 42.77     637.00      25.24
 42.87     669.17      25.87
 42.97     674.00      25.96
 43.07     719.00      26.81
 43.17     723.77      26.90
 43.27     658.00      25.65
 43.37     684.53      26.16
 43.47     607.00      24.64
 43.57     692.00      26.31
 43.67     607.00      24.64
 43.77     679.00      26.06
 43.87     625.00      25.00
 43.97     583.00      24.15
 44.07     596.04      24.41
 44.17     648.01      25.46
 44.27     618.72      24.87
 44.37     607.00      24.64
 44.47     638.00      25.26
 44.57     663.32      25.75
 44.67     661.84      25.73
 44.77     654.53      25.58
 44.87     619.00      24.88
 44.97     632.00      25.14
 45.07     627.00      25.04
 45.17     636.00      25.22
 45.27     614.00      24.78
 45.37     648.00      25.46
 45.47     624.00      24.98
 45.57     632.00      25.14
 45.67     660.15      25.69
 45.77     601.00      24.52
 45.87     653.61      25.57
 45.97     588.00      24.25
 46.07     633.00      25.16
 46.17     608.48      24.67
 46.27     611.84      24.74
 46.37     612.77      24.75
 46.47     625.00      25.00
 46.57     645.62      25.41
 46.67     617.00      24.84
 46.77     630.95      25.12
 46.87     597.00      24.43
 46.97     584.00      24.17
 47.07     597.00      24.43
 47.17     621.00      24.92
 47.27     637.00      25.24
 47.37     664.88      25.79
 47.47     672.00      25.92
 47.57     653.00      25.55
 47.67     618.00      24.86
 47.77     625.00      25.00
 47.87     649.00      25.48
 47.97     661.00      25.71
 48.07     697.00      26.40
 48.17     720.88      26.85
 48.27     681.99      26.11
 48.37     745.58      27.31
 48.47     703.00      26.51
 48.57     714.99      26.74
 48.67     653.16      25.56
 48.77     632.77      25.15
 48.87     636.00      25.22
 48.97     636.00      25.22
 49.07     638.54      25.27
 49.17     662.00      25.73
 49.27     671.77      25.92
 49.37     622.00      24.94
 49.47     669.04      25.87
 49.57     711.00      26.66
 49.67     673.13      25.94
 49.77     703.27      26.52
 49.87     770.00      27.75
 49.97     902.00      30.03
 50.07    1149.07      33.90
 50.17    1493.00      38.64
 50.27    1941.00      44.06
 50.37    2558.22      50.58
 50.47    2905.64      53.90
 50.57    3193.43      56.51
 50.67    3237.00      56.89
 50.77    2940.19      54.22
 50.87    2481.00      49.81
 50.97    1971.00      44.40
 51.07    1507.00      38.82
 51.17    1234.00      35.13
 51.27     956.52      30.93
 51.37     876.00      29.60
 51.47     854.00      29.22
 51.57     839.27      28.97
 51.67     796.00      28.21
 51.77     785.77      28.03
 51.87     722.00      26.87
 51.97     723.00      26.89
 52.07     750.32      27.39
 52.17     709.53      26.64
 52.27     727.80      26.98
 52.37     728.12      26.98
 52.47     741.00      27.22
 52.57     741.00      27.22
 52.67     688.00      26.23
 52.77     717.00      26.78
 52.87     681.98      26.11
 52.97     733.00      27.07
 53.07     711.00      26.66
 53.17     724.00      26.91
 53.27     755.00      27.48
 53.37     859.00      29.31
 53.47     838.46      28.96
 53.57     949.00      30.81
 53.67    1061.00      32.57
 53.77    1136.00      33.70
 53.87    1192.50      34.53
 53.97    1261.00      35.51
 54.07    1310.73      36.20
 54.17    1365.14      36.95
 54.27    1174.00      34.26
 54.37    1116.44      33.41
 54.47    1002.00      31.65
 54.57     927.86      30.46
 54.67     808.44      28.43
 54.77     757.00      27.51
 54.87     754.00      27.46
 54.97     681.00      26.10
 55.07     672.57      25.93
 55.17     694.57      26.35
 55.27     666.00      25.81
 55.37     672.00      25.92
 55.47     651.00      25.51
 55.57     678.29      26.04
 55.67     703.00      26.51
 55.77     696.00      26.38
 55.87     697.00      26.40
 55.97     676.40      26.01
 56.07     718.00      26.80
 56.17     749.00      27.37
 56.27     764.95      27.66
 56.37     775.00      27.84
 56.47     803.00      28.34
 56.57     959.09      30.97
 56.67     983.00      31.35
 56.77    1131.00      33.63
 56.87    1405.82      37.49
 56.97    1647.00      40.58
 57.07    2068.00      45.48
 57.17    2388.00      48.87
 57.27    2625.17      51.24
 57.37    2757.00      52.51
 57.47    2653.15      51.51
 57.57    2534.00      50.34
 57.67    2230.99      47.23
 57.77    1820.00      42.66
 57.87    1441.66      37.97
 57.97    1235.00      35.14
 58.07    1148.00      33.88
 58.17     959.00      30.97
 58.27     796.00      28.21
 58.37     841.00      29.00
 58.47     767.00      27.69
 58.57     859.00      29.31
 58.67     832.00      28.84
 58.77     943.27      30.71
 58.87     942.00      30.69
 58.97    1013.00      31.83
 59.07    1144.00      33.82
 59.17    1190.00      34.50
 59.27    1282.00      35.81
 59.37    1322.00      36.36
 59.47    1436.89      37.91
 59.57    1380.00      37.15
 59.67    1337.00      36.57
 59.77    1324.00      36.39
 59.87    1330.60      36.48
 59.97    1250.00      35.36
 60.07    1255.00      35.43
 60.17    1305.00      36.12
 60.27    1326.00      36.41
 60.37    1387.00      37.24
 60.47    1477.00      38.43
 60.57    1598.00      39.97
 60.67    1596.00      39.95
 60.77    1676.00      40.94
 60.87    1676.00      40.94
 60.97    1558.12      39.47
 61.07    1368.00      36.99
 61.17    1121.00      33.48
 61.27    1047.00      32.36
 61.37    1016.78      31.89
 61.47     903.00      30.05
 61.57     816.00      28.57
 61.67     807.00      28.41
 61.77     853.00      29.21
 61.87     899.45      29.99
 61.97     932.00      30.53
 62.07    1083.66      32.92
 62.17    1098.37      33.14
 62.27    1280.36      35.78
 62.37    1514.00      38.91
 62.47    1681.23      41.00
 62.57    1755.00      41.89
 62.67    1827.00      42.74
 62.77    1865.00      43.19
 62.87    1825.15      42.72
 62.97    1632.93      40.41
 63.07    1485.00      38.54
 63.17    1243.00      35.26
 63.27    1168.56      34.18
 63.37    1072.77      32.75
 63.47     966.91      31.10
 63.57     821.00      28.65
 63.67     808.96      28.44
 63.77     755.37      27.48
 63.87     724.41      26.91
 63.97     748.31      27.36
 64.07     800.00      28.28
 64.17     751.00      27.40
 64.27     755.00      27.48
 64.37     789.21      28.09
 64.47     879.00      29.65
 64.57     896.46      29.94
 64.67    1014.00      31.84
 64.77    1092.00      33.05
 64.87    1162.02      34.09
 64.97    1273.71      35.69
 65.07    1495.73      38.67
 65.17    1521.00      39.00
 65.27    1600.66      40.01
 65.37    1639.68      40.49
 65.47    1521.53      39.01
 65.57    1548.00      39.34
 65.67    1355.00      36.81
 65.77    1232.00      35.10
 65.87    1128.45      33.59
 65.97    1078.69      32.84
 66.07     920.00      30.33
 66.17     891.69      29.86
 66.27     864.80      29.41
 66.37     765.01      27.66
 66.47     825.35      28.73
 66.57     730.88      27.03
 66.67     745.00      27.29
 66.77     701.00      26.48
 66.87     762.59      27.62
 66.97     698.00      26.42
 67.07     653.00      25.55
 67.17     699.00      26.44
 67.27     778.10      27.89
 67.37     749.00      27.37
 67.47     718.00      26.80
 67.57     825.38      28.73
 67.67     878.79      29.64
 67.77     948.00      30.79
 67.87     958.00      30.95
 67.97    1149.00      33.90
 68.07    1262.00      35.52
 68.17    1515.00      38.92
 68.27    1825.63      42.73
 68.37    2007.00      44.80
 68.47    2190.09      46.80
 68.57    2418.00      49.17
 68.67    2642.96      51.41
 68.77    2552.00      50.52
 68.87    2538.72      50.39
 68.97    2274.34      47.69
 69.07    2090.00      45.72
 69.17    1776.00      42.14
 69.27    1606.00      40.07
 69.37    1344.00      36.66
 69.47    1192.26      34.53
 69.57    1070.00      32.71
 69.67     965.05      31.07
 69.77     852.17      29.19
 69.87     903.00      30.05
 69.97     864.00      29.39
 70.07     774.00      27.82
 70.17     778.00      27.89
 70.27     797.00      28.23
 70.37     749.00      27.37
 70.47     747.00      27.33
 70.57     720.00      26.83
 70.67     718.00      26.80
 70.77     728.00      26.98
 70.87     739.00      27.18
 70.97     740.35      27.21
 71.07     720.00      26.83
 71.17     759.00      27.55
 71.27     717.00      26.78
 71.37     825.00      28.72
 71.47     748.00      27.35
 71.57     764.00      27.64
 71.67     827.00      28.76
 71.77     857.00      29.27
 71.87     937.70      30.62
 71.97    1120.00      33.47
 72.07    1168.00      34.18
 72.17    1346.00      36.69
 72.27    1511.00      38.87
 72.37    1690.00      41.11
 72.47    1834.71      42.83
 72.57    2049.36      45.27
 72.67    2020.00      44.94
 72.77    2090.99      45.73
 72.87    1915.13      43.76
 72.97    1787.96      42.28
 73.07    1650.00      40.62
 73.17    1487.00      38.56
 73.27    1289.27      35.91
 73.37    1217.00      34.89
 73.47    1057.00      32.51
 73.57     955.00      30.90
 73.67     905.00      30.08
 73.77     817.69      28.60
 73.87     764.00      27.64
 73.97     791.00      28.12
 74.07     715.85      26.76
 74.17     802.00      28.32
 74.27     695.00      26.36
 74.37     728.22      26.99
 74.47     639.00      25.28
 74.57     665.00      25.79
 74.67     668.00      25.85
 74.77     732.00      27.06
 74.87     667.00      25.83
 74.97     715.00      26.74
 75.07     661.67      25.72
 75.17     719.00      26.81
 75.27     728.00      26.98
 75.37     764.00      27.64
 75.47     708.00      26.61
 75.57     671.97      25.92
 75.67     772.00      27.78
 75.77     668.00      25.85
 75.87     725.00      26.93
 75.97     709.00      26.63
 76.07     688.00      26.23
 76.17     687.00      26.21
 76.27     756.00      27.50
 76.37     761.00      27.59
 76.47     745.00      27.29
 76.57     806.25      28.39
 76.67     819.00      28.62
 76.77     914.13      30.23
 76.87     854.00      29.22
 76.97     941.00      30.68
 77.07    1027.00      32.05
 77.17    1064.59      32.63
 77.27     996.52      31.57
 77.37    1010.00      31.78
 77.47    1000.00      31.62
 77.57    1014.00      31.84
 77.67     970.00      31.14
 77.77     943.89      30.72
 77.87     807.61      28.42
 77.97     809.00      28.44
 78.07     802.00      28.32
 78.17     737.00      27.15
 78.27     735.47      27.12
 78.37     686.00      26.19
 78.47     687.07      26.21
 78.57     670.00      25.88
 78.67     693.00      26.32
 78.77     623.00      24.96
 78.87     666.66      25.82
 78.97     659.00      25.67
 79.07     629.00      25.08
 79.17     617.17      24.84
 79.27     675.00      25.98
 79.37     688.00      26.23
 79.47     614.57      24.79
 79.57     634.00      25.18
 79.67     646.00      25.42
 79.77     619.57      24.89
 79.87     606.93      24.64
 79.97     640.00      25.30
 80.07     614.00      24.78
 80.17     623.00      24.96
 80.27     673.00      25.94
 80.37     704.00      26.53
 80.47     664.91      25.79
 80.57     728.00      26.98
 80.67     739.00      27.18
 80.77     803.68      28.35
 80.87     888.43      29.81
 80.97     928.00      30.46
 81.07    1067.00      32.66
 81.17    1077.00      32.82
 81.27    1173.00      34.25
 81.37    1266.00      35.58
 81.47    1431.00      37.83
 81.57    1301.79      36.08
 81.67    1464.13      38.26
 81.77    1381.87      37.17
 81.87    1575.00      39.69
 81.97    1559.00      39.48
 82.07    1507.31      38.82
 82.17    1474.00      38.39
 82.27    1244.84      35.28
 82.37    1335.00      36.54
 82.47    1200.00      34.64
 82.57    1104.00      33.23
 82.67    1082.00      32.89
 82.77     931.53      30.52
 82.87     878.00      29.63
 82.97     902.34      30.04
 83.07     804.00      28.35
 83.17     728.00      26.98
 83.27     729.00      27.00
 83.37     781.41      27.95
 83.47     705.00      26.55
 83.57     640.00      25.30
 83.67     727.74      26.98
 83.77     669.00      25.87
 83.87     658.00      25.65
 83.97     652.00      25.53
 84.07     721.80      26.87
 84.17     659.00      25.67
 84.27     697.00      26.40
 84.37     657.00      25.63
 84.47     692.00      26.31
 84.57     701.09      26.48
 84.67     700.19      26.46
 84.77     701.94      26.49
 84.87     721.91      26.87
 84.97     671.00      25.90
 85.07     655.00      25.59
 85.17     706.95      26.59
 85.27     676.00      26.00
 85.37     676.00      26.00
 85.47     606.00      24.62
 85.57     617.00      24.84
 85.67     624.93      25.00
 85.77     608.46      24.67
 85.87     632.54      25.15
 85.97     686.00      26.19
 86.07     598.00      24.45
 86.17     651.64      25.53
 86.27     612.00      24.74
 86.37     652.00      25.53
 86.47     620.00      24.90
 86.57     652.00      25.53
 86.67     641.84      25.33
 86.77     613.48      24.77
 86.87     659.19      25.67
 86.97     691.00      26.29
 87.07     629.00      25.08
 87.17     706.00      26.57
 87.27     659.57      25.68
 87.37     710.00      26.65
 87.47     689.00      26.25
 87.57     711.00      26.66
 87.67     725.00      26.93
 87.77     749.00      27.37
 87.87     674.73      25.98
 87.97     750.00      27.39
 88.07     675.00      25.98
 88.17     711.83      26.68
 88.27     716.47      26.77
 88.37     698.26      26.42
 88.47     779.00      27.91
 88.57     718.00      26.80
 88.67     693.31      26.33
 88.77     739.00      27.18
 88.87     707.88      26.61
 88.97     705.00      26.55
 89.07     690.00      26.27
 89.17     690.23      26.27
 89.27     641.19      25.32
 89.37     720.00      26.83
 89.47     679.93      26.08
 89.57     677.00      26.02
 89.67     701.56      26.49
 89.77     633.49      25.17
 89.87     650.00      25.50
 89.97     720.00      26.83
 90.07     660.63      25.70
 90.17     725.00      26.93
 90.27     724.92      26.92
 90.37     657.00      25.63
 90.47     657.88      25.65
 90.57     643.52      25.37
 90.67     687.00      26.21
 90.77     647.00      25.44
 90.87     706.00      26.57
 90.97     658.00      25.65
 91.07     607.00      24.64
 91.17     650.71      25.51
 91.27     580.89      24.10
 91.37     605.00      24.60
 91.47     614.00      24.78
 91.57     618.00      24.86
 91.67     628.00      25.06
 91.77     643.45      25.37
 91.87     626.00      25.02
 91.97     628.15      25.06
 92.07     608.00      24.66
 92.17     641.00      25.32
 92.27     630.87      25.12
 92.37     606.00      24.62
 92.47     660.34      25.70
 92.57     620.00      24.90
 92.67     601.00      24.52
 92.77     633.89      25.18
 92.87     658.00      25.65
 92.97     674.00      25.96
 93.07     605.34      24.60
 93.17     668.00      25.85
 93.27     689.82      26.26
 93.37     693.00      26.32
 93.47     708.00      26.61
 93.57     719.00      26.81
 93.67     743.63      27.27
 93.77     790.00      28.11
 93.87     804.00      28.35
 93.97     821.00      28.65
 94.07     801.00      28.30
 94.17     862.00      29.36
 94.27     832.00      28.84
 94.37     921.40      30.35
 94.47     950.00      30.82
 94.57     893.00      29.88
 94.67     937.86      30.62
 94.77     943.42      30.72
 94.87     938.73      30.64
 94.97     933.72      30.56
 95.07    1019.00      31.92
 95.17    1039.00      32.23
 95.27    1089.00      33.00
 95.37    1077.00      32.82
 95.47    1062.00      32.59
 95.57    1138.00      33.73
 95.67    1068.61      32.69
 95.77    1026.12      32.03
 95.87    1038.00      32.22
 95.97    1095.00      33.09
 96.07    1006.66      31.73
 96.17     959.51      30.98
 96.27     996.00      31.56
 96.37     937.00      30.61
 96.47     900.00      30.00
 96.57     947.00      30.77
 96.67     840.91      29.00
 96.77     870.00      29.50
 96.87     848.00      29.12
 96.97     868.00      29.46
 97.07     928.00      30.46
 97.17     863.00      29.38
 97.27     969.00      31.13
 97.37     992.00      31.50
 97.47     982.65      31.35
 97.57    1012.00      31.81
 97.67    1081.00      32.88
 97.77    1209.00      34.77
 97.87    1276.00      35.72
 97.97    1386.00      37.23
 98.07    1455.00      38.14
 98.17    1488.80      38.58
 98.27    1601.00      40.01
 98.37    1606.00      40.07
 98.47    1669.00      40.85
 98.57    1640.00      40.50
 98.67    1704.75      41.29
 98.77    1571.00      39.64
 98.87    1622.00      40.27
 98.97    1583.37      39.79
 99.07    1428.55      37.80
 99.17    1392.00      37.31
 99.27    1350.15      36.74
 99.37    1338.00      36.58
 99.47    1191.00      34.51
 99.57    1149.00      33.90
 99.67    1121.82      33.49
 99.77     997.10      31.58
 99.87    1017.00      31.89
 99.97    1041.00      32.26
100.07    1016.00      31.87
100.17    1048.80      32.39
100.27    1012.00      31.81
100.37    1134.69      33.69
100.47    1214.60      34.85
100.57    1260.00      35.50
100.67    1258.54      35.48
100.77    1477.08      38.43
100.87    1569.00      39.61
100.97    1563.08      39.54
101.07    1643.62      40.54
101.17    1700.07      41.23
101.27    1959.57      44.27
101.37    2028.45      45.04
101.47    1957.00      44.24
101.57    2010.74      44.84
101.67    2090.97      45.73
101.77    2217.05      47.09
101.87    2252.00      47.46
101.97    2184.00      46.73
102.07    2252.00      47.46
102.17    2137.00      46.23
102.27    2176.06      46.65
102.37    2100.00      45.83
102.47    1969.28      44.38
102.57    1897.92      43.57
102.67    1686.00      41.06
102.77    1638.00      40.47
102.87    1634.00      40.42
102.97    1623.00      40.29
103.07    1543.00      39.28
103.17    1448.00      38.05
103.27    1461.00      38.22
103.37    1462.63      38.24
103.47    1289.06      35.90
103.57    1270.00      35.64
103.67    1252.00      35.38
103.77    1247.99      35.33
103.87    1163.00      34.10
103.97    1170.86      34.22
104.07    1141.20      33.78
104.17    1185.00      34.42
104.27    1075.00      32.79
104.37    1016.00      31.87
104.47    1031.00      32.11
104.57     893.01      29.88
104.67     895.48      29.92
104.77     847.29      29.11
104.87     886.33      29.77
104.97     774.00      27.82
105.07     828.00      28.77
105.17     680.73      26.09
105.27     742.00      27.24
105.37     722.00      26.87
105.47     688.90      26.25
105.57     709.70      26.64
105.67     686.00      26.19
105.77     658.66      25.66
105.87     663.93      25.77
105.97     649.61      25.49
106.07     668.93      25.86
106.17     637.04      25.24
106.27     597.71      24.45
106.37     639.00      25.28
106.47     656.17      25.62
106.57     643.79      25.37
106.67     635.33      25.21
106.77     639.65      25.29
106.87     667.00      25.83
106.97     656.00      25.61
107.07     605.00      24.60
107.17     667.00      25.83
107.27     701.00      26.48
107.37     709.00      26.63
107.47     721.00      26.85
107.57     718.93      26.81
107.67     721.00      26.85
107.77     731.00      27.04
107.87     747.41      27.34
107.97     725.82      26.94
108.07     732.00      27.06
108.17     781.94      27.96
108.27     781.00      27.95
108.37     739.75      27.20
108.47     807.71      28.42
108.57     805.00      28.37
108.67     777.95      27.89
108.77     799.00      28.27
108.87     788.00      28.07
108.97     784.00      28.00
109.07     805.87      28.39
109.17     854.19      29.23
109.27     752.00      27.42
109.37     804.00      28.35
109.47     799.00      28.27
109.57     811.00      28.48
109.67     831.32      28.83
109.77     855.70      29.25
109.87     785.00      28.02
109.97     776.00      27.86
110.07     730.00      27.02
110.17     776.00      27.86
110.27     776.00      27.86
110.37     778.00      27.89
110.47     857.10      29.28
110.57     795.00      28.20
110.67     800.51      28.29
110.77     715.00      26.74
110.87     755.55      27.49
110.97     772.92      27.80
111.07     713.00      26.70
111.17     726.00      26.94
111.27     705.00      26.55
111.37     645.00      25.40
111.47     703.00      26.51
111.57     668.00      25.85
111.67     708.65      26.62
111.77     687.00      26.21
111.87     648.00      25.46
111.97     695.00      26.36
112.07     688.89      26.25
112.17     623.20      24.96
112.27     607.04      24.64
112.37     665.42      25.80
112.47     628.57      25.07
112.57     600.16      24.50
112.67     638.27      25.26
112.77     670.67      25.90
112.87     580.07      24.08
112.97     698.00      26.42
113.07     683.00      26.13
113.17     623.72      24.97
113.27     656.99      25.63
113.37     647.00      25.44
113.47     642.00      25.34
113.57     647.61      25.45
113.67     595.13      24.40
113.77     610.00      24.70
113.87     630.00      25.10
113.97     638.00      25.26
114.07     703.57      26.52
114.17     706.00      26.57
114.27     701.48      26.49
114.37     700.00      26.46
114.47     645.95      25.42
114.57     716.01      26.76
114.67     767.00      27.69
114.77     686.00      26.19
114.87     744.00      27.28
114.97     832.34      28.85
115.07     829.95      28.81
115.17     854.00      29.22
115.27     900.00      30.00
115.37     979.00      31.29
115.47    1041.00      32.26
115.57    1127.00      33.57
115.67    1218.00      34.90
115.77    1369.00      37.00
115.87    1542.39      39.27
115.97    1710.97      41.36
116.07    1836.00      42.85
116.17    2093.00      45.75
116.27    2324.00      48.21
116.37    2702.00      51.98
116.47    2887.00      53.73
116.57    3086.62      55.56
116.67    3401.07      58.32
116.77    3894.00      62.40
116.87    4303.00      65.60
116.97    4713.00      68.65
117.07    4928.76      70.21
117.17    5393.00      73.44
117.27    5795.00      76.12
117.37    6142.00      78.37
117.47    6513.00      80.70
117.57    6888.00      82.99
117.67    7141.00      84.50
117.77    7338.00      85.66
117.87    7505.00      86.63
117.97    7405.00      86.05
118.07    7475.00      86.46
118.17    7535.00      86.80
118.27    7624.00      87.32
118.37    7106.00      84.30
118.47    6932.00      83.26
118.57    6890.00      83.01
118.67    6485.00      80.53
118.77    6095.00      78.07
118.87    5536.00      74.40
118.97    5263.00      72.55
119.07    4981.00      70.58
119.17    4512.11      67.17
119.27    4184.67      64.69
119.37    3904.00      62.48
119.47    3626.00      60.22
119.57    3162.00      56.23
119.67    2956.72      54.38
119.77    2617.00      51.16
119.87    2516.00      50.16
119.97    2133.00      46.18
120.07    1975.27      44.44
120.17    1841.00      42.91
120.27    1624.00      40.30
120.37    1442.91      37.99
120.47    1385.14      37.22
120.57    1311.00      36.21
120.67    1226.00      35.01
120.77    1070.71      32.72
120.87    1071.00      32.73
120.97     995.00      31.54
121.07    1008.00      31.75
121.17     845.66      29.08
121.27     824.56      28.72
121.37     832.14      28.85
121.47     851.74      29.18
121.57     797.71      28.24
121.67     812.00      28.50
121.77     745.08      27.30
121.87     774.00      27.82
121.97     775.28      27.84
122.07     705.00      26.55
122.17     685.92      26.19
122.27     725.00      26.93
122.37     695.15      26.37
122.47     743.00      27.26
122.57     756.38      27.50
122.67     739.00      27.18
122.77     683.00      26.13
122.87     722.00      26.87
122.97     701.62      26.49
123.07     673.00      25.94
123.17     748.02      27.35
123.27     690.51      26.28
123.37     726.00      26.94
123.47     693.00      26.32
123.57     776.00      27.86
123.67     759.00      27.55
123.77     777.00      27.87
123.87     767.00      27.69
123.97     791.89      28.14
124.07     795.00      28.20
124.17     786.64      28.05
124.27     806.00      28.39
124.37     852.00      29.19
124.47     857.00      29.27
124.57     851.00      29.17
124.67     795.00      28.20
124.77     843.00      29.03
124.87     857.00      29.27
124.97     864.00      29.39
