  9.97     603.00      24.56
 10.07     551.81      23.49
 10.17     601.00      24.52
 10.27     563.00      23.73
 10.37     562.44      23.72
 10.47     523.06      22.87
 10.57     633.00      25.16
 10.67     590.00      24.29
 10.77     556.00      23.58
 10.87     588.00      24.25
 10.97     567.42      23.82
 11.07     577.46      24.03
 11.17     583.00      24.15
 11.27     613.00      24.76
 11.37     607.56      24.65
 11.47     592.00      24.33
 11.57     604.21      24.58
 11.67     573.91      23.96
 11.77     585.10      24.19
 11.87     552.83      23.51
 11.97     626.52      25.03
 12.07     729.00      27.00
 12.17     702.00      26.50
 12.27     723.82      26.90
 12.37     643.00      25.36
 12.47     635.00      25.20
 12.57     585.00      24.19
 12.67     615.44      24.81
 12.77     556.00      23.58
 12.87     572.00      23.92
 12.97     571.95      23.92
 13.07     579.00      24.06
 13.17     529.00      23.00
 13.27     544.00      23.32
 13.37     544.23      23.33
 13.47     540.00      23.24
 13.57     570.00      23.87
 13.67     613.57      24.77
 13.77     573.00      23.94
 13.87     587.16      24.23
 13.97     602.15      24.54
 14.07     570.00      23.87
 14.17     535.00      23.13
 14.27     568.00      23.83
 14.37     594.87      24.39
 14.47     541.00      23.26
 14.57     535.00      23.13
 14.67     568.42      23.84
 14.77     525.13      22.92
 14.87     548.00      23.41
 14.97     524.40      22.90
 15.07     594.22      24.38
 15.17     496.00      22.27
 15.27     586.05      24.21
 15.37     555.00      23.56
 15.47     538.82      23.21
 15.57     560.00      23.66
 15.67     550.95      23.47
 15.77     580.84      24.10
 15.87     600.01      24.50
 15.97     508.00      22.54
 16.07     568.00      23.83
 16.17     595.04      24.39
 16.27     558.84      23.64
 16.37     575.00      23.98
 16.47     554.00      23.54
 16.57     555.00      23.56
 16.67     561.00      23.69
 16.77     554.00      23.54
 16.87     582.00      24.12
 16.97     586.01      24.21
 17.07     560.00      23.66
 17.17     561.00      23.69
 17.27     521.89      22.84
 17.37     581.00      24.10
 17.47     564.00      23.75
 17.57     567.00      23.81
 17.67     542.00      23.28
 17.77     553.00      23.52
 17.87     577.31      24.03
 17.97     532.00      23.07
 18.07     558.00      23.62
 18.17     560.00      23.66
 18.27     550.00      23.45
 18.37     543.00      23.30
 18.47     516.00      22.72
 18.57     553.12      23.52
 18.67     558.00      23.62
 18.77     564.00      23.75
 18.87     528.31      22.99
 18.97     554.40      23.55
 19.07     595.00      24.39
 19.17     562.00      23.71
 19.27     583.00      24.15
 19.37     530.00      23.02
 19.47     542.00      23.28
 19.57     546.00      23.37
 19.67     570.00      23.87
 19.77     575.00      23.98
 19.87     541.00      23.26
 19.97     534.00      23.11
 20.07     545.66      23.36
 20.17     537.00      23.17
 20.27     548.00      23.41
 20.37     525.17      22.92
 20.47     556.00      23.58
 20.57     534.00      23.11
 20.67     581.25      24.11
 20.77     502.00      22.41
 20.87     524.00      22.89
 20.97     549.00      23.43
 21.07     527.00      22.96
 21.17     551.00      23.47
 21.27     535.00      23.13
 21.37     576.00      24.00
 21.47     516.82      22.73
 21.57     521.00      22.83
 21.67     564.45      23.76
 21.77     550.66      23.47
 21.87     561.00      23.69
 21.97     547.00      23.39
 22.07     531.00      23.04
 22.17     550.00      23.45
 22.27     545.00      23.35
 22.37     566.91      23.81
 22.47     582.00      24.12
 22.57     550.00      23.45
 22.67     560.00      23.66
 22.77     553.00      23.52
 22.87     494.00      22.23
 22.97     587.15      24.23
 23.07     530.11      23.02
 23.17     562.00      23.71
 23.27     532.00      23.07
 23.37     540.00      23.24
 23.47     548.00      23.41
 23.57     554.00      23.54
 23.67     519.30      22.79
 23.77     559.18      23.65
 23.87     526.02      22.94
 23.97     532.11      23.07
 24.07     576.00      24.00
 24.17     595.00      24.39
 24.27     596.86      24.43
 24.37     588.00      24.25
 24.47     605.00      24.60
 24.57     599.50      24.48
 24.67     623.00      24.96
 24.77     655.00      25.59
 24.87     629.00      25.08
 24.97     645.00      25.40
 25.07     574.00      23.96
 25.17     625.00      25.00
 25.27     587.00      24.23
 25.37     526.85      22.95
 25.47     583.40      24.15
 25.57     563.73      23.74
 25.67     523.07      22.87
 25.77     562.12      23.71
 25.87     588.00      24.25
 25.97     533.00      23.09
 26.07     568.15      23.84
 26.17     553.00      23.52
 26.27     546.00      23.37
 26.37     587.64      24.24
 26.47     542.00      23.28
 26.57     547.00      23.39
 26.67     543.00      23.30
 26.77     599.00      24.47
 26.87     545.62      23.36
 26.97     565.00      23.77
 27.07     506.12      22.50
 27.17     537.29      23.18
 27.27     588.34      24.26
 27.37     574.00      23.96
 27.47     560.00      23.66
 27.57     555.00      23.56
 27.67     592.00      24.33
 27.77     560.00      23.66
 27.87     588.00      24.25
 27.97     631.00      25.12
 28.07     762.00      27.60
 28.17     823.01      28.69
 28.27     976.00      31.24
 28.37     974.00      31.21
 28.47     867.00      29.44
 28.57     727.00      26.96
 28.67     728.77      27.00
 28.77     678.05      26.04
 28.87     792.00      28.14
 28.97     833.00      28.86
 29.07     807.87      28.42
 29.17     723.00      26.89
 29.27     660.00      25.69
 29.37     611.00      24.72
 29.47     544.49      23.33
 29.57     612.00      24.74
 29.67     619.00      24.88
 29.77     601.00      24.52
 29.87     527.91      22.98
 29.97     599.28      24.48
 30.07     576.00      24.00
 30.17     566.00      23.79
 30.27     578.00      24.04
 30.37     576.25      24.01
 30.47     526.61      22.95
 30.57     547.00      23.39
 30.67     535.16      23.13
 30.77     559.00      23.64
 30.87     574.00      23.96
 30.97     614.85      24.80
 31.07     590.96      24.31
 31.17     585.00      24.19
 31.27     576.51      24.01
 31.37     562.96      23.73
 31.47     600.00      24.49
 31.57     525.00      22.91
 31.67     537.87      23.19
 31.77     574.00      23.96
 31.87     545.00      23.35
 31.97     542.00      23.28
 32.07     533.00      23.09
 32.17     539.00      23.22
 32.27     531.00      23.04
 32.37     513.00      22.65
 32.47     554.00      23.54
 32.57     560.98      23.69
 32.67     536.00      23.15
 32.77     541.00      23.26
 32.87     507.00      22.52
 32.97     535.32      23.14
 33.07     500.97      22.38
 33.17     544.71      23.34
 33.27     528.00      22.98
 33.37     528.00      22.98
 33.47     565.00      23.77
 33.57     568.00      23.83
 33.67     646.38      25.42
 33.77     720.00      26.83
 33.87     809.40      28.45
 33.97    1048.00      32.37
 34.07    1084.00      32.92
 34.17    1018.10      31.91
 34.27     986.80      31.41
 34.37     819.43      28.63
 34.47     718.00      26.80
 34.57     639.00      25.28
 34.67     613.00      24.76
 34.77     549.00      23.43
 34.87     535.58      23.14
 34.97     560.00      23.66
 35.07     500.00      22.36
 35.17     515.00      22.69
 35.27     514.00      22.67
 35.37     499.09      22.34
 35.47     518.00      22.76
 35.57     561.20      23.69
 35.67     509.00      22.56
 35.77     514.00      22.67
 35.87     556.39      23.59
 35.97     498.00      22.32
 36.07     536.00      23.15
 36.17     499.00      22.34
 36.27     538.00      23.19
 36.37     545.96      23.37
 36.47     517.00      22.74
 36.57     476.47      21.83
 36.67     507.78      22.53
 36.77     492.00      22.18
 36.87     504.42      22.46
 36.97     523.62      22.88
 37.07     545.67      23.36
 37.17     553.41      23.52
 37.27     486.00      22.05
 37.37     506.00      22.49
 37.47     527.00      22.96
 37.57     527.00      22.96
 37.67     501.00      22.38
 37.77     513.00      22.65
 37.87     512.00      22.63
 37.97     481.37      21.94
 38.07     438.00      20.93
 38.17     496.94      22.29
 38.27     513.99      22.67
 38.37     478.00      21.86
 38.47     508.00      22.54
 38.57     541.00      23.26
 38.67     550.39      23.46
 38.77     525.00      22.91
 38.87     468.81      21.65
 38.97     483.00      21.98
 39.07     524.00      22.89
 39.17     493.00      22.20
 39.27     546.58      23.38
 39.37     465.00      21.56
 39.47     511.00      22.61
 39.57     484.00      22.00
 39.67     540.59      23.25
 39.77     513.00      22.65
 39.87     502.00      22.41
 39.97     474.00      21.77
 40.07     471.00      21.70
 40.17     460.00      21.45
 40.27     500.00      22.36
 40.37     471.00      21.70
 40.47     490.00      22.14
 40.57     533.00      23.09
 40.67     516.00      22.72
 40.77     479.00      21.89
 40.87     514.00      22.67
 40.97     485.00      22.02
 41.07     495.00      22.25
 41.17     542.86      23.30
 41.27     542.53      23.29
 41.37     521.00      22.83
 41.47     500.23      22.37
 41.57     490.00      22.14
 41.67     536.00      23.15
 41.77     466.07      21.59
 41.87     494.01      22.23
 41.97     489.32      22.12
 42.07     495.00      22.25
 42.17     511.00      22.61
 42.27     521.00      22.83
 42.37     528.40      22.99
 42.47     589.00      24.27
 42.57     559.00      23.64
 42.67     597.00      24.43
 42.77     638.70      25.27
 42.87     609.78      24.69
 42.97     559.00      23.64
 43.07     522.00      22.85
 43.17     496.34      22.28
 43.27     563.00      23.73
 43.37     487.50      22.08
 43.47     484.00      22.00
 43.57     483.88      22.00
 43.67     499.00      22.34
 43.77     490.00      22.14
 43.87     525.00      22.91
 43.97     495.00      22.25
 44.07     480.00      21.91
 44.17     575.00      23.98
 44.27     502.00      22.41
 44.37     505.00      22.47
 44.47     502.00      22.41
 44.57     463.00      21.52
 44.67     501.16      22.39
 44.77     491.00      22.16
 44.87     499.90      22.36
 44.97     503.18      22.43
 45.07     506.00      22.49
 45.17     485.86      22.04
 45.27     519.00      22.78
 45.37     474.70      21.79
 45.47     506.00      22.49
 45.57     482.81      21.97
 45.67     553.00      23.52
 45.77     476.32      21.82
 45.87     492.68      22.20
 45.97     503.00      22.43
 46.07     467.36      21.62
 46.17     471.00      21.70
 46.27     490.00      22.14
 46.37     525.00      22.91
 46.47     490.00      22.14
 46.57     508.00      22.54
 46.67     511.96      22.63
 46.77     482.90      21.98
 46.87     490.00      22.14
 46.97     473.87      21.77
 47.07     500.46      22.37
 47.17     492.78      22.20
 47.27     493.00      22.20
 47.37     579.00      24.06
 47.47     546.00      23.37
 47.57     541.00      23.26
 47.67     557.00      23.60
 47.77     578.00      24.04
 47.87     557.00      23.60
 47.97     606.76      24.63
 48.07     595.00      24.39
 48.17     544.00      23.32
 48.27     535.00      23.13
 48.37     559.00      23.64
 48.47     552.00      23.49
 48.57     469.00      21.66
 48.67     562.00      23.71
 48.77     504.00      22.45
 48.87     492.00      22.18
 48.97     531.00      23.04
 49.07     593.00      24.35
 49.17     602.00      24.54
 49.27     565.00      23.77
 49.37     594.89      24.39
 49.47     656.43      25.62
 49.57     740.00      27.20
 49.67     818.44      28.61
 49.77     999.00      31.61
 49.87    1293.02      35.96
 49.97    1599.73      40.00
 50.07    2046.00      45.23
 50.17    2381.00      48.80
 50.27    2526.71      50.27
 50.37    2448.00      49.48
 50.47    2108.00      45.91
 50.57    1730.93      41.60
 50.67    1339.41      36.60
 50.77     893.00      29.88
 50.87     726.00      26.94
 50.97     641.24      25.32
 51.07     606.00      24.62
 51.17     625.00      25.00
 51.27     599.30      24.48
 51.37     622.62      24.95
 51.47     635.00      25.20
 51.57     542.00      23.28
 51.67     503.00      22.43
 51.77     515.75      22.71
 51.87     545.00      23.35
 51.97     562.00      23.71
 52.07     545.00      23.35
 52.17     498.42      22.33
 52.27     514.00      22.67
 52.37     556.36      23.59
 52.47     508.78      22.56
 52.57     516.68      22.73
 52.67     527.00      22.96
 52.77     549.00      23.43
 52.87     629.00      25.08
 52.97     665.00      25.79
 53.07     666.00      25.81
 53.17     828.00      28.77
 53.27     947.00      30.77
 53.37    1049.00      32.39
 53.47    1103.00      33.21
 53.57    1216.27      34.88
 53.67    1247.08      35.31
 53.77    1114.94      33.39
 53.87     936.68      30.61
 53.97     844.25      29.06
 54.07     737.00      27.15
 54.17     683.00      26.13
 54.27     568.34      23.84
 54.37     581.31      24.11
 54.47     533.00      23.09
 54.57     513.45      22.66
 54.67     528.00      22.98
 54.77     519.00      22.78
 54.87     504.61      22.46
 54.97     557.00      23.60
 55.07     545.00      23.35
 55.17     541.00      23.26
 55.27     541.99      23.28
 55.37     516.85      22.73
 55.47     522.85      22.87
 55.57     574.00      23.96
 55.67     552.67      23.51
 55.77     529.00      23.00
 55.87     554.71      23.55
 55.97     578.00      24.04
 56.07     590.00      24.29
 56.17     667.72      25.84
 56.27     758.00      27.53
 56.37     896.00      29.93
 56.47    1225.00      35.00
 56.57    1603.15      40.04
 56.67    1953.00      44.19
 56.77    2268.00      47.62
 56.87    2593.00      50.92
 56.97    2666.00      51.63
 57.07    2542.87      50.43
 57.17    2308.00      48.04
 57.27    1836.01      42.85
 57.37    1453.98      38.13
 57.47    1229.62      35.07
 57.57     995.00      31.54
 57.67     831.00      28.83
 57.77     753.81      27.46
 57.87     678.17      26.04
 57.97     693.00      26.32
 58.07     602.78      24.55
 58.17     695.98      26.38
 58.27     720.00      26.83
 58.37     786.00      28.04
 58.47     868.00      29.46
 58.57     995.00      31.54
 58.67    1081.00      32.88
 58.77    1357.00      36.84
 58.87    1424.00      37.74
 58.97    1562.07      39.52
 59.07    1602.94      40.04
 59.17    1603.00      40.04
 59.27    1505.00      38.79
 59.37    1430.00      37.82
 59.47    1331.00      36.48
 59.57    1177.00      34.31
 59.67    1131.00      33.63
 59.77    1104.99      33.24
 59.87    1166.00      34.15
 59.97    1249.00      35.34
 60.07    1382.31      37.18
 60.17    1497.00      38.69
 60.27    1616.39      40.20
 60.37    1487.53      38.57
 60.47    1502.31      38.76
 60.57    1317.00      36.29
 60.67    1131.18      33.63
 60.77    1031.00      32.11
 60.87     837.22      28.93
 60.97     714.68      26.73
 61.07     676.21      26.00
 61.17     590.77      24.31
 61.27     609.63      24.69
 61.37     604.00      24.58
 61.47     670.14      25.89
 61.57     669.76      25.88
 61.67     761.00      27.59
 61.77     816.23      28.57
 61.87    1011.00      31.80
 61.97    1164.39      34.12
 62.07    1302.47      36.09
 62.17    1329.00      36.46
 62.27    1448.00      38.05
 62.37    1372.00      37.04
 62.47    1281.00      35.79
 62.57    1127.83      33.58
 62.67     988.00      31.43
 62.77     883.00      29.72
 62.87     708.00      26.61
 62.97     669.00      25.87
 63.07     594.00      24.37
 63.17     578.00      24.04
 63.27     531.17      23.05
 63.37     593.80      24.37
 63.47     508.96      22.56
 63.57     552.90      23.51
 63.67     522.00      22.85
 63.77     556.00      23.58
 63.87     606.25      24.62
 63.97     599.00      24.47
 64.07     703.00      26.51
 64.17     665.00      25.79
 64.27     809.00      28.44
 64.37     848.00      29.12
 64.47     929.00      30.48
 64.57     994.00      31.53
 64.67     991.00      31.48
 64.77    1044.00      32.31
 64.87     952.73      30.87
 64.97    1018.03      31.91
 65.07     903.00      30.05
 65.17     828.00      28.77
 65.27     817.77      28.60
 65.37     689.10      26.25
 65.47     726.66      26.96
 65.57     640.46      25.31
 65.67     665.00      25.79
 65.77     585.00      24.19
 65.87     586.00      24.21
 65.97     532.20      23.07
 66.07     523.77      22.89
 66.17     582.00      24.12
 66.27     565.00      23.77
 66.37     547.79      23.41
 66.47     560.00      23.66
 66.57     521.00      22.83
 66.67     497.00      22.29
 66.77     596.00      24.41
 66.87     600.00      24.49
 66.97     558.00      23.62
 67.07     598.00      24.45
 67.17     663.00      25.75
 67.27     659.20      25.67
 67.37     730.00      27.02
 67.47     893.00      29.88
 67.57    1010.00      31.78
 67.67    1331.96      36.50
 67.77    1551.00      39.38
 67.87    1793.98      42.36
 67.97    2122.82      46.07
 68.07    2389.00      48.88
 68.17    2509.86      50.10
 68.27    2426.00      49.25
 68.37    2418.00      49.17
 68.47    2092.00      45.74
 68.57    1872.07      43.27
 68.67    1556.00      39.45
 68.77    1248.00      35.33
 68.87    1047.00      32.36
 68.97     883.55      29.72
 69.07     740.00      27.20
 69.17     691.07      26.29
 69.27     636.00      25.22
 69.37     590.00      24.29
 69.47     609.00      24.68
 69.57     587.00      24.23
 69.67     533.88      23.11
 69.77     591.00      24.31
 69.87     553.14      23.52
 69.97     570.75      23.89
 70.07     578.00      24.04
 70.17     610.00      24.70
 70.27     501.00      22.38
 70.37     524.03      22.89
 70.47     574.30      23.96
 70.57     561.84      23.70
 70.67     557.00      23.60
 70.77     580.00      24.08
 70.87     588.00      24.25
 70.97     578.57      24.05
 71.07     645.00      25.40
 71.17     662.51      25.74
 71.27     696.82      26.40
 71.37     845.00      29.07
 71.47     988.52      31.44
 71.57    1050.00      32.40
 71.67    1254.00      35.41
 71.77    1436.00      37.89
 71.87    1627.00      40.34
 71.97    1830.00      42.78
 72.07    1923.00      43.85
 72.17    1968.36      44.37
 72.27    1920.24      43.82
 72.37    1752.00      41.86
 72.47    1730.00      41.59
 72.57    1575.00      39.69
 72.67    1353.55      36.79
 72.77    1187.00      34.45
 72.87    1072.00      32.74
 72.97     981.00      31.32
 73.07     892.00      29.87
 73.17     859.93      29.32
 73.27     787.00      28.05
 73.37     714.00      26.72
 73.47     743.31      27.26
 73.57     610.00      24.70
 73.67     588.00      24.25
 73.77     646.52      25.43
 73.87     579.00      24.06
 73.97     557.20      23.60
 74.07     569.00      23.85
 74.17     546.00      23.37
 74.27     596.58      24.43
 74.37     541.90      23.28
 74.47     518.14      22.76
 74.57     589.00      24.27
 74.67     598.00      24.45
 74.77     517.29      22.74
 74.87     630.00      25.10
 74.97     587.14      24.23
 75.07     575.00      23.98
 75.17     564.19      23.75
 75.27     500.07      22.36
 75.37     540.00      23.24
 75.47     552.00      23.49
 75.57     543.00      23.30
 75.67     571.98      23.92
 75.77     519.00      22.78
 75.87     529.12      23.00
 75.97     536.20      23.16
 76.07     590.01      24.29
 76.17     645.72      25.41
 76.27     597.16      24.44
 76.37     703.00      26.51
 76.47     667.00      25.83
 76.57     694.16      26.35
 76.67     704.00      26.53
 76.77     694.00      26.34
 76.87     735.14      27.11
 76.97     663.00      25.75
 77.07     619.80      24.90
 77.17     584.00      24.17
 77.27     575.00      23.98
 77.37     578.94      24.06
 77.47     573.00      23.94
 77.57     536.00      23.15
 77.67     506.00      22.49
 77.77     540.89      23.26
 77.87     540.00      23.24
 77.97     509.57      22.57
 78.07     530.00      23.02
 78.17     531.00      23.04
 78.27     510.78      22.60
 78.37     511.00      22.61
 78.47     533.00      23.09
 78.57     553.27      23.52
 78.67     515.00      22.69
 78.77     509.00      22.56
 78.87     556.94      23.60
 78.97     520.00      22.80
 79.07     517.00      22.74
 79.17     536.40      23.16
 79.27     537.98      23.19
 79.37     490.00      22.14
 79.47     572.00      23.92
 79.57     528.93      23.00
 79.67     531.23      23.05
 79.77     497.26      22.30
 79.87     523.00      22.87
 79.97     506.00      22.49
 80.07     550.56      23.46
 80.17     510.29      22.59
 80.27     524.00      22.89
 80.37     525.00      22.91
 80.47     609.52      24.69
 80.57     580.00      24.08
 80.67     641.00      25.32
 80.77     579.00      24.06
 80.87     646.00      25.42
 80.97     640.00      25.30
 81.07     662.00      25.73
 81.17     696.00      26.38
 81.27     768.43      27.72
 81.37     699.89      26.46
 81.47     749.00      27.37
 81.57     768.00      27.71
 81.67     737.00      27.15
 81.77     739.00      27.18
 81.87     700.00      26.46
 81.97     684.00      26.15
 82.07     689.56      26.26
 82.17     657.00      25.63
 82.27     677.00      26.02
 82.37     640.00      25.30
 82.47     639.00      25.28
 82.57     598.00      24.45
 82.67     561.69      23.70
 82.77     577.00      24.02
 82.87     522.12      22.85
 82.97     554.00      23.54
 83.07     538.00      23.19
 83.17     507.04      22.52
 83.27     582.99      24.15
 83.37     522.00      22.85
 83.47     560.00      23.66
 83.57     555.00      23.56
 83.67     533.00      23.09
 83.77     558.00      23.62
 83.87     510.00      22.58
 83.97     594.00      24.37
 84.07     517.00      22.74
 84.17     509.00      22.56
 84.27     565.43      23.78
 84.37     516.56      22.73
 84.47     588.07      24.25
 84.57     509.77      22.58
 84.67     533.00      23.09
 84.77     517.71      22.75
 84.87     501.51      22.39
 84.97     553.57      23.53
 85.07     550.17      23.46
 85.17     493.00      22.20
 85.27     505.00      22.47
 85.37     503.00      22.43
 85.47     472.41      21.73
 85.57     495.00      22.25
 85.67     518.00      22.76
 85.77     538.36      23.20
 85.87     521.00      22.83
 85.97     489.00      22.11
 86.07     551.03      23.47
 86.17     514.22      22.68
 86.27     508.00      22.54
 86.37     529.51      23.01
 86.47     525.00      22.91
 86.57     489.53      22.13
 86.67     575.52      23.99
 86.77     584.47      24.18
 86.87     550.93      23.47
 86.97     637.00      25.24
 87.07     613.00      24.76
 87.17     628.00      25.06
 87.27     646.00      25.42
 87.37     618.32      24.87
 87.47     606.00      24.62
 87.57     588.72      24.26
 87.67     632.00      25.14
 87.77     563.00      23.73
 87.87     584.34      24.17
 87.97     570.00      23.87
 88.07     623.00      24.96
 88.17     627.13      25.04
 88.27     585.00      24.19
 88.37     591.00      24.31
 88.47     566.00      23.79
 88.57     544.00      23.32
 88.67     571.00      23.90
 88.77     567.00      23.81
 88.87     561.00      23.69
 88.97     591.00      24.31
 89.07     557.00      23.60
 89.17     537.38      23.18
 89.27     588.00      24.25
 89.37     605.00      24.60
 89.47     635.00      25.20
 89.57     548.28      23.42
 89.67     591.00      24.31
 89.77     610.00      24.70
 89.87     565.00      23.77
 89.97     588.23      24.25
 90.07     516.92      22.74
 90.17     538.60      23.21
 90.27     541.00      23.26
 90.37     543.00      23.30
 90.47     543.00      23.30
 90.57     553.07      23.52
 90.67     512.00      22.63
 90.77     540.48      23.25
 90.87     510.00      22.58
 90.97     495.00      22.25
 91.07     494.00      22.23
 91.17     477.00      21.84
 91.27     514.00      22.67
 91.37     510.00      22.58
 91.47     533.78      23.10
 91.57     499.00      22.34
 91.67     544.00      23.32
 91.77     527.91      22.98
 91.87     488.00      22.09
 91.97     507.35      22.52
 92.07     543.00      23.30
 92.17     532.00      23.07
 92.27     482.00      21.95
 92.37     562.00      23.71
 92.47     571.62      23.91
 92.57     597.00      24.43
 92.67     625.00      25.00
 92.77     647.00      25.44
 92.87     613.90      24.78
 92.97     704.00      26.53
 93.07     777.00      27.87
 93.17     743.00      27.26
 93.27     751.00      27.40
 93.37     780.00      27.93
 93.47     746.75      27.33
 93.57     784.00      28.00
 93.67     831.63      28.84
 93.77     817.00      28.58
 93.87     809.00      28.44
 93.97     789.14      28.09
 94.07     855.00      29.24
 94.17     837.00      28.93
 94.27     844.99      29.07
 94.37     818.00      28.60
 94.47     879.00      29.65
 94.57     906.35      30.11
 94.67     888.00      29.80
 94.77     878.38      29.64
 94.87     858.26      29.30
 94.97     937.00      30.61
 95.07     883.00      29.72
 95.17     837.00      28.93
 95.27     877.78      29.63
 95.37     793.00      28.16
 95.47     815.11      28.55
 95.57     764.00      27.64
 95.67     768.67      27.72
 95.77     744.49      27.29
 95.87     694.00      26.34
 95.97     676.02      26.00
 96.07     611.46      24.73
 96.17     642.00      25.34
 96.27     636.64      25.23
 96.37     672.68      25.94
 96.47     678.00      26.04
 96.57     780.78      27.94
 96.67     824.00      28.71
 96.77     859.00      29.31
 96.87     982.00      31.34
 96.97    1041.00      32.26
 97.07    1100.11      33.17
 97.17    1200.00      34.64
 97.27    1242.00      35.24
 97.37    1329.67      36.46
 97.47    1453.00      38.12
 97.57    1355.00      36.81
 97.67    1468.00      38.31
 97.77    1501.37      38.75
 97.87    1460.00      38.21
 97.97    1366.00      36.96
 98.07    1317.00      36.29
 98.17    1272.93      35.68
 98.27    1182.00      34.38
 98.37    1062.00      32.59
 98.47    1075.00      32.79
 98.57     983.00      31.35
 98.67     894.00      29.90
 98.77     835.00      28.90
 98.87     821.41      28.66
 98.97     735.00      27.11
 99.07     757.00      27.51
 99.17     797.00      28.23
 99.27     847.00      29.10
 99.37     892.49      29.87
 99.47     944.29      30.73
 99.57     912.78      30.21
 99.67    1033.28      32.14
 99.77    1071.00      32.73
 99.87    1184.00      34.41
 99.97    1351.00      36.76
100.07    1456.00      38.16
100.17    1559.00      39.48
100.27    1705.90      41.30
100.37    1793.00      42.34
100.47    1786.36      42.27
100.57    2033.40      45.09
100.67    1972.16      44.41
100.77    2145.00      46.31
100.87    2051.34      45.29
100.97    2037.05      45.13
101.07    2138.00      46.24
101.17    2088.00      45.69
101.27    1936.78      44.01
101.37    1874.00      43.29
101.47    1748.62      41.82
101.57    1724.00      41.52
101.67    1661.29      40.76
101.77    1572.64      39.66
101.87    1512.29      38.89
101.97    1340.00      36.61
102.07    1278.00      35.75
102.17    1323.01      36.37
102.27    1228.00      35.04
102.37    1183.00      34.39
102.47    1138.00      33.73
102.57    1078.00      32.83
102.67    1124.00      33.53
102.77    1073.00      32.76
102.87    1021.00      31.95
102.97    1001.00      31.64
103.07    1048.73      32.38
103.17     925.00      30.41
103.27     867.00      29.44
103.37     853.00      29.21
103.47     813.79      28.53
103.57     755.54      27.49
103.67     780.00      27.93
103.77     751.91      27.42
103.87     701.00      26.48
103.97     620.78      24.92
104.07     668.00      25.85
104.17     644.00      25.38
104.27     593.00      24.35
104.37     559.00      23.64
104.47     515.47      22.70
104.57     524.00      22.89
104.67     514.25      22.68
104.77     503.11      22.43
104.87     555.93      23.58
104.97     549.08      23.43
105.07     569.00      23.85
105.17     494.09      22.23
105.27     538.60      23.21
105.37     511.71      22.62
105.47     487.90      22.09
105.57     550.00      23.45
105.67     496.62      22.29
105.77     508.00      22.54
105.87     504.85      22.47
105.97     549.00      23.43
106.07     536.00      23.15
106.17     519.00      22.78
106.27     570.37      23.88
106.37     594.51      24.38
106.47     565.00      23.77
106.57     575.01      23.98
106.67     602.78      24.55
106.77     588.00      24.25
106.87     672.80      25.94
106.97     636.00      25.22
107.07     670.88      25.90
107.17     653.00      25.55
107.27     658.00      25.65
107.37     692.11      26.31
107.47     674.19      25.97
107.57     655.00      25.59
107.67     639.00      25.28
107.77     683.00      26.13
107.87     669.00      25.87
107.97     722.29      26.88
108.07     610.00      24.70
108.17     643.00      25.36
108.27     688.66      26.24
108.37     646.00      25.42
108.47     648.00      25.46
108.57     637.91      25.26
108.67     669.95      25.88
108.77     648.14      25.46
108.87     687.00      26.21
108.97     653.00      25.55
109.07     706.00      26.57
109.17     652.61      25.55
109.27     657.00      25.63
109.37     648.00      25.46
109.47     622.58      24.95
109.57     654.76      25.59
109.67     637.00      25.24
109.77     679.00      26.06
109.87     618.00      24.86
109.97     616.63      24.83
110.07     604.00      24.58
110.17     598.72      24.47
110.27     588.00      24.25
110.37     563.00      23.73
110.47     567.00      23.81
110.57     553.00      23.52
110.67     542.97      23.30
110.77     549.30      23.44
110.87     500.00      22.36
110.97     562.55      23.72
111.07     551.00      23.47
111.17     554.00      23.54
111.27     513.21      22.65
111.37     549.00      23.43
111.47     527.00      22.96
111.57     493.26      22.21
111.67     508.83      22.56
111.77     527.00      22.96
111.87     572.28      23.92
111.97     512.00      22.63
112.07     504.92      22.47
112.17     556.00      23.58
112.27     523.00      22.87
112.37     557.00      23.60
112.47     604.00      24.58
112.57     558.00      23.62
112.67     578.00      24.04
112.77     609.11      24.68
112.87     628.00      25.06
112.97     604.00      24.58
113.07     666.00      25.81
113.17     613.09      24.76
113.27     707.00      26.59
113.37     712.00      26.68
113.47     738.00      27.17
113.57     834.00      28.88
113.67     797.00      28.23
113.77     905.00      30.08
113.87     868.00      29.46
113.97     945.87      30.76
114.07    1006.29      31.72
114.17    1025.00      32.02
114.27    1016.00      31.87
114.37    1186.18      34.44
114.47    1232.00      35.10
114.57    1256.00      35.44
114.67    1396.00      37.36
114.77    1631.00      40.39
114.87    1588.86      39.86
114.97    1845.00      42.95
115.07    2051.00      45.29
115.17    2240.75      47.34
115.27    2562.00      50.62
115.37    2749.54      52.44
115.47    2978.00      54.57
115.57    3344.00      57.83
115.67    3709.13      60.90
115.77    3861.00      62.14
115.87    4230.00      65.04
115.97    4620.00      67.97
116.07    5151.54      71.77
116.17    5595.15      74.80
116.27    5761.00      75.90
116.37    6186.30      78.65
116.47    6593.00      81.20
116.57    6844.06      82.73
116.67    7107.00      84.30
116.77    7107.00      84.30
116.87    7347.00      85.71
116.97    7339.00      85.67
117.07    7039.00      83.90
117.17    6935.00      83.28
117.27    6678.00      81.72
117.37    6282.00      79.26
117.47    6066.56      77.89
117.57    5610.61      74.90
117.67    5059.00      71.13
117.77    4776.00      69.11
117.87    4344.78      65.91
117.97    4130.00      64.27
118.07    3774.00      61.43
118.17    3364.00      58.00
118.27    2987.00      54.65
118.37    2623.00      51.22
118.47    2353.00      48.51
118.57    2007.00      44.80
118.67    1716.87      41.44
118.77    1542.08      39.27
118.87    1399.00      37.40
118.97    1174.00      34.26
119.07    1109.44      33.31
119.17    1027.64      32.06
119.27    1016.61      31.88
119.37     836.21      28.92
119.47     843.62      29.05
119.57     824.00      28.71
119.67     734.00      27.09
119.77     706.00      26.57
119.87     658.00      25.65
119.97     666.00      25.81
120.07     593.00      24.35
120.17     599.00      24.47
120.27     581.33      24.11
120.37     608.00      24.66
120.47     626.11      25.02
120.57     571.35      23.90
120.67     555.49      23.57
120.77     562.00      23.71
120.87     536.00      23.15
120.97     586.00      24.21
121.07     596.95      24.43
121.17     547.00      23.39
121.27     566.23      23.80
121.37     599.00      24.47
121.47     539.00      23.22
121.57     543.00      23.30
121.67     578.00      24.04
121.77     589.73      24.28
121.87     611.08      24.72
121.97     570.00      23.87
122.07     577.00      24.02
122.17     569.28      23.86
122.27     578.00      24.04
122.37     591.89      24.33
122.47     613.58      24.77
122.57     658.00      25.65
122.67     638.02      25.26
122.77     597.07      24.44
122.87     671.59      25.92
122.97     657.00      25.63
123.07     656.97      25.63
123.17     608.85      24.67
123.27     634.00      25.18
123.37     632.30      25.15
123.47     659.85      25.69
123.57     646.00      25.42
123.67     603.55      24.57
123.77     614.76      24.79
123.87     646.00      25.42
123.97     579.00      24.06
124.07     609.50      24.69
124.17     612.00      24.74
124.27     651.00      25.51
124.37     580.00      24.08
124.47     652.00      25.53
124.57     573.00      23.94
124.67     625.00      25.00
124.77     585.00      24.19
124.87     587.00      24.23
124.97     608.00      24.66
