  9.97     631.00      25.12
 10.07     579.00      24.06
 10.17     590.00      24.29
 10.27     584.00      24.17
 10.37     579.00      24.06
 10.47     650.00      25.50
 10.57     550.93      23.47
 10.67     581.00      24.10
 10.77     590.00      24.29
 10.87     586.00      24.21
 10.97     538.79      23.21
 11.07     630.00      25.10
 11.17     585.00      24.19
 11.27     623.16      24.96
 11.37     590.00      24.29
 11.47     623.79      24.98
 11.57     563.00      23.73
 11.67     569.60      23.87
 11.77     671.00      25.90
 11.87     622.00      24.94
 11.97     674.98      25.98
 12.07     663.00      25.75
 12.17     688.00      26.23
 12.27     760.68      27.58
 12.37     625.00      25.00
 12.47     655.00      25.59
 12.57     617.80      24.86
 12.67     579.00      24.06
 12.77     565.61      23.78
 12.87     590.63      24.30
 12.97     555.00      23.56
 13.07     567.00      23.81
 13.17     535.00      23.13
 13.27     546.00      23.37
 13.37     587.00      24.23
 13.47     564.00      23.75
 13.57     557.00      23.60
 13.67     505.00      22.47
 13.77     574.00      23.96
 13.87     602.00      24.54
 13.97     534.00      23.11
 14.07     569.98      23.87
 14.17     608.44      24.67
 14.27     588.00      24.25
 14.37     542.86      23.30
 14.47     562.12      23.71
 14.57     543.00      23.30
 14.67     565.25      23.78
 14.77     602.00      24.54
 14.87     569.00      23.85
 14.97     548.39      23.42
 15.07     578.00      24.04
 15.17     589.71      24.28
 15.27     503.00      22.43
 15.37     566.00      23.79
 15.47     562.00      23.71
 15.57     570.22      23.88
 15.67     539.26      23.22
 15.77     579.00      24.06
 15.87     570.00      23.87
 15.97     550.00      23.45
 16.07     566.00      23.79
 16.17     535.00      23.13
 16.27     549.00      23.43
 16.37     557.83      23.62
 16.47     544.00      23.32
 16.57     572.00      23.92
 16.67     537.00      23.17
 16.77     593.00      24.35
 16.87     547.00      23.39
 16.97     555.00      23.56
 17.07     544.00      23.32
 17.17     561.47      23.70
 17.27     596.00      24.41
 17.37     586.00      24.21
 17.47     606.00      24.62
 17.57     605.00      24.60
 17.67     595.00      24.39
 17.77     529.45      23.01
 17.87     570.00      23.87
 17.97     535.00      23.13
 18.07     541.00      23.26
 18.17     567.28      23.82
 18.27     553.00      23.52
 18.37     541.80      23.28
 18.47     600.87      24.51
 18.57     579.00      24.06
 18.67     536.00      23.15
 18.77     507.00      22.52
 18.87     546.00      23.37
 18.97     542.00      23.28
 19.07     584.00      24.17
 19.17     541.00      23.26
 19.27     541.53      23.27
 19.37     571.43      23.90
 19.47     598.63      24.47
 19.57     554.00      23.54
 19.67     591.40      24.32
 19.77     563.57      23.74
 19.87     571.00      23.90
 19.97     538.78      23.21
 20.07     528.00      22.98
 20.17     569.00      23.85
 20.27     551.51      23.48
 20.37     531.54      23.06
 20.47     546.36      23.37
 20.57     534.00      23.11
 20.67     591.00      24.31
 20.77     573.00      23.94
 20.87     521.00      22.83
 20.97     560.48      23.67
 21.07     556.26      23.59
 21.17     584.00      24.17
 21.27     542.00      23.28
 21.37     590.95      24.31
 21.47     552.00      23.49
 21.57     575.00      23.98
 21.67     565.00      23.77
 21.77     555.09      23.56
 21.87     523.16      22.87
 21.97     571.00      23.90
 22.07     571.00      23.90
 22.17     589.00      24.27
 22.27     536.96      23.17
 22.37     591.80      24.33
 22.47     568.00      23.83
 22.57     555.73      23.57
 22.67     538.07      23.20
 22.77     587.51      24.24
 22.87     520.00      22.80
 22.97     542.24      23.29
 23.07     573.00      23.94
 23.17     531.26      23.05
 23.27     563.67      23.74
 23.37     553.00      23.52
 23.47     560.56      23.68
 23.57     549.00      23.43
 23.67     548.00      23.41
 23.77     564.00      23.75
 23.87     510.80      22.60
 23.97     588.34      24.26
 24.07     545.34      23.35
 24.17     522.00      22.85
 24.27     541.00      23.26
 24.37     511.35      22.61
 24.47     603.91      24.57
 24.57     649.00      25.48
 24.67     588.00      24.25
 24.77     628.54      25.07
 24.87     692.00      26.31
 24.97     595.00      24.39
 25.07     608.00      24.66
 25.17     582.00      24.12
 25.27     531.00      23.04
 25.37     576.80      24.02
 25.47     498.50      22.33
 25.57     516.24      22.72
 25.67     544.00      23.32
 25.77     552.00      23.49
 25.87     530.35      23.03
 25.97     508.06      22.54
 26.07     554.70      23.55
 26.17     540.00      23.24
 26.27     529.00      23.00
 26.37     518.50      22.77
 26.47     541.00      23.26
 26.57     545.00      23.35
 26.67     545.00      23.35
 26.77     550.00      23.45
 26.87     512.00      22.63
 26.97     539.00      23.22
 27.07     558.00      23.62
 27.17     546.00      23.37
 27.27     555.00      23.56
 27.37     512.84      22.65
 27.47     516.34      22.72
 27.57     551.88      23.49
 27.67     564.00      23.75
 27.77     515.25      22.70
 27.87     569.34      23.86
 27.97     672.27      25.93
 28.07     731.00      27.04
 28.17     866.18      29.43
 28.27     984.00      31.37
 28.37     953.00      30.87
 28.47     845.00      29.07
 28.57     687.22      26.21
 28.67     646.14      25.42
 28.77     737.69      27.16
 28.87     799.00      28.27
 28.97     839.71      28.98
 29.07     750.00      27.39
 29.17     719.00      26.81
 29.27     614.00      24.78
 29.37     649.00      25.48
 29.47     550.37      23.46
 29.57     576.00      24.00
 29.67     618.00      24.86
 29.77     574.88      23.98
 29.87     609.60      24.69
 29.97     577.95      24.04
 30.07     592.00      24.33
 30.17     550.00      23.45
 30.27     533.00      23.09
 30.37     558.28      23.63
 30.47     512.00      22.63
 30.57     529.96      23.02
 30.67     551.08      23.48
 30.77     536.13      23.15
 30.87     603.02      24.56
 30.97     598.74      24.47
 31.07     598.00      24.45
 31.17     611.00      24.72
 31.27     569.00      23.85
 31.37     560.00      23.66
 31.47     523.62      22.88
 31.57     523.00      22.87
 31.67     521.00      22.83
 31.77     507.86      22.54
 31.87     521.74      22.84
 31.97     506.00      22.49
 32.07     523.95      22.89
 32.17     531.00      23.04
 32.27     586.00      24.21
 32.37     530.29      23.03
 32.47     560.00      23.66
 32.57     556.00      23.58
 32.67     537.00      23.17
 32.77     558.00      23.62
 32.87     505.00      22.47
 32.97     537.50      23.18
 33.07     510.00      22.58
 33.17     557.00      23.60
 33.27     550.89      23.47
 33.37     560.00      23.66
 33.47     566.42      23.80
 33.57     565.40      23.78
 33.67     599.00      24.47
 33.77     712.00      26.68
 33.87     799.00      28.27
 33.97     972.00      31.18
 34.07    1027.00      32.05
 34.17    1043.05      32.30
 34.27     940.00      30.66
 34.37     747.00      27.33
 34.47     706.65      26.58
 34.57     633.63      25.17
 34.67     552.00      23.49
 34.77     520.33      22.81
 34.87     514.00      22.67
 34.97     538.01      23.19
 35.07     516.00      22.72
 35.17     544.48      23.33
 35.27     522.00      22.85
 35.37     508.00      22.54
 35.47     495.00      22.25
 35.57     545.00      23.35
 35.67     472.65      21.74
 35.77     477.00      21.84
 35.87     570.00      23.87
 35.97     453.00      21.28
 36.07     464.00      21.54
 36.17     492.00      22.18
 36.27     502.00      22.41
 36.37     502.00      22.41
 36.47     460.00      21.45
 36.57     525.55      22.92
 36.67     497.00      22.29
 36.77     482.00      21.95
 36.87     514.00      22.67
 36.97     493.00      22.20
 37.07     479.00      21.89
 37.17     569.00      23.85
 37.27     501.49      22.39
 37.37     483.31      21.98
 37.47     496.00      22.27
 37.57     492.15      22.18
 37.67     541.69      23.27
 37.77     528.00      22.98
 37.87     546.30      23.37
 37.97     516.00      22.72
 38.07     493.00      22.20
 38.17     503.00      22.43
 38.27     514.00      22.67
 38.37     478.00      21.86
 38.47     526.00      22.93
 38.57     441.00      21.00
 38.67     504.81      22.47
 38.77     468.00      21.63
 38.87     508.76      22.56
 38.97     479.00      21.89
 39.07     475.25      21.80
 39.17     499.00      22.34
 39.27     489.66      22.13
 39.37     469.06      21.66
 39.47     483.00      21.98
 39.57     484.56      22.01
 39.67     523.00      22.87
 39.77     519.09      22.78
 39.87     510.52      22.59
 39.97     479.80      21.90
 40.07     476.00      21.82
 40.17     497.78      22.31
 40.27     500.00      22.36
 40.37     503.69      22.44
 40.47     496.67      22.29
 40.57     495.00      22.25
 40.67     483.00      21.98
 40.77     460.00      21.45
 40.87     464.00      21.54
 40.97     486.94      22.07
 41.07     499.00      22.34
 41.17     488.00      22.09
 41.27     534.61      23.12
 41.37     481.56      21.94
 41.47     505.00      22.47
 41.57     526.00      22.93
 41.67     477.00      21.84
 41.77     483.00      21.98
 41.87     468.00      21.63
 41.97     517.29      22.74
 42.07     499.00      22.34
 42.17     509.00      22.56
 42.27     510.23      22.59
 42.37     550.00      23.45
 42.47     534.00      23.11
 42.57     592.00      24.33
 42.67     646.14      25.42
 42.77     626.78      25.04
 42.87     542.00      23.28
 42.97     543.00      23.30
 43.07     508.00      22.54
 43.17     522.00      22.85
 43.27     469.00      21.66
 43.37     486.00      22.05
 43.47     536.44      23.16
 43.57     530.66      23.04
 43.67     499.87      22.36
 43.77     460.89      21.47
 43.87     494.00      22.23
 43.97     478.65      21.88
 44.07     465.43      21.57
 44.17     500.20      22.37
 44.27     471.00      21.70
 44.37     460.00      21.45
 44.47     532.30      23.07
 44.57     502.00      22.41
 44.67     476.00      21.82
 44.77     496.00      22.27
 44.87     459.00      21.42
 44.97     479.00      21.89
 45.07     524.00      22.89
 45.17     455.34      21.34
 45.27     480.00      21.91
 45.37     467.15      21.61
 45.47     492.14      22.18
 45.57     489.00      22.11
 45.67     478.26      21.87
 45.77     463.32      21.52
 45.87     477.00      21.84
 45.97     526.28      22.94
 46.07     494.35      22.23
 46.17     471.00      21.70
 46.27     471.00      21.70
 46.37     508.67      22.55
 46.47     529.22      23.00
 46.57     501.00      22.38
 46.67     548.00      23.41
 46.77     513.00      22.65
 46.87     515.00      22.69
 46.97     475.00      21.79
 47.07     507.00      22.52
 47.17     464.00      21.54
 47.27     529.00      23.00
 47.37     482.50      21.97
 47.47     530.00      23.02
 47.57     575.00      23.98
 47.67     600.00      24.49
 47.77     603.43      24.56
 47.87     586.00      24.21
 47.97     547.90      23.41
 48.07     552.00      23.49
 48.17     554.00      23.54
 48.27     593.60      24.36
 48.37     523.00      22.87
 48.47     537.00      23.17
 48.57     563.13      23.73
 48.67     515.00      22.69
 48.77     507.00      22.52
 48.87     552.52      23.51
 48.97     539.00      23.22
 49.07     605.96      24.62
 49.17     561.39      23.69
 49.27     645.87      25.41
 49.37     603.00      24.56
 49.47     674.37      25.97
 49.57     778.68      27.90
 49.67     943.00      30.71
 49.77    1026.00      32.03
 49.87    1428.00      37.79
 49.97    1650.24      40.62
 50.07    2093.90      45.76
 50.17    2509.00      50.09
 50.27    2504.00      50.04
 50.37    2336.00      48.33
 50.47    2067.81      45.47
 50.57    1501.00      38.74
 50.67    1133.00      33.66
 50.77     854.00      29.22
 50.87     801.27      28.31
 50.97     674.00      25.96
 51.07     614.00      24.78
 51.17     650.00      25.50
 51.27     569.85      23.87
 51.37     619.77      24.90
 51.47     573.40      23.95
 51.57     611.00      24.72
 51.67     563.00      23.73
 51.77     571.00      23.90
 51.87     512.06      22.63
 51.97     498.34      22.32
 52.07     520.00      22.80
 52.17     580.00      24.08
 52.27     539.67      23.23
 52.37     545.00      23.35
 52.47     540.00      23.24
 52.57     628.00      25.06
 52.67     609.00      24.68
 52.77     616.00      24.82
 52.87     607.00      24.64
 52.97     671.00      25.90
 53.07     775.00      27.84
 53.17     801.89      28.32
 53.27    1007.63      31.74
 53.37    1092.00      33.05
 53.47    1153.00      33.96
 53.57    1191.00      34.51
 53.67    1147.00      33.87
 53.77    1038.00      32.22
 53.87     887.39      29.79
 53.97     773.00      27.80
 54.07     691.41      26.29
 54.17     666.00      25.81
 54.27     589.31      24.28
 54.37     584.00      24.17
 54.47     502.64      22.42
 54.57     602.00      24.54
 54.67     552.00      23.49
 54.77     523.00      22.87
 54.87     547.00      23.39
 54.97     555.00      23.56
 55.07     546.94      23.39
 55.17     543.00      23.30
 55.27     568.00      23.83
 55.37     561.00      23.69
 55.47     531.00      23.04
 55.57     552.00      23.49
 55.67     577.00      24.02
 55.77     594.71      24.39
 55.87     620.20      24.90
 55.97     587.00      24.23
 56.07     637.00      25.24
 56.17     688.00      26.23
 56.27     816.72      28.58
 56.37    1016.00      31.87
 56.47    1261.00      35.51
 56.57    1600.00      40.00
 56.67    1955.00      44.22
 56.77    2489.10      49.89
 56.87    2611.00      51.10
 56.97    2666.00      51.63
 57.07    2548.00      50.48
 57.17    2235.00      47.28
 57.27    1836.00      42.85
 57.37    1490.00      38.60
 57.47    1062.00      32.59
 57.57     948.00      30.79
 57.67     793.00      28.16
 57.77     768.00      27.71
 57.87     698.00      26.42
 57.97     684.39      26.16
 58.07     640.20      25.30
 58.17     694.00      26.34
 58.27     756.00      27.50
 58.37     825.00      28.72
 58.47     933.00      30.55
 58.57    1022.00      31.97
 58.67    1319.00      36.32
 58.77    1376.00      37.09
 58.87    1572.00      39.65
 58.97    1632.06      40.40
 59.07    1687.00      41.07
 59.17    1661.00      40.76
 59.27    1589.82      39.87
 59.37    1399.46      37.41
 59.47    1264.00      35.55
 59.57    1255.00      35.43
 59.67    1143.00      33.81
 59.77    1141.00      33.78
 59.87    1123.53      33.52
 59.97    1243.00      35.26
 60.07    1399.00      37.40
 60.17    1539.00      39.23
 60.27    1595.86      39.95
 60.37    1554.55      39.43
 60.47    1405.05      37.48
 60.57    1331.00      36.48
 60.67    1131.00      33.63
 60.77     983.15      31.36
 60.87     877.00      29.61
 60.97     711.09      26.67
 61.07     668.00      25.85
 61.17     619.02      24.88
 61.27     650.00      25.50
 61.37     615.48      24.81
 61.47     644.55      25.39
 61.57     693.00      26.32
 61.67     825.00      28.72
 61.77     944.00      30.72
 61.87    1034.00      32.16
 61.97    1173.00      34.25
 62.07    1368.92      37.00
 62.17    1442.00      37.97
 62.27    1343.00      36.65
 62.37    1342.00      36.63
 62.47    1281.00      35.79
 62.57    1186.20      34.44
 62.67     997.48      31.58
 62.77     860.52      29.33
 62.87     681.00      26.10
 62.97     646.00      25.42
 63.07     631.32      25.13
 63.17     635.57      25.21
 63.27     520.46      22.81
 63.37     530.00      23.02
 63.47     526.21      22.94
 63.57     610.00      24.70
 63.67     548.16      23.41
 63.77     539.92      23.24
 63.87     614.00      24.78
 63.97     636.00      25.22
 64.07     662.04      25.73
 64.17     719.00      26.81
 64.27     855.00      29.24
 64.37     854.10      29.23
 64.47     954.33      30.89
 64.57    1064.00      32.62
 64.67    1026.00      32.03
 64.77    1092.00      33.05
 64.87    1031.00      32.11
 64.97     949.00      30.81
 65.07     833.00      28.86
 65.17     808.48      28.43
 65.27     765.00      27.66
 65.37     691.38      26.29
 65.47     648.00      25.46
 65.57     640.00      25.30
 65.67     578.47      24.05
 65.77     547.86      23.41
 65.87     556.00      23.58
 65.97     615.00      24.80
 66.07     517.57      22.75
 66.17     544.80      23.34
 66.27     548.74      23.43
 66.37     506.90      22.51
 66.47     560.00      23.66
 66.57     557.67      23.62
 66.67     508.00      22.54
 66.77     520.95      22.82
 66.87     595.00      24.39
 66.97     556.52      23.59
 67.07     576.50      24.01
 67.17     617.63      24.85
 67.27     730.00      27.02
 67.37     858.82      29.31
 67.47    1012.26      31.82
 67.57    1084.17      32.93
 67.67    1443.82      38.00
 67.77    1624.00      40.30
 67.87    1789.00      42.30
 67.97    2202.00      46.93
 68.07    2463.00      49.63
 68.17    2374.00      48.72
 68.27    2346.00      48.44
 68.37    2181.00      46.70
 68.47    1937.90      44.02
 68.57    1669.00      40.85
 68.67    1373.00      37.05
 68.77    1197.75      34.61
 68.87     925.00      30.41
 68.97     824.25      28.71
 69.07     730.00      27.02
 69.17     721.00      26.85
 69.27     603.15      24.56
 69.37     623.00      24.96
 69.47     583.50      24.16
 69.57     557.84      23.62
 69.67     568.00      23.83
 69.77     555.00      23.56
 69.87     584.64      24.18
 69.97     554.00      23.54
 70.07     517.00      22.74
 70.17     564.34      23.76
 70.27     561.00      23.69
 70.37     568.00      23.83
 70.47     567.00      23.81
 70.57     537.00      23.17
 70.67     581.11      24.11
 70.77     596.00      24.41
 70.87     568.00      23.83
 70.97     575.00      23.98
 71.07     679.85      26.07
 71.17     682.33      26.12
 71.27     802.17      28.32
 71.37     800.86      28.30
 71.47     985.73      31.40
 71.57    1113.00      33.36
 71.67    1287.00      35.87
 71.77    1555.51      39.44
 71.87    1746.09      41.79
 71.97    1777.64      42.16
 72.07    1894.00      43.52
 72.17    1964.00      44.32
 72.27    1824.08      42.71
 72.37    1638.06      40.47
 72.47    1568.85      39.61
 72.57    1436.00      37.89
 72.67    1222.00      34.96
 72.77    1153.00      33.96
 72.87    1025.00      32.02
 72.97     948.00      30.79
 73.07     857.00      29.27
 73.17     799.00      28.27
 73.27     759.00      27.55
 73.37     656.00      25.61
 73.47     629.00      25.08
 73.57     632.00      25.14
 73.67     593.00      24.35
 73.77     604.00      24.58
 73.87     565.00      23.77
 73.97     553.11      23.52
 74.07     589.40      24.28
 74.17     597.00      24.43
 74.27     554.00      23.54
 74.37     545.00      23.35
 74.47     610.00      24.70
 74.57     644.00      25.38
 74.67     564.00      23.75
 74.77     637.00      25.24
 74.87     601.27      24.52
 74.97     572.00      23.92
 75.07     621.00      24.92
 75.17     564.52      23.76
 75.27     599.00      24.47
 75.37     573.00      23.94
 75.47     525.93      22.93
 75.57     567.00      23.81
 75.67     556.00      23.58
 75.77     573.20      23.94
 75.87     607.74      24.65
 75.97     588.00      24.25
 76.07     609.00      24.68
 76.17     653.50      25.56
 76.27     639.00      25.28
 76.37     675.86      26.00
 76.47     728.67      26.99
 76.57     718.00      26.80
 76.67     663.00      25.75
 76.77     721.54      26.86
 76.87     689.94      26.27
 76.97     589.00      24.27
 77.07     611.00      24.72
 77.17     625.00      25.00
 77.27     623.44      24.97
 77.37     512.00      22.63
 77.47     603.89      24.57
 77.57     573.87      23.96
 77.67     528.86      23.00
 77.77     527.00      22.96
 77.87     512.00      22.63
 77.97     556.00      23.58
 78.07     513.53      22.66
 78.17     566.00      23.79
 78.27     513.00      22.65
 78.37     528.95      23.00
 78.47     545.61      23.36
 78.57     543.00      23.30
 78.67     485.56      22.04
 78.77     510.81      22.60
 78.87     489.00      22.11
 78.97     495.00      22.25
 79.07     523.30      22.88
 79.17     534.00      23.11
 79.27     494.00      22.23
 79.37     494.94      22.25
 79.47     552.00      23.49
 79.57     526.00      22.93
 79.67     499.63      22.35
 79.77     521.00      22.83
 79.87     541.00      23.26
 79.97     516.00      22.72
 80.07     535.29      23.14
 80.17     557.76      23.62
 80.27     550.00      23.45
 80.37     586.00      24.21
 80.47     619.00      24.88
 80.57     626.00      25.02
 80.67     607.00      24.64
 80.77     631.00      25.12
 80.87     639.00      25.28
 80.97     709.44      26.64
 81.07     675.00      25.98
 81.17     717.00      26.78
 81.27     710.69      26.66
 81.37     670.00      25.88
 81.47     792.33      28.15
 81.57     721.21      26.86
 81.67     751.79      27.42
 81.77     779.89      27.93
 81.87     736.00      27.13
 81.97     712.00      26.68
 82.07     717.00      26.78
 82.17     628.00      25.06
 82.27     667.00      25.83
 82.37     632.00      25.14
 82.47     631.00      25.12
 82.57     608.00      24.66
 82.67     610.00      24.70
 82.77     599.56      24.49
 82.87     574.00      23.96
 82.97     551.00      23.47
 83.07     566.00      23.79
 83.17     505.25      22.48
 83.27     555.88      23.58
 83.37     558.00      23.62
 83.47     557.51      23.61
 83.57     559.00      23.64
 83.67     524.81      22.91
 83.77     525.00      22.91
 83.87     528.00      22.98
 83.97     550.00      23.45
 84.07     565.41      23.78
 84.17     603.81      24.57
 84.27     588.11      24.25
 84.37     598.25      24.46
 84.47     543.00      23.30
 84.57     513.48      22.66
 84.67     521.00      22.83
 84.77     545.72      23.36
 84.87     553.00      23.52
 84.97     497.00      22.29
 85.07     541.76      23.28
 85.17     550.49      23.46
 85.27     480.00      21.91
 85.37     508.00      22.54
 85.47     522.30      22.85
 85.57     494.04      22.23
 85.67     513.00      22.65
 85.77     531.64      23.06
 85.87     520.00      22.80
 85.97     510.00      22.58
 86.07     451.00      21.24
 86.17     534.87      23.13
 86.27     516.00      22.72
 86.37     535.00      23.13
 86.47     570.00      23.87
 86.57     537.00      23.17
 86.67     597.00      24.43
 86.77     596.00      24.41
 86.87     569.00      23.85
 86.97     563.00      23.73
 87.07     588.00      24.25
 87.17     584.74      24.18
 87.27     638.93      25.28
 87.37     598.54      24.47
 87.47     634.00      25.18
 87.57     665.71      25.80
 87.67     668.00      25.85
 87.77     637.88      25.26
 87.87     623.55      24.97
 87.97     574.94      23.98
 88.07     556.00      23.58
 88.17     623.00      24.96
 88.27     582.72      24.14
 88.37     541.00      23.26
 88.47     584.00      24.17
 88.57     586.00      24.21
 88.67     535.16      23.13
 88.77     577.00      24.02
 88.87     534.36      23.12
 88.97     560.63      23.68
 89.07     550.70      23.47
 89.17     600.00      24.49
 89.27     605.00      24.60
 89.37     630.00      25.10
 89.47     579.57      24.07
 89.57     563.81      23.74
 89.67     570.00      23.87
 89.77     558.86      23.64
 89.87     583.00      24.15
 89.97     637.00      25.24
 90.07     551.00      23.47
 90.17     539.17      23.22
 90.27     517.00      22.74
 90.37     479.00      21.89
 90.47     479.00      21.89
 90.57     518.00      22.76
 90.67     526.00      22.93
 90.77     547.38      23.40
 90.87     535.00      23.13
 90.97     560.00      23.66
 91.07     512.00      22.63
 91.17     549.04      23.43
 91.27     497.00      22.29
 91.37     512.00      22.63
 91.47     502.67      22.42
 91.57     530.00      23.02
 91.67     467.00      21.61
 91.77     553.00      23.52
 91.87     562.47      23.72
 91.97     536.42      23.16
 92.07     551.00      23.47
 92.17     530.33      23.03
 92.27     571.31      23.90
 92.37     600.00      24.49
 92.47     577.00      24.02
 92.57     622.00      24.94
 92.67     674.00      25.96
 92.77     689.00      26.25
 92.87     706.00      26.57
 92.97     711.00      26.66
 93.07     767.00      27.69
 93.17     765.88      27.67
 93.27     824.00      28.71
 93.37     835.00      28.90
 93.47     815.00      28.55
 93.57     828.10      28.78
 93.67     871.00      29.51
 93.77     824.28      28.71
 93.87     902.00      30.03
 93.97     810.00      28.46
 94.07     880.82      29.68
 94.17     813.00      28.51
 94.27     901.00      30.02
 94.37     883.00      29.72
 94.47     813.54      28.52
 94.57     850.02      29.16
 94.67     906.00      30.10
 94.77     947.00      30.77
 94.87     952.00      30.85
 94.97     899.00      29.98
 95.07     844.85      29.07
 95.17     905.00      30.08
 95.27     895.00      29.92
 95.37     840.00      28.98
 95.47     776.59      27.87
 95.57     749.00      27.37
 95.67     734.00      27.09
 95.77     688.00      26.23
 95.87     637.00      25.24
 95.97     647.00      25.44
 96.07     666.00      25.81
 96.17     678.97      26.06
 96.27     711.72      26.68
 96.37     710.73      26.66
 96.47     759.26      27.55
 96.57     758.00      27.53
 96.67     910.32      30.17
 96.77     912.69      30.21
 96.87    1004.00      31.69
 96.97    1037.00      32.20
 97.07    1075.00      32.79
 97.17    1218.00      34.90
 97.27    1273.00      35.68
 97.37    1381.00      37.16
 97.47    1446.17      38.03
 97.57    1439.00      37.93
 97.67    1418.00      37.66
 97.77    1462.00      38.24
 97.87    1459.00      38.20
 97.97    1368.00      36.99
 98.07    1250.00      35.36
 98.17    1188.00      34.47
 98.27    1210.00      34.79
 98.37    1082.00      32.89
 98.47    1008.00      31.75
 98.57     909.00      30.15
 98.67     838.23      28.95
 98.77     829.00      28.79
 98.87     859.86      29.32
 98.97     773.38      27.81
 99.07     827.58      28.77
 99.17     792.68      28.15
 99.27     859.94      29.32
 99.37     862.00      29.36
 99.47     991.00      31.48
 99.57    1009.00      31.76
 99.67    1037.54      32.21
 99.77    1241.35      35.23
 99.87    1219.94      34.93
 99.97    1405.00      37.48
100.07    1543.00      39.28
100.17    1615.25      40.19
100.27    1742.00      41.74
100.37    1865.00      43.19
100.47    1986.52      44.57
100.57    1941.15      44.06
100.67    2130.98      46.16
100.77    2103.22      45.86
100.87    2100.00      45.83
100.97    2108.00      45.91
101.07    2080.00      45.61
101.17    1927.95      43.91
101.27    1908.00      43.68
101.37    1832.91      42.81
101.47    1705.54      41.30
101.57    1624.64      40.31
101.67    1513.00      38.90
101.77    1538.85      39.23
101.87    1435.43      37.89
101.97    1291.00      35.93
102.07    1251.00      35.37
102.17    1208.00      34.76
102.27    1153.00      33.96
102.37    1150.00      33.91
102.47    1084.00      32.92
102.57    1106.94      33.27
102.67    1035.00      32.17
102.77    1103.00      33.21
102.87    1027.61      32.06
102.97     991.00      31.48
103.07     980.02      31.31
103.17     917.00      30.28
103.27     859.82      29.32
103.37     812.00      28.50
103.47     810.00      28.46
103.57     782.00      27.96
103.67     737.00      27.15
103.77     674.00      25.96
103.87     650.00      25.50
103.97     608.00      24.66
104.07     610.51      24.71
104.17     654.00      25.57
104.27     602.00      24.54
104.37     592.68      24.35
104.47     577.66      24.03
104.57     542.00      23.28
104.67     561.00      23.69
104.77     579.00      24.06
104.87     578.00      24.04
104.97     526.00      22.93
105.07     528.00      22.98
105.17     514.66      22.69
105.27     522.37      22.86
105.37     527.00      22.96
105.47     522.00      22.85
105.57     565.90      23.79
105.67     521.00      22.83
105.77     519.15      22.78
105.87     517.06      22.74
105.97     559.00      23.64
106.07     501.96      22.40
106.17     569.00      23.85
106.27     558.00      23.62
106.37     601.75      24.53
106.47     608.30      24.66
106.57     628.00      25.06
106.67     578.00      24.04
106.77     606.00      24.62
106.87     640.00      25.30
106.97     708.80      26.62
107.07     661.00      25.71
107.17     699.00      26.44
107.27     635.00      25.20
107.37     686.49      26.20
107.47     672.00      25.92
107.57     696.00      26.38
107.67     646.83      25.43
107.77     702.20      26.50
107.87     650.34      25.50
107.97     636.00      25.22
108.07     642.00      25.34
108.17     655.03      25.59
108.27     697.00      26.40
108.37     708.96      26.63
108.47     670.00      25.88
108.57     720.66      26.85
108.67     686.00      26.19
108.77     659.00      25.67
108.87     697.00      26.40
108.97     723.00      26.89
109.07     751.00      27.40
109.17     674.96      25.98
109.27     680.00      26.08
109.37     627.00      25.04
109.47     654.00      25.57
109.57     643.80      25.37
109.67     601.04      24.52
109.77     598.00      24.45
109.87     584.00      24.17
109.97     644.00      25.38
110.07     576.00      24.00
110.17     571.39      23.90
110.27     559.89      23.66
110.37     513.67      22.66
110.47     541.52      23.27
110.57     556.00      23.58
110.67     493.18      22.21
110.77     545.49      23.36
110.87     567.00      23.81
110.97     522.00      22.85
111.07     532.00      23.07
111.17     556.77      23.60
111.27     508.00      22.54
111.37     512.87      22.65
111.47     523.00      22.87
111.57     529.00      23.00
111.67     512.00      22.63
111.77     568.00      23.83
111.87     566.00      23.79
111.97     532.00      23.07
112.07     515.00      22.69
112.17     525.17      22.92
112.27     513.75      22.67
112.37     540.00      23.24
112.47     586.00      24.21
112.57     585.00      24.19
112.67     574.00      23.96
112.77     598.85      24.47
112.87     598.70      24.47
112.97     639.16      25.28
113.07     683.00      26.13
113.17     657.00      25.63
113.27     727.54      26.97
113.37     756.32      27.50
113.47     809.00      28.44
113.57     791.44      28.13
113.67     783.02      27.98
113.77     876.00      29.60
113.87     970.00      31.14
113.97     964.11      31.05
114.07     968.00      31.11
114.17    1068.00      32.68
114.27    1102.00      33.20
114.37    1245.00      35.28
114.47    1350.00      36.74
114.57    1422.07      37.71
114.67    1411.21      37.57
114.77    1615.00      40.19
114.87    1806.11      42.50
114.97    2033.00      45.09
115.07    2109.00      45.92
115.17    2360.00      48.58
115.27    2641.00      51.39
115.37    2764.33      52.58
115.47    3331.00      57.71
115.57    3606.14      60.05
115.67    3861.36      62.14
115.77    4137.00      64.32
115.87    4484.00      66.96
115.97    5108.70      71.48
116.07    5335.00      73.04
116.17    5710.00      75.56
116.27    6061.00      77.85
116.37    6417.00      80.11
116.47    6747.00      82.14
116.57    6993.00      83.62
116.67    7189.00      84.79
116.77    7187.00      84.78
116.87    7176.18      84.71
116.97    6782.00      82.35
117.07    6944.23      83.33
117.17    6513.00      80.70
117.27    6382.00      79.89
117.37    5900.63      76.82
117.47    5293.00      72.75
117.57    5287.93      72.72
117.67    4658.00      68.25
117.77    4456.00      66.75
117.87    4029.56      63.48
117.97    3542.80      59.52
118.07    3184.41      56.43
118.17    2929.06      54.12
118.27    2663.00      51.60
118.37    2240.11      47.33
118.47    2070.00      45.50
118.57    1756.00      41.90
118.67    1597.00      39.96
118.77    1385.00      37.22
118.87    1342.53      36.64
118.97    1130.00      33.62
119.07    1100.24      33.17
119.17     978.59      31.28
119.27     864.00      29.39
119.37     886.00      29.77
119.47     729.00      27.00
119.57     694.00      26.34
119.67     710.00      26.65
119.77     609.00      24.68
119.87     638.00      25.26
119.97     593.19      24.36
120.07     635.72      25.21
120.17     576.00      24.00
120.27     639.42      25.29
120.37     584.00      24.17
120.47     553.00      23.52
120.57     587.00      24.23
120.67     548.00      23.41
120.77     546.00      23.37
120.87     530.00      23.02
120.97     564.64      23.76
121.07     598.61      24.47
121.17     563.00      23.73
121.27     534.00      23.11
121.37     595.00      24.39
121.47     579.00      24.06
121.57     587.00      24.23
121.67     563.00      23.73
121.77     607.00      24.64
121.87     559.00      23.64
121.97     600.92      24.51
122.07     644.43      25.39
122.17     605.00      24.60
122.27     603.00      24.56
122.37     598.00      24.45
122.47     637.00      25.24
122.57     605.65      24.61
122.67     679.00      26.06
122.77     655.00      25.59
122.87     640.00      25.30
122.97     640.34      25.31
123.07     632.00      25.14
123.17     656.00      25.61
123.27     622.00      24.94
123.37     667.00      25.83
123.47     637.00      25.24
123.57     616.19      24.82
123.67     673.23      25.95
123.77     591.00      24.31
123.87     654.11      25.58
123.97     641.00      25.32
124.07     605.00      24.60
124.17     614.24      24.78
124.27     549.36      23.44
124.37     596.00      24.41
124.47     601.00      24.52
124.57     606.00      24.62
124.67     619.06      24.88
124.77     601.02      24.52
124.87     609.00      24.68
124.97     584.00      24.17
