  9.97     763.00      27.62
 10.07     774.00      27.82
 10.17     767.00      27.69
 10.27     788.26      28.08
 10.37     789.42      28.10
 10.47     762.00      27.60
 10.57     719.93      26.83
 10.67     789.00      28.09
 10.77     748.22      27.35
 10.87     749.00      27.37
 10.97     765.00      27.66
 11.07     747.00      27.33
 11.17     715.31      26.75
 11.27     743.00      27.26
 11.37     742.46      27.25
 11.47     725.63      26.94
 11.57     726.00      26.94
 11.67     719.05      26.82
 11.77     783.00      27.98
 11.87     794.00      28.18
 11.97     777.32      27.88
 12.07     861.00      29.34
 12.17     770.05      27.75
 12.27     906.00      30.10
 12.37     862.00      29.36
 12.47     802.00      28.32
 12.57     837.54      28.94
 12.67     770.71      27.76
 12.77     741.00      27.22
 12.87     768.33      27.72
 12.97     670.00      25.88
 13.07     687.00      26.21
 13.17     701.00      26.48
 13.27     694.00      26.34
 13.37     717.00      26.78
 13.47     686.77      26.21
 13.57     746.22      27.32
 13.67     742.00      27.24
 13.77     722.00      26.87
 13.87     714.00      26.72
 13.97     666.10      25.81
 14.07     667.28      25.83
 14.17     663.16      25.75
 14.27     724.00      26.91
 14.37     749.08      27.37
 14.47     699.00      26.44
 14.57     752.72      27.44
 14.67     671.83      25.92
 14.77     647.00      25.44
 14.87     674.00      25.96
 14.97     665.00      25.79
 15.07     693.00      26.32
 15.17     680.00      26.08
 15.27     691.00      26.29
 15.37     731.49      27.05
 15.47     660.00      25.69
 15.57     638.00      25.26
 15.67     745.00      27.29
 15.77     689.95      26.27
 15.87     671.00      25.90
 15.97     733.00      27.07
 16.07     720.43      26.84
 16.17     681.54      26.11
 16.27     658.61      25.66
 16.37     689.40      26.26
 16.47     687.00      26.21
 16.57     694.00      26.34
 16.67     672.00      25.92
 16.77     693.00      26.32
 16.87     654.00      25.57
 16.97     661.00      25.71
 17.07     641.00      25.32
 17.17     696.00      26.38
 17.27     713.87      26.72
 17.37     686.00      26.19
 17.47     671.00      25.90
 17.57     681.00      26.10
 17.67     722.00      26.87
 17.77     654.00      25.57
 17.87     673.00      25.94
 17.97     633.00      25.16
 18.07     654.00      25.57
 18.17     644.00      25.38
 18.27     657.00      25.63
 18.37     686.00      26.19
 18.47     720.00      26.83
 18.57     712.00      26.68
 18.67     665.00      25.79
 18.77     685.00      26.17
 18.87     665.00      25.79
 18.97     647.00      25.44
 19.07     710.81      26.66
 19.17     622.00      24.94
 19.27     639.75      25.29
 19.37     689.49      26.26
 19.47     631.00      25.12
 19.57     708.00      26.61
 19.67     659.00      25.67
 19.77     623.00      24.96
 19.87     640.05      25.30
 19.97     623.85      24.98
 20.07     704.92      26.55
 20.17     692.00      26.31
 20.27     660.00      25.69
 20.37     693.00      26.32
 20.47     648.00      25.46
 20.57     690.55      26.28
 20.67     631.00      25.12
 20.77     645.00      25.40
 20.87     643.13      25.36
 20.97     637.00      25.24
 21.07     684.36      26.16
 21.17     651.00      25.51
 21.27     618.00      24.86
 21.37     623.00      24.96
 21.47     694.00      26.34
 21.57     659.00      25.67
 21.67     673.75      25.96
 21.77     645.00      25.40
 21.87     651.00      25.51
 21.97     697.33      26.41
 22.07     660.00      25.69
 22.17     655.00      25.59
 22.27     664.00      25.77
 22.37     651.00      25.51
 22.47     622.00      24.94
 22.57     656.73      25.63
 22.67     640.00      25.30
 22.77     633.14      25.16
 22.87     643.00      25.36
 22.97     655.89      25.61
 23.07     671.24      25.91
 23.17     616.93      24.84
 23.27     618.43      24.87
 23.37     624.70      24.99
 23.47     694.00      26.34
 23.57     646.00      25.42
 23.67     628.00      25.06
 23.77     622.00      24.94
 23.87     615.18      24.80
 23.97     629.00      25.08
 24.07     650.34      25.50
 24.17     622.00      24.94
 24.27     650.41      25.50
 24.37     695.41      26.37
 24.47     671.00      25.90
 24.57     638.00      25.26
 24.67     657.00      25.63
 24.77     666.00      25.81
 24.87     712.00      26.68
 24.97     727.00      26.96
 25.07     694.91      26.36
 25.17     725.00      26.93
 25.27     785.00      28.02
 25.37     706.00      26.57
 25.47     710.00      26.65
 25.57     658.00      25.65
 25.67     640.82      25.31
 25.77     692.00      26.31
 25.87     696.00      26.38
 25.97     675.00      25.98
 26.07     678.60      26.05
 26.17     718.00      26.80
 26.27     680.00      26.08
 26.37     641.00      25.32
 26.47     695.26      26.37
 26.57     710.00      26.65
 26.67     731.43      27.05
 26.77     696.00      26.38
 26.87     745.94      27.31
 26.97     716.72      26.77
 27.07     711.00      26.66
 27.17     708.07      26.61
 27.27     709.00      26.63
 27.37     813.76      28.53
 27.47     774.00      27.82
 27.57     852.00      29.19
 27.67     910.77      30.18
 27.77     903.00      30.05
 27.87    1120.00      33.47
 27.97    1399.41      37.41
 28.07    2147.91      46.35
 28.17    3230.00      56.83
 28.27    5350.00      73.14
 28.37    7958.00      89.21
 28.47    9356.00      96.73
 28.57    8972.00      94.72
 28.67    7004.72      83.69
 28.77    5042.00      71.01
 28.87    3989.34      63.16
 28.97    4018.00      63.39
 29.07    4841.00      69.58
 29.17    5249.00      72.45
 29.27    4960.00      70.43
 29.37    3954.43      62.88
 29.47    2721.00      52.16
 29.57    1824.00      42.71
 29.67    1390.00      37.28
 29.77    1116.00      33.41
 29.87     986.25      31.40
 29.97     828.94      28.79
 30.07     893.00      29.88
 30.17     785.54      28.03
 30.27     782.00      27.96
 30.37     783.00      27.98
 30.47     745.82      27.31
 30.57     715.05      26.74
 30.67     761.02      27.59
 30.77     713.00      26.70
 30.87     753.23      27.45
 30.97     791.90      28.14
 31.07     747.73      27.34
 31.17     806.00      28.39
 31.27     799.00      28.27
 31.37     775.78      27.85
 31.47     745.00      27.29
 31.57     734.00      27.09
 31.67     729.00      27.00
 31.77     725.00      26.93
 31.87     672.53      25.93
 31.97     736.00      27.13
 32.07     691.35      26.29
 32.17     702.00      26.50
 32.27     686.00      26.19
 32.37     667.00      25.83
 32.47     674.24      25.97
 32.57     686.00      26.19
 32.67     698.00      26.42
 32.77     612.92      24.76
 32.87     668.51      25.86
 32.97     658.03      25.65
 33.07     697.00      26.40
 33.17     707.00      26.59
 33.27     672.00      25.92
 33.37     647.45      25.45
 33.47     716.00      26.76
 33.57     707.00      26.59
 33.67     703.06      26.52
 33.77     686.02      26.19
 33.87     780.00      27.93
 33.97     870.52      29.50
 34.07     997.06      31.58
 34.17    1131.00      33.63
 34.27    1247.00      35.31
 34.37    1355.00      36.81
 34.47    1332.00      36.50
 34.57    1150.00      33.91
 34.67     983.27      31.36
 34.77     878.00      29.63
 34.87     791.00      28.12
 34.97     760.00      27.57
 35.07     731.18      27.04
 35.17     729.00      27.00
 35.27     681.00      26.10
 35.37     646.00      25.42
 35.47     636.00      25.22
 35.57     684.00      26.15
 35.67     640.18      25.30
 35.77     686.36      26.20
 35.87     693.00      26.32
 35.97     633.00      25.16
 36.07     653.00      25.55
 36.17     628.62      25.07
 36.27     629.00      25.08
 36.37     627.05      25.04
 36.47     661.47      25.72
 36.57     605.00      24.60
 36.67     580.00      24.08
 36.77     627.00      25.04
 36.87     623.00      24.96
 36.97     598.00      24.45
 37.07     622.80      24.96
 37.17     623.67      24.97
 37.27     654.69      25.59
 37.37     653.00      25.55
 37.47     590.10      24.29
 37.57     646.06      25.42
 37.67     632.00      25.14
 37.77     609.97      24.70
 37.87     662.00      25.73
 37.97     709.00      26.63
 38.07     685.14      26.18
 38.17     747.24      27.34
 38.27     738.00      27.17
 38.37     820.14      28.64
 38.47     801.00      28.30
 38.57     789.00      28.09
 38.67     717.00      26.78
 38.77     742.73      27.25
 38.87     658.49      25.66
 38.97     661.36      25.72
 39.07     583.00      24.15
 39.17     614.00      24.78
 39.27     656.00      25.61
 39.37     604.00      24.58
 39.47     635.85      25.22
 39.57     584.00      24.17
 39.67     620.00      24.90
 39.77     599.00      24.47
 39.87     643.00      25.36
 39.97     647.00      25.44
 40.07     649.00      25.48
 40.17     652.00      25.53
 40.27     599.00      24.47
 40.37     581.00      24.10
 40.47     656.00      25.61
 40.57     619.00      24.88
 40.67     634.00      25.18
 40.77     655.23      25.60
 40.87     598.00      24.45
 40.97     603.00      24.56
 41.07     624.88      25.00
 41.17     582.01      24.12
 41.27     668.64      25.86
 41.37     639.00      25.28
 41.47     610.18      24.70
 41.57     613.00      24.76
 41.67     610.61      24.71
 41.77     631.00      25.12
 41.87     601.00      24.52
 41.97     615.95      24.82
 42.07     619.00      24.88
 42.17     594.00      24.37
 42.27     651.99      25.53
 42.37     643.36      25.36
 42.47     636.00      25.22
 42.57     624.93      25.00
 42.67     675.00      25.98
 42.77     684.00      26.15
 42.87     707.00      26.59
 42.97     732.08      27.06
 43.07     729.00      27.00
 43.17     715.00      26.74
 43.27     682.00      26.12
 43.37     643.00      25.36
 43.47     666.00      25.81
 43.57     633.00      25.16
 43.67     632.53      25.15
 43.77     648.39      25.46
 43.87     631.00      25.12
 43.97     664.00      25.77
 44.07     587.41      24.24
 44.17     663.00      25.75
 44.27     659.00      25.67
 44.37     647.00      25.44
 44.47     587.00      24.23
 44.57     630.00      25.10
 44.67     640.00      25.30
 44.77     650.00      25.50
 44.87     583.97      24.17
 44.97     635.68      25.21
 45.07     626.00      25.02
 45.17     581.12      24.11
 45.27     620.00      24.90
 45.37     636.00      25.22
 45.47     587.01      24.23
 45.57     616.78      24.84
 45.67     649.00      25.48
 45.77     620.00      24.90
 45.87     616.63      24.83
 45.97     667.22      25.83
 46.07     639.55      25.29
 46.17     596.00      24.41
 46.27     626.39      25.03
 46.37     651.00      25.51
 46.47     594.00      24.37
 46.57     612.00      24.74
 46.67     638.00      25.26
 46.77     627.00      25.04
 46.87     665.00      25.79
 46.97     648.00      25.46
 47.07     714.00      26.72
 47.17     646.13      25.42
 47.27     631.66      25.13
 47.37     625.46      25.01
 47.47     641.00      25.32
 47.57     678.18      26.04
 47.67     650.51      25.51
 47.77     663.00      25.75
 47.87     625.00      25.00
 47.97     669.00      25.87
 48.07     678.00      26.04
 48.17     686.00      26.19
 48.27     750.00      27.39
 48.37     777.20      27.88
 48.47     730.00      27.02
 48.57     702.13      26.50
 48.67     693.00      26.32
 48.77     660.00      25.69
 48.87     710.73      26.66
 48.97     665.00      25.79
 49.07     660.00      25.69
 49.17     688.00      26.23
 49.27     673.63      25.95
 49.37     680.00      26.08
 49.47     695.00      26.36
 49.57     663.00      25.75
 49.67     707.00      26.59
 49.77     744.85      27.29
 49.87     816.00      28.57
 49.97     964.85      31.06
 50.07    1231.04      35.09
 50.17    1461.00      38.22
 50.27    1806.00      42.50
 50.37    2455.00      49.55
 50.47    2881.13      53.68
 50.57    3260.00      57.10
 50.67    3218.00      56.73
 50.77    3122.45      55.88
 50.87    2656.00      51.54
 50.97    2088.63      45.70
 51.07    1607.00      40.09
 51.17    1256.00      35.44
 51.27    1024.39      32.01
 51.37     906.00      30.10
 51.47     808.00      28.43
 51.57     837.00      28.93
 51.67     778.00      27.89
 51.77     787.00      28.05
 51.87     780.00      27.93
 51.97     693.34      26.33
 52.07     713.00      26.70
 52.17     731.00      27.04
 52.27     780.00      27.93
 52.37     699.00      26.44
 52.47     706.00      26.57
 52.57     706.85      26.59
 52.67     716.00      26.76
 52.77     709.34      26.63
 52.87     693.00      26.32
 52.97     681.22      26.10
 53.07     683.41      26.14
 53.17     745.00      27.29
 53.27     762.00      27.60
 53.37     824.00      28.71
 53.47     810.60      28.47
 53.57     896.00      29.93
 53.67    1002.00      31.65
 53.77    1153.00      33.96
 53.87    1276.00      35.72
 53.97    1387.08      37.24
 54.07    1395.41      37.36
 54.17    1291.03      35.93
 54.27    1287.11      35.88
 54.37    1166.00      34.15
 54.47    1072.00      32.74
 54.57     854.78      29.24
 54.67     814.03      28.53
 54.77     760.00      27.57
 54.87     792.52      28.15
 54.97     729.00      27.00
 55.07     744.89      27.29
 55.17     678.00      26.04
 55.27     668.00      25.85
 55.37     732.46      27.06
 55.47     723.00      26.89
 55.57     700.00      26.46
 55.67     679.46      26.07
 55.77     703.00      26.51
 55.87     732.63      27.07
 55.97     710.00      26.65
 56.07     710.51      26.66
 56.17     725.00      26.93
 56.27     728.63      26.99
 56.37     802.75      28.33
 56.47     779.00      27.91
 56.57     852.00      29.19
 56.67     935.00      30.58
 56.77    1150.00      33.91
 56.87    1378.00      37.12
 56.97    1724.43      41.53
 57.07    1949.45      44.15
 57.17    2402.00      49.01
 57.27    2747.00      52.41
 57.37    2818.24      53.09
 57.47    2735.95      52.31
 57.57    2558.00      50.58
 57.67    2170.59      46.59
 57.77    1856.96      43.09
 57.87    1556.00      39.45
 57.97    1357.00      36.84
 58.07    1143.66      33.82
 58.17     956.00      30.92
 58.27     978.00      31.27
 58.37     863.00      29.38
 58.47     813.00      28.51
 58.57     832.00      28.84
 58.67     820.00      28.64
 58.77     905.83      30.10
 58.87     977.48      31.26
 58.97    1009.00      31.76
 59.07    1154.89      33.98
 59.17    1236.00      35.16
 59.27    1200.00      34.64
 59.37    1376.57      37.10
 59.47    1339.00      36.59
 59.57    1392.00      37.31
 59.67    1363.00      36.92
 59.77    1303.00      36.10
 59.87    1321.95      36.36
 59.97    1296.00      36.00
 60.07    1262.00      35.52
 60.17    1233.00      35.11
 60.27    1352.00      36.77
 60.37    1370.00      37.01
 60.47    1596.00      39.95
 60.57    1579.00      39.74
 60.67    1669.00      40.85
 60.77    1701.55      41.25
 60.87    1660.00      40.74
 60.97    1564.00      39.55
 61.07    1463.00      38.25
 61.17    1301.91      36.08
 61.27    1106.00      33.26
 61.37    1000.00      31.62
 61.47     952.00      30.85
 61.57     911.83      30.20
 61.67     803.90      28.35
 61.77     892.00      29.87
 61.87     874.00      29.56
 61.97     937.18      30.61
 62.07     976.00      31.24
 62.17    1129.00      33.60
 62.27    1286.00      35.86
 62.37    1458.00      38.18
 62.47    1618.00      40.22
 62.57    1719.00      41.46
 62.67    1983.57      44.54
 62.77    1871.18      43.26
 62.87    1862.00      43.15
 62.97    1721.00      41.48
 63.07    1571.00      39.64
 63.17    1369.00      37.00
 63.27    1181.00      34.37
 63.37    1069.00      32.70
 63.47     936.00      30.59
 63.57     900.62      30.01
 63.67     804.00      28.35
 63.77     817.00      28.58
 63.87     813.24      28.52
 63.97     749.00      27.37
 64.07     763.00      27.62
 64.17     716.00      26.76
 64.27     819.00      28.62
 64.37     862.01      29.36
 64.47     830.53      28.82
 64.57     925.48      30.42
 64.67    1041.00      32.26
 64.77    1117.90      33.44
 64.87    1241.00      35.23
 64.97    1429.00      37.80
 65.07    1497.00      38.69
 65.17    1648.00      40.60
 65.27    1778.00      42.17
 65.37    1724.00      41.52
 65.47    1622.00      40.27
 65.57    1526.00      39.06
 65.67    1467.00      38.30
 65.77    1319.00      36.32
 65.87    1097.00      33.12
 65.97    1022.50      31.98
 66.07     973.16      31.20
 66.17     974.74      31.22
 66.27     869.31      29.48
 66.37     774.00      27.82
 66.47     794.00      28.18
 66.57     771.30      27.77
 66.67     741.09      27.22
 66.77     662.00      25.73
 66.87     711.00      26.66
 66.97     785.81      28.03
 67.07     679.00      26.06
 67.17     760.17      27.57
 67.27     748.00      27.35
 67.37     730.00      27.02
 67.47     704.00      26.53
 67.57     758.00      27.53
 67.67     868.00      29.46
 67.77     873.00      29.55
 67.87    1039.07      32.23
 67.97    1052.00      32.43
 68.07    1294.99      35.99
 68.17    1475.00      38.41
 68.27    1708.00      41.33
 68.37    1930.00      43.93
 68.47    2112.00      45.96
 68.57    2365.36      48.64
 68.67    2551.19      50.51
 68.77    2650.47      51.48
 68.87    2587.00      50.86
 68.97    2333.00      48.30
 69.07    2156.22      46.44
 69.17    1939.00      44.03
 69.27    1659.00      40.73
 69.37    1444.00      38.00
 69.47    1202.09      34.67
 69.57    1039.74      32.24
 69.67    1065.00      32.63
 69.77     991.00      31.48
 69.87     860.53      29.33
 69.97     928.00      30.46
 70.07     808.00      28.43
 70.17     754.82      27.47
 70.27     735.56      27.12
 70.37     777.00      27.87
 70.47     774.00      27.82
 70.57     718.00      26.80
 70.67     762.65      27.62
 70.77     753.64      27.45
 70.87     713.00      26.70
 70.97     742.00      27.24
 71.07     755.01      27.48
 71.17     707.51      26.60
 71.27     763.57      27.63
 71.37     735.00      27.11
 71.47     741.00      27.22
 71.57     775.00      27.84
 71.67     852.00      29.19
 71.77     934.00      30.56
 71.87     951.00      30.84
 71.97    1018.00      31.91
 72.07    1119.00      33.45
 72.17    1330.00      36.47
 72.27    1528.91      39.10
 72.37    1648.00      40.60
 72.47    1865.00      43.19
 72.57    2031.70      45.07
 72.67    1962.95      44.31
 72.77    2044.00      45.21
 72.87    2007.00      44.80
 72.97    1842.00      42.92
 73.07    1795.00      42.37
 73.17    1642.00      40.52
 73.27    1409.00      37.54
 73.37    1209.00      34.77
 73.47    1055.00      32.48
 73.57    1023.00      31.98
 73.67     925.00      30.41
 73.77     846.00      29.09
 73.87     807.00      28.41
 73.97     782.84      27.98
 74.07     821.00      28.65
 74.17     711.41      26.67
 74.27     697.11      26.40
 74.37     686.00      26.19
 74.47     726.00      26.94
 74.57     717.00      26.78
 74.67     666.42      25.82
 74.77     684.00      26.15
 74.87     667.32      25.83
 74.97     699.00      26.44
 75.07     682.00      26.12
 75.17     677.16      26.02
 75.27     764.00      27.64
 75.37     753.50      27.45
 75.47     747.00      27.33
 75.57     734.77      27.11
 75.67     734.00      27.09
 75.77     737.00      27.15
 75.87     720.00      26.83
 75.97     758.77      27.55
 76.07     714.00      26.72
 76.17     674.08      25.96
 76.27     702.45      26.50
 76.37     724.40      26.91
 76.47     782.00      27.96
 76.57     830.79      28.82
 76.67     832.00      28.84
 76.77     870.00      29.50
 76.87     907.00      30.12
 76.97     935.22      30.58
 77.07    1004.00      31.69
 77.17    1074.09      32.77
 77.27    1092.00      33.05
 77.37    1151.23      33.93
 77.47    1043.82      32.31
 77.57    1009.76      31.78
 77.67     945.00      30.74
 77.77    1003.00      31.67
 77.87     882.00      29.70
 77.97     832.41      28.85
 78.07     763.00      27.62
 78.17     714.00      26.72
 78.27     764.09      27.64
 78.37     733.00      27.07
 78.47     716.00      26.76
 78.57     733.21      27.08
 78.67     657.00      25.63
 78.77     714.62      26.73
 78.87     654.00      25.57
 78.97     630.00      25.10
 79.07     621.00      24.92
 79.17     626.09      25.02
 79.27     636.00      25.22
 79.37     678.00      26.04
 79.47     690.74      26.28
 79.57     618.00      24.86
 79.67     620.01      24.90
 79.77     662.00      25.73
 79.87     635.00      25.20
 79.97     638.00      25.26
 80.07     676.00      26.00
 80.17     708.95      26.63
 80.27     698.00      26.42
 80.37     696.00      26.38
 80.47     685.00      26.17
 80.57     675.00      25.98
 80.67     751.00      27.40
 80.77     753.38      27.45
 80.87     790.05      28.11
 80.97     867.00      29.44
 81.07     966.73      31.09
 81.17    1093.78      33.07
 81.27    1195.00      34.57
 81.37    1239.00      35.20
 81.47    1347.00      36.70
 81.57    1381.19      37.16
 81.67    1446.97      38.04
 81.77    1580.00      39.75
 81.87    1594.00      39.92
 81.97    1542.11      39.27
 82.07    1530.65      39.12
 82.17    1556.00      39.45
 82.27    1448.00      38.05
 82.37    1317.00      36.29
 82.47    1299.29      36.05
 82.57    1193.00      34.54
 82.67    1119.00      33.45
 82.77    1018.00      31.91
 82.87     908.88      30.15
 82.97     887.00      29.78
 83.07     832.12      28.85
 83.17     785.73      28.03
 83.27     768.00      27.71
 83.37     753.00      27.44
 83.47     758.00      27.53
 83.57     710.99      26.66
 83.67     685.45      26.18
 83.77     628.00      25.06
 83.87     674.48      25.97
 83.97     686.00      26.19
 84.07     649.00      25.48
 84.17     733.26      27.08
 84.27     664.00      25.77
 84.37     728.72      26.99
 84.47     722.07      26.87
 84.57     672.00      25.92
 84.67     730.64      27.03
 84.77     767.38      27.70
 84.87     750.00      27.39
 84.97     722.57      26.88
 85.07     733.01      27.07
 85.17     701.00      26.48
 85.27     696.00      26.38
 85.37     702.00      26.50
 85.47     687.00      26.21
 85.57     677.00      26.02
 85.67     680.00      26.08
 85.77     634.00      25.18
 85.87     643.00      25.36
 85.97     654.00      25.57
 86.07     641.45      25.33
 86.17     613.00      24.76
 86.27     615.31      24.81
 86.37     657.00      25.63
 86.47     673.37      25.95
 86.57     658.00      25.65
 86.67     675.18      25.98
 86.77     635.00      25.20
 86.87     641.00      25.32
 86.97     695.72      26.38
 87.07     768.00      27.71
 87.17     676.49      26.01
 87.27     709.00      26.63
 87.37     689.00      26.25
 87.47     670.82      25.90
 87.57     716.00      26.76
 87.67     747.00      27.33
 87.77     747.00      27.33
 87.87     771.26      27.77
 87.97     731.00      27.04
 88.07     766.00      27.68
 88.17     754.00      27.46
 88.27     708.94      26.63
 88.37     834.00      28.88
 88.47     742.00      27.24
 88.57     762.00      27.60
 88.67     762.00      27.60
 88.77     728.00      26.98
 88.87     775.00      27.84
 88.97     756.29      27.50
 89.07     706.00      26.57
 89.17     690.00      26.27
 89.27     694.00      26.34
 89.37     725.14      26.93
 89.47     723.50      26.90
 89.57     692.00      26.31
 89.67     690.00      26.27
 89.77     693.00      26.32
 89.87     718.00      26.80
 89.97     683.96      26.15
 90.07     767.00      27.69
 90.17     653.39      25.56
 90.27     695.00      26.36
 90.37     752.00      27.42
 90.47     661.62      25.72
 90.57     712.94      26.70
 90.67     716.63      26.77
 90.77     721.05      26.85
 90.87     709.51      26.64
 90.97     658.00      25.65
 91.07     669.12      25.87
 91.17     655.00      25.59
 91.27     657.00      25.63
 91.37     638.62      25.27
 91.47     650.00      25.50
 91.57     620.24      24.90
 91.67     590.00      24.29
 91.77     567.00      23.81
 91.87     605.00      24.60
 91.97     626.24      25.02
 92.07     644.00      25.38
 92.17     607.27      24.64
 92.27     667.00      25.83
 92.37     612.55      24.75
 92.47     644.32      25.38
 92.57     606.00      24.62
 92.67     612.00      24.74
 92.77     670.00      25.88
 92.87     636.00      25.22
 92.97     695.70      26.38
 93.07     703.00      26.51
 93.17     693.71      26.34
 93.27     683.00      26.13
 93.37     705.19      26.56
 93.47     739.00      27.18
 93.57     726.44      26.95
 93.67     734.00      27.09
 93.77     788.00      28.07
 93.87     771.79      27.78
 93.97     872.16      29.53
 94.07     858.79      29.31
 94.17     856.64      29.27
 94.27     904.00      30.07
 94.37     936.00      30.59
 94.47     954.06      30.89
 94.57     892.16      29.87
 94.67     913.00      30.22
 94.77     905.00      30.08
 94.87     940.00      30.66
 94.97     984.00      31.37
 95.07    1025.00      32.02
 95.17    1010.00      31.78
 95.27    1060.03      32.56
 95.37    1086.00      32.95
 95.47    1090.00      33.02
 95.57    1140.00      33.76
 95.67    1082.00      32.89
 95.77    1116.00      33.41
 95.87    1085.00      32.94
 95.97    1066.00      32.65
 96.07    1095.41      33.10
 96.17    1010.00      31.78
 96.27    1015.00      31.86
 96.37    1037.00      32.20
 96.47     969.00      31.13
 96.57     889.00      29.82
 96.67     897.07      29.95
 96.77     802.68      28.33
 96.87     821.00      28.65
 96.97     836.02      28.91
 97.07     864.23      29.40
 97.17     920.15      30.33
 97.27     935.00      30.58
 97.37     922.00      30.36
 97.47     994.00      31.53
 97.57    1031.00      32.11
 97.67    1105.00      33.24
 97.77    1191.00      34.51
 97.87    1279.29      35.77
 97.97    1233.39      35.12
 98.07    1424.00      37.74
 98.17    1508.72      38.84
 98.27    1632.00      40.40
 98.37    1565.00      39.56
 98.47    1637.00      40.46
 98.57    1581.00      39.76
 98.67    1646.00      40.57
 98.77    1621.00      40.26
 98.87    1593.52      39.92
 98.97    1529.00      39.10
 99.07    1414.16      37.61
 99.17    1299.00      36.04
 99.27    1394.00      37.34
 99.37    1312.00      36.22
 99.47    1211.54      34.81
 99.57    1160.00      34.06
 99.67    1134.62      33.68
 99.77    1144.20      33.83
 99.87    1090.00      33.02
 99.97     999.00      31.61
100.07    1070.00      32.71
100.17    1081.43      32.89
100.27    1094.00      33.08
100.37    1168.00      34.18
100.47    1121.79      33.49
100.57    1216.00      34.87
100.67    1326.00      36.41
100.77    1422.00      37.71
100.87    1455.72      38.15
100.97    1597.49      39.97
101.07    1711.00      41.36
101.17    1733.94      41.64
101.27    1815.24      42.61
101.37    1939.50      44.04
101.47    2055.00      45.33
101.57    2101.00      45.84
101.67    2105.00      45.88
101.77    2111.00      45.95
101.87    2097.77      45.80
101.97    2152.00      46.39
102.07    2104.00      45.87
102.17    2115.00      45.99
102.27    2088.81      45.70
102.37    1983.00      44.53
102.47    1971.00      44.40
102.57    1917.00      43.78
102.67    1848.00      42.99
102.77    1730.00      41.59
102.87    1738.00      41.69
102.97    1604.00      40.05
103.07    1622.40      40.28
103.17    1455.00      38.14
103.27    1532.77      39.15
103.37    1440.88      37.96
103.47    1452.00      38.11
103.57    1352.00      36.77
103.67    1266.00      35.58
103.77    1350.87      36.75
103.87    1274.18      35.70
103.97    1296.23      36.00
104.07    1205.00      34.71
104.17    1115.87      33.40
104.27    1086.18      32.96
104.37    1035.79      32.18
104.47     998.00      31.59
104.57    1015.68      31.87
104.67     960.00      30.98
104.77     851.23      29.18
104.87     881.00      29.68
104.97     787.10      28.06
105.07     781.74      27.96
105.17     722.00      26.87
105.27     713.43      26.71
105.37     769.00      27.73
105.47     685.71      26.19
105.57     659.00      25.67
105.67     695.00      26.36
105.77     705.18      26.56
105.87     673.25      25.95
105.97     686.00      26.19
106.07     634.00      25.18
106.17     665.00      25.79
106.27     682.13      26.12
106.37     664.23      25.77
106.47     691.00      26.29
106.57     594.04      24.37
106.67     602.73      24.55
106.77     604.31      24.58
106.87     679.00      26.06
106.97     666.00      25.81
107.07     662.42      25.74
107.17     633.38      25.17
107.27     661.00      25.71
107.37     715.00      26.74
107.47     690.34      26.27
107.57     671.60      25.92
107.67     724.81      26.92
107.77     767.00      27.69
107.87     729.00      27.00
107.97     812.19      28.50
108.07     794.00      28.18
108.17     819.00      28.62
108.27     728.00      26.98
108.37     858.40      29.30
108.47     828.00      28.77
108.57     813.00      28.51
108.67     808.01      28.43
108.77     857.14      29.28
108.87     801.00      28.30
108.97     849.31      29.14
109.07     835.00      28.90
109.17     867.59      29.45
109.27     808.00      28.43
109.37     784.00      28.00
109.47     789.00      28.09
109.57     812.88      28.51
109.67     764.32      27.65
109.77     760.00      27.57
109.87     864.39      29.40
109.97     774.02      27.82
110.07     845.79      29.08
110.17     763.00      27.62
110.27     774.00      27.82
110.37     817.00      28.58
110.47     845.77      29.08
110.57     810.00      28.46
110.67     747.00      27.33
110.77     749.41      27.38
110.87     812.00      28.50
110.97     821.21      28.66
111.07     819.00      28.62
111.17     724.60      26.92
111.27     748.00      27.35
111.37     679.56      26.07
111.47     711.39      26.67
111.57     733.00      27.07
111.67     646.24      25.42
111.77     713.37      26.71
111.87     680.00      26.08
111.97     667.00      25.83
112.07     637.84      25.26
112.17     680.21      26.08
112.27     656.00      25.61
112.37     697.97      26.42
112.47     633.60      25.17
112.57     650.00      25.50
112.67     675.00      25.98
112.77     661.59      25.72
112.87     654.00      25.57
112.97     704.00      26.53
113.07     667.00      25.83
113.17     699.00      26.44
113.27     654.00      25.57
113.37     643.00      25.36
113.47     686.00      26.19
113.57     684.00      26.15
113.67     632.00      25.14
113.77     651.00      25.51
113.87     691.00      26.29
113.97     635.00      25.20
114.07     677.48      26.03
114.17     722.00      26.87
114.27     642.85      25.35
114.37     742.08      27.24
114.47     722.00      26.87
114.57     674.00      25.96
114.67     718.00      26.80
114.77     706.78      26.59
114.87     718.79      26.81
114.97     770.00      27.75
115.07     813.00      28.51
115.17     875.78      29.59
115.27     856.00      29.26
115.37     948.00      30.79
115.47     978.00      31.27
115.57    1058.00      32.53
115.67    1195.53      34.58
115.77    1293.00      35.96
115.87    1440.00      37.95
115.97    1650.00      40.62
116.07    1747.00      41.80
116.17    1942.99      44.08
116.27    2264.00      47.58
116.37    2522.00      50.22
116.47    2808.00      52.99
116.57    3076.00      55.46
116.67    3271.89      57.20
116.77    3672.48      60.60
116.87    3983.00      63.11
116.97    4398.00      66.32
117.07    4992.82      70.66
117.17    5136.00      71.67
117.27    5787.45      76.08
117.37    6003.00      77.48
117.47    6322.53      79.51
117.57    6745.00      82.13
117.67    7275.00      85.29
117.77    7120.18      84.38
117.87    7466.00      86.41
117.97    7516.00      86.69
118.07    7495.00      86.57
118.17    7541.00      86.84
118.27    7593.00      87.14
118.37    7520.00      86.72
118.47    7363.56      85.81
118.57    6879.00      82.94
118.67    6621.00      81.37
118.77    6111.00      78.17
118.87    5884.22      76.71
118.97    5502.00      74.18
119.07    5196.67      72.09
119.17    4709.30      68.62
119.27    4475.00      66.90
119.37    4181.68      64.67
119.47    3790.00      61.56
119.57    3314.33      57.57
119.67    3028.01      55.03
119.77    2749.50      52.44
119.87    2563.89      50.63
119.97    2402.00      49.01
120.07    2079.00      45.60
120.17    1831.00      42.79
120.27    1731.85      41.62
120.37    1582.00      39.77
120.47    1480.00      38.47
120.57    1421.00      37.70
120.67    1200.19      34.64
120.77    1194.00      34.55
120.87    1129.37      33.61
120.97    1061.20      32.58
121.07     975.97      31.24
121.17     969.40      31.14
121.27     918.00      30.30
121.37     874.00      29.56
121.47     830.00      28.81
121.57     857.62      29.29
121.67     783.00      27.98
121.77     743.17      27.26
121.87     747.00      27.33
121.97     801.00      28.30
122.07     714.00      26.72
122.17     776.04      27.86
122.27     761.78      27.60
122.37     699.00      26.44
122.47     711.00      26.66
122.57     699.00      26.44
122.67     776.00      27.86
122.77     772.92      27.80
122.87     727.00      26.96
122.97     717.00      26.78
123.07     770.20      27.75
123.17     704.74      26.55
123.27     717.48      26.79
123.37     811.74      28.49
123.47     699.00      26.44
123.57     753.43      27.45
123.67     801.00      28.30
123.77     786.69      28.05
123.87     826.42      28.75
123.97     771.00      27.77
124.07     846.01      29.09
124.17     811.00      28.48
124.27     867.00      29.44
124.37     816.84      28.58
124.47     869.00      29.48
124.57     817.79      28.60
124.67     855.00      29.24
124.77     785.00      28.02
124.87     766.88      27.69
124.97     813.78      28.53
