  9.97     626.00      25.02
 10.07     574.00      23.96
 10.17     605.00      24.60
 10.27     586.00      24.21
 10.37     646.00      25.42
 10.47     601.27      24.52
 10.57     594.00      24.37
 10.67     607.00      24.64
 10.77     556.00      23.58
 10.87     581.00      24.10
 10.97     614.00      24.78
 11.07     525.97      22.93
 11.17     567.00      23.81
 11.27     592.00      24.33
 11.37     584.96      24.19
 11.47     603.59      24.57
 11.57     580.00      24.08
 11.67     551.72      23.49
 11.77     593.95      24.37
 11.87     635.19      25.20
 11.97     652.00      25.53
 12.07     723.07      26.89
 12.17     672.00      25.92
 12.27     717.53      26.79
 12.37     706.60      26.58
 12.47     615.00      24.80
 12.57     619.00      24.88
 12.67     582.00      24.12
 12.77     605.00      24.60
 12.87     557.00      23.60
 12.97     598.76      24.47
 13.07     537.00      23.17
 13.17     624.00      24.98
 13.27     609.04      24.68
 13.37     543.00      23.30
 13.47     586.00      24.21
 13.57     543.00      23.30
 13.67     568.00      23.83
 13.77     557.00      23.60
 13.87     583.26      24.15
 13.97     553.00      23.52
 14.07     587.70      24.24
 14.17     528.60      22.99
 14.27     600.10      24.50
 14.37     552.70      23.51
 14.47     572.00      23.92
 14.57     612.91      24.76
 14.67     579.00      24.06
 14.77     533.00      23.09
 14.87     578.00      24.04
 14.97     525.62      22.93
 15.07     570.00      23.87
 15.17     549.00      23.43
 15.27     527.71      22.97
 15.37     568.47      23.84
 15.47     569.00      23.85
 15.57     557.00      23.60
 15.67     547.00      23.39
 15.77     575.00      23.98
 15.87     575.04      23.98
 15.97     601.33      24.52
 16.07     577.00      24.02
 16.17     607.00      24.64
 16.27     578.85      24.06
 16.37     581.00      24.10
 16.47     560.00      23.66
 16.57     585.46      24.20
 16.67     535.00      23.13
 16.77     516.00      22.72
 16.87     562.00      23.71
 16.97     548.00      23.41
 17.07     566.00      23.79
 17.17     611.00      24.72
 17.27     611.81      24.73
 17.37     520.85      22.82
 17.47     579.00      24.06
 17.57     566.18      23.79
 17.67     523.00      22.87
 17.77     585.79      24.20
 17.87     520.00      22.80
 17.97     561.51      23.70
 18.07     535.00      23.13
 18.17     552.00      23.49
 18.27     579.14      24.07
 18.37     602.83      24.55
 18.47     569.02      23.85
 18.57     587.00      24.23
 18.67     531.00      23.04
 18.77     564.00      23.75
 18.87     551.00      23.47
 18.97     573.00      23.94
 19.07     603.16      24.56
 19.17     534.00      23.11
 19.27     571.84      23.91
 19.37     595.00      24.39
 19.47     555.00      23.56
 19.57     570.00      23.87
 19.67     541.62      23.27
 19.77     539.00      23.22
 19.87     512.00      22.63
 19.97     554.00      23.54
 20.07     602.28      24.54
 20.17     576.34      24.01
 20.27     529.58      23.01
 20.37     537.43      23.18
 20.47     527.00      22.96
 20.57     552.00      23.49
 20.67     543.00      23.30
 20.77     582.01      24.12
 20.87     584.89      24.18
 20.97     558.00      23.62
 21.07     532.07      23.07
 21.17     533.00      23.09
 21.27     520.40      22.81
 21.37     535.00      23.13
 21.47     564.00      23.75
 21.57     554.00      23.54
 21.67     547.00      23.39
 21.77     558.00      23.62
 21.87     585.47      24.20
 21.97     567.00      23.81
 22.07     560.00      23.66
 22.17     578.00      24.04
 22.27     552.00      23.49
 22.37     556.51      23.59
 22.47     536.00      23.15
 22.57     564.35      23.76
 22.67     564.00      23.75
 22.77     507.00      22.52
 22.87     537.86      23.19
 22.97     580.28      24.09
 23.07     536.00      23.15
 23.17     544.00      23.32
 23.27     587.00      24.23
 23.37     526.83      22.95
 23.47     593.58      24.36
 23.57     569.00      23.85
 23.67     564.42      23.76
 23.77     547.00      23.39
 23.87     571.00      23.90
 23.97     581.82      24.12
 24.07     580.00      24.08
 24.17     557.00      23.60
 24.27     591.00      24.31
 24.37     571.00      23.90
 24.47     589.87      24.29
 24.57     567.46      23.82
 24.67     647.00      25.44
 24.77     635.00      25.20
 24.87     592.93      24.35
 24.97     581.35      24.11
 25.07     593.00      24.35
 25.17     547.00      23.39
 25.27     561.00      23.69
 25.37     604.00      24.58
 25.47     559.00      23.64
 25.57     505.13      22.48
 25.67     503.09      22.43
 25.77     576.00      24.00
 25.87     555.00      23.56
 25.97     553.24      23.52
 26.07     542.07      23.28
 26.17     529.00      23.00
 26.27     560.96      23.68
 26.37     598.00      24.45
 26.47     573.00      23.94
 26.57     514.34      22.68
 26.67     573.00      23.94
 26.77     559.95      23.66
 26.87     570.44      23.88
 26.97     526.00      22.93
 27.07     564.96      23.77
 27.17     538.00      23.19
 27.27     603.00      24.56
 27.37     564.00      23.75
 27.47     542.00      23.28
 27.57     536.00      23.15
 27.67     580.56      24.09
 27.77     574.00      23.96
 27.87     544.45      23.33
 27.97     682.98      26.13
 28.07     739.00      27.18
 28.17     958.21      30.95
 28.27     918.48      30.31
 28.37     916.05      30.27
 28.47     773.00      27.80
 28.57     717.00      26.78
 28.67     690.00      26.27
 28.77     710.00      26.65
 28.87     763.00      27.62
 28.97     851.00      29.17
 29.07     824.00      28.71
 29.17     686.69      26.20
 29.27     666.77      25.82
 29.37     558.53      23.63
 29.47     542.20      23.29
 29.57     626.00      25.02
 29.67     627.00      25.04
 29.77     598.20      24.46
 29.87     619.00      24.88
 29.97     587.00      24.23
 30.07     599.00      24.47
 30.17     565.00      23.77
 30.27     551.00      23.47
 30.37     536.00      23.15
 30.47     588.00      24.25
 30.57     614.00      24.78
 30.67     585.00      24.19
 30.77     606.00      24.62
 30.87     574.74      23.97
 30.97     600.00      24.49
 31.07     556.42      23.59
 31.17     626.75      25.04
 31.27     520.99      22.83
 31.37     586.80      24.22
 31.47     569.00      23.85
 31.57     526.80      22.95
 31.67     491.14      22.16
 31.77     553.00      23.52
 31.87     544.00      23.32
 31.97     507.78      22.53
 32.07     511.00      22.61
 32.17     556.00      23.58
 32.27     556.00      23.58
 32.37     594.00      24.37
 32.47     543.00      23.30
 32.57     564.00      23.75
 32.67     512.78      22.64
 32.77     520.00      22.80
 32.87     529.00      23.00
 32.97     522.00      22.85
 33.07     580.00      24.08
 33.17     561.15      23.69
 33.27     551.89      23.49
 33.37     591.00      24.31
 33.47     513.00      22.65
 33.57     590.00      24.29
 33.67     625.41      25.01
 33.77     777.00      27.87
 33.87     892.00      29.87
 33.97     985.00      31.38
 34.07    1028.00      32.06
 34.17     998.83      31.60
 34.27     868.00      29.46
 34.37     726.00      26.94
 34.47     647.00      25.44
 34.57     554.77      23.55
 34.67     549.82      23.45
 34.77     529.00      23.00
 34.87     538.00      23.19
 34.97     564.00      23.75
 35.07     548.00      23.41
 35.17     528.00      22.98
 35.27     549.16      23.43
 35.37     479.00      21.89
 35.47     530.00      23.02
 35.57     480.72      21.93
 35.67     515.52      22.71
 35.77     534.86      23.13
 35.87     532.07      23.07
 35.97     519.51      22.79
 36.07     480.43      21.92
 36.17     495.00      22.25
 36.27     527.00      22.96
 36.37     488.00      22.09
 36.47     507.00      22.52
 36.57     525.00      22.91
 36.67     515.00      22.69
 36.77     525.01      22.91
 36.87     482.34      21.96
 36.97     543.28      23.31
 37.07     523.41      22.88
 37.17     526.00      22.93
 37.27     506.00      22.49
 37.37     508.00      22.54
 37.47     504.00      22.45
 37.57     511.00      22.61
 37.67     503.00      22.43
 37.77     530.00      23.02
 37.87     530.00      23.02
 37.97     501.00      22.38
 38.07     511.00      22.61
 38.17     545.45      23.35
 38.27     470.00      21.68
 38.37     527.82      22.97
 38.47     502.00      22.41
 38.57     500.00      22.36
 38.67     497.00      22.29
 38.77     489.00      22.11
 38.87     516.88      22.74
 38.97     474.52      21.78
 39.07     489.00      22.11
 39.17     534.00      23.11
 39.27     532.00      23.07
 39.37     520.00      22.80
 39.47     506.00      22.49
 39.57     531.49      23.05
 39.67     553.36      23.52
 39.77     521.00      22.83
 39.87     521.88      22.84
 39.97     521.18      22.83
 40.07     491.00      22.16
 40.17     512.77      22.64
 40.27     539.00      23.22
 40.37     486.43      22.06
 40.47     518.00      22.76
 40.57     522.00      22.85
 40.67     522.00      22.85
 40.77     501.00      22.38
 40.87     485.00      22.02
 40.97     495.99      22.27
 41.07     507.00      22.52
 41.17     451.00      21.24
 41.27     520.54      22.82
 41.37     451.00      21.24
 41.47     482.29      21.96
 41.57     518.00      22.76
 41.67     529.39      23.01
 41.77     489.33      22.12
 41.87     492.00      22.18
 41.97     521.00      22.83
 42.07     517.00      22.74
 42.17     493.62      22.22
 42.27     533.00      23.09
 42.37     570.00      23.87
 42.47     550.29      23.46
 42.57     662.02      25.73
 42.67     588.00      24.25
 42.77     590.00      24.29
 42.87     637.64      25.25
 42.97     559.25      23.65
 43.07     533.00      23.09
 43.17     529.00      23.00
 43.27     465.00      21.56
 43.37     514.00      22.67
 43.47     510.96      22.60
 43.57     508.31      22.55
 43.67     478.00      21.86
 43.77     486.85      22.06
 43.87     516.00      22.72
 43.97     501.00      22.38
 44.07     541.74      23.28
 44.17     505.06      22.47
 44.27     458.00      21.40
 44.37     528.70      22.99
 44.47     487.00      22.07
 44.57     493.00      22.20
 44.67     518.00      22.76
 44.77     490.00      22.14
 44.87     506.00      22.49
 44.97     466.14      21.59
 45.07     529.00      23.00
 45.17     525.00      22.91
 45.27     528.22      22.98
 45.37     513.00      22.65
 45.47     527.33      22.96
 45.57     489.00      22.11
 45.67     491.00      22.16
 45.77     506.00      22.49
 45.87     539.36      23.22
 45.97     536.00      23.15
 46.07     472.34      21.73
 46.17     506.00      22.49
 46.27     518.00      22.76
 46.37     507.00      22.52
 46.47     512.00      22.63
 46.57     503.38      22.44
 46.67     495.00      22.25
 46.77     550.00      23.45
 46.87     521.00      22.83
 46.97     452.00      21.26
 47.07     491.00      22.16
 47.17     488.00      22.09
 47.27     487.26      22.07
 47.37     482.00      21.95
 47.47     643.00      25.36
 47.57     542.00      23.28
 47.67     594.16      24.38
 47.77     550.92      23.47
 47.87     548.97      23.43
 47.97     544.00      23.32
 48.07     565.00      23.77
 48.17     559.00      23.64
 48.27     559.07      23.64
 48.37     561.00      23.69
 48.47     534.00      23.11
 48.57     533.00      23.09
 48.67     567.00      23.81
 48.77     549.00      23.43
 48.87     537.00      23.17
 48.97     553.00      23.52
 49.07     546.00      23.37
 49.17     587.00      24.23
 49.27     612.00      24.74
 49.37     679.00      26.06
 49.47     655.67      25.61
 49.57     811.00      28.48
 49.67     950.00      30.82
 49.77    1079.00      32.85
 49.87    1418.00      37.66
 49.97    1868.77      43.23
 50.07    2277.00      47.72
 50.17    2508.00      50.08
 50.27    2497.00      49.97
 50.37    2220.00      47.12
 50.47    1903.94      43.63
 50.57    1395.00      37.35
 50.67    1052.00      32.43
 50.77     806.00      28.39
 50.87     734.00      27.09
 50.97     646.00      25.42
 51.07     649.94      25.49
 51.17     657.34      25.64
 51.27     591.75      24.33
 51.37     542.91      23.30
 51.47     600.71      24.51
 51.57     585.44      24.20
 51.67     596.00      24.41
 51.77     585.00      24.19
 51.87     600.00      24.49
 51.97     561.00      23.69
 52.07     532.57      23.08
 52.17     544.76      23.34
 52.27     548.00      23.41
 52.37     578.00      24.04
 52.47     550.75      23.47
 52.57     529.00      23.00
 52.67     547.00      23.39
 52.77     590.00      24.29
 52.87     667.00      25.83
 52.97     691.00      26.29
 53.07     722.81      26.89
 53.17     912.00      30.20
 53.27    1021.00      31.95
 53.37    1135.76      33.70
 53.47    1175.62      34.29
 53.57    1228.00      35.04
 53.67    1110.00      33.32
 53.77     974.00      31.21
 53.87     888.00      29.80
 53.97     782.24      27.97
 54.07     642.93      25.36
 54.17     587.00      24.23
 54.27     592.40      24.34
 54.37     565.00      23.77
 54.47     520.53      22.82
 54.57     565.00      23.77
 54.67     542.00      23.28
 54.77     507.16      22.52
 54.87     523.00      22.87
 54.97     507.38      22.53
 55.07     579.00      24.06
 55.17     555.00      23.56
 55.27     507.43      22.53
 55.37     595.46      24.40
 55.47     582.00      24.12
 55.57     582.00      24.12
 55.67     574.00      23.96
 55.77     585.00      24.19
 55.87     610.00      24.70
 55.97     581.00      24.10
 56.07     636.00      25.22
 56.17     755.00      27.48
 56.27     875.00      29.58
 56.37    1069.00      32.70
 56.47    1283.00      35.82
 56.57    1694.00      41.16
 56.67    2222.52      47.14
 56.77    2455.00      49.55
 56.87    2674.64      51.72
 56.97    2609.00      51.08
 57.07    2371.53      48.70
 57.17    1971.72      44.40
 57.27    1682.70      41.02
 57.37    1319.00      36.32
 57.47    1054.00      32.47
 57.57     951.00      30.84
 57.67     747.00      27.33
 57.77     703.00      26.51
 57.87     704.00      26.53
 57.97     617.45      24.85
 58.07     748.00      27.35
 58.17     749.44      27.38
 58.27     729.00      27.00
 58.37     871.00      29.51
 58.47     957.01      30.94
 58.57    1076.00      32.80
 58.67    1293.91      35.97
 58.77    1384.00      37.20
 58.87    1445.27      38.02
 58.97    1592.00      39.90
 59.07    1525.72      39.06
 59.17    1548.89      39.36
 59.27    1422.00      37.71
 59.37    1395.53      37.36
 59.47    1272.00      35.67
 59.57    1125.00      33.54
 59.67    1127.00      33.57
 59.77    1128.72      33.60
 59.87    1217.00      34.89
 59.97    1347.00      36.70
 60.07    1428.00      37.79
 60.17    1506.90      38.82
 60.27    1505.83      38.81
 60.37    1516.00      38.94
 60.47    1413.00      37.59
 60.57    1201.00      34.66
 60.67    1074.03      32.77
 60.77     915.00      30.25
 60.87     755.44      27.49
 60.97     654.50      25.58
 61.07     641.00      25.32
 61.17     598.91      24.47
 61.27     651.00      25.51
 61.37     626.47      25.03
 61.47     679.00      26.06
 61.57     742.00      27.24
 61.67     842.31      29.02
 61.77     906.88      30.11
 61.87    1132.07      33.65
 61.97    1231.00      35.09
 62.07    1383.13      37.19
 62.17    1382.00      37.18
 62.27    1381.00      37.16
 62.37    1295.00      35.99
 62.47    1187.00      34.45
 62.57    1032.00      32.12
 62.67     915.21      30.25
 62.77     732.88      27.07
 62.87     667.00      25.83
 62.97     640.00      25.30
 63.07     562.00      23.71
 63.17     566.02      23.79
 63.27     537.70      23.19
 63.37     537.00      23.17
 63.47     538.28      23.20
 63.57     556.09      23.58
 63.67     583.95      24.17
 63.77     547.74      23.40
 63.87     608.00      24.66
 63.97     634.13      25.18
 64.07     722.00      26.87
 64.17     792.00      28.14
 64.27     871.00      29.51
 64.37     915.57      30.26
 64.47     948.00      30.79
 64.57     947.90      30.79
 64.67    1026.00      32.03
 64.77     996.00      31.56
 64.87     932.84      30.54
 64.97     939.00      30.64
 65.07     838.00      28.95
 65.17     801.00      28.30
 65.27     751.62      27.42
 65.37     691.40      26.29
 65.47     640.00      25.30
 65.57     675.88      26.00
 65.67     597.08      24.44
 65.77     545.88      23.36
 65.87     609.08      24.68
 65.97     576.00      24.00
 66.07     548.00      23.41
 66.17     553.00      23.52
 66.27     527.00      22.96
 66.37     548.00      23.41
 66.47     581.20      24.11
 66.57     549.00      23.43
 66.67     600.51      24.51
 66.77     549.00      23.43
 66.87     621.64      24.93
 66.97     583.00      24.15
 67.07     626.00      25.02
 67.17     668.00      25.85
 67.27     741.35      27.23
 67.37     870.00      29.50
 67.47    1070.11      32.71
 67.57    1211.00      34.80
 67.67    1503.00      38.77
 67.77    1823.10      42.70
 67.87    2099.00      45.81
 67.97    2373.00      48.71
 68.07    2392.61      48.91
 68.17    2447.00      49.47
 68.27    2384.00      48.83
 68.37    2039.00      45.16
 68.47    1712.40      41.38
 68.57    1588.00      39.85
 68.67    1248.00      35.33
 68.77    1038.00      32.22
 68.87     921.64      30.36
 68.97     753.00      27.44
 69.07     704.00      26.53
 69.17     639.16      25.28
 69.27     564.98      23.77
 69.37     563.98      23.75
 69.47     595.00      24.39
 69.57     556.80      23.60
 69.67     596.38      24.42
 69.77     552.89      23.51
 69.87     560.21      23.67
 69.97     568.70      23.85
 70.07     549.17      23.43
 70.17     599.00      24.47
 70.27     564.00      23.75
 70.37     587.07      24.23
 70.47     603.00      24.56
 70.57     638.00      25.26
 70.67     600.04      24.50
 70.77     572.00      23.92
 70.87     612.00      24.74
 70.97     593.00      24.35
 71.07     636.97      25.24
 71.17     726.00      26.94
 71.27     825.54      28.73
 71.37     975.00      31.22
 71.47    1082.70      32.90
 71.57    1262.00      35.52
 71.67    1383.00      37.19
 71.77    1653.00      40.66
 71.87    1787.00      42.27
 71.97    1939.65      44.04
 72.07    1876.88      43.32
 72.17    1909.00      43.69
 72.27    1742.89      41.75
 72.37    1672.00      40.89
 72.47    1488.73      38.58
 72.57    1297.55      36.02
 72.67    1225.01      35.00
 72.77    1134.00      33.67
 72.87     984.00      31.37
 72.97     944.00      30.72
 73.07     824.00      28.71
 73.17     836.29      28.92
 73.27     750.09      27.39
 73.37     652.00      25.53
 73.47     685.03      26.17
 73.57     593.00      24.35
 73.67     676.63      26.01
 73.77     596.00      24.41
 73.87     582.82      24.14
 73.97     584.00      24.17
 74.07     534.02      23.11
 74.17     655.00      25.59
 74.27     612.00      24.74
 74.37     523.71      22.88
 74.47     615.00      24.80
 74.57     596.23      24.42
 74.67     618.46      24.87
 74.77     627.00      25.04
 74.87     527.64      22.97
 74.97     595.02      24.39
 75.07     559.38      23.65
 75.17     523.25      22.87
 75.27     537.00      23.17
 75.37     555.00      23.56
 75.47     584.00      24.17
 75.57     588.96      24.27
 75.67     556.00      23.58
 75.77     626.00      25.02
 75.87     569.77      23.87
 75.97     610.00      24.70
 76.07     647.00      25.44
 76.17     619.92      24.90
 76.27     662.52      25.74
 76.37     649.00      25.48
 76.47     737.00      27.15
 76.57     663.00      25.75
 76.67     674.00      25.96
 76.77     724.58      26.92
 76.87     628.00      25.06
 76.97     697.00      26.40
 77.07     595.31      24.40
 77.17     589.35      24.28
 77.27     572.00      23.92
 77.37     598.93      24.47
 77.47     510.00      22.58
 77.57     507.00      22.52
 77.67     536.00      23.15
 77.77     532.00      23.07
 77.87     556.00      23.58
 77.97     553.34      23.52
 78.07     480.00      21.91
 78.17     497.00      22.29
 78.27     500.00      22.36
 78.37     510.00      22.58
 78.47     541.94      23.28
 78.57     491.00      22.16
 78.67     512.00      22.63
 78.77     539.00      23.22
 78.87     483.12      21.98
 78.97     541.00      23.26
 79.07     537.00      23.17
 79.17     541.00      23.26
 79.27     498.96      22.34
 79.37     526.63      22.95
 79.47     562.83      23.72
 79.57     549.92      23.45
 79.67     489.00      22.11
 79.77     550.78      23.47
 79.87     503.23      22.43
 79.97     552.00      23.49
 80.07     518.00      22.76
 80.17     573.00      23.94
 80.27     565.00      23.77
 80.37     561.00      23.69
 80.47     575.00      23.98
 80.57     585.74      24.20
 80.67     627.00      25.04
 80.77     675.00      25.98
 80.87     691.00      26.29
 80.97     730.55      27.03
 81.07     730.00      27.02
 81.17     728.00      26.98
 81.27     708.64      26.62
 81.37     774.65      27.83
 81.47     811.00      28.48
 81.57     713.00      26.70
 81.67     757.39      27.52
 81.77     696.01      26.38
 81.87     687.80      26.23
 81.97     739.00      27.18
 82.07     683.07      26.14
 82.17     652.00      25.53
 82.27     626.00      25.02
 82.37     610.70      24.71
 82.47     599.47      24.48
 82.57     631.00      25.12
 82.67     569.00      23.85
 82.77     590.00      24.29
 82.87     571.00      23.90
 82.97     582.00      24.12
 83.07     594.81      24.39
 83.17     522.00      22.85
 83.27     502.00      22.41
 83.37     546.00      23.37
 83.47     507.00      22.52
 83.57     516.00      22.72
 83.67     561.72      23.70
 83.77     520.00      22.80
 83.87     576.00      24.00
 83.97     577.00      24.02
 84.07     582.00      24.12
 84.17     551.69      23.49
 84.27     603.00      24.56
 84.37     534.21      23.11
 84.47     532.16      23.07
 84.57     542.00      23.28
 84.67     564.00      23.75
 84.77     541.00      23.26
 84.87     559.86      23.66
 84.97     519.00      22.78
 85.07     551.00      23.47
 85.17     512.16      22.63
 85.27     520.91      22.82
 85.37     554.00      23.54
 85.47     517.00      22.74
 85.57     528.72      22.99
 85.67     496.00      22.27
 85.77     522.00      22.85
 85.87     511.99      22.63
 85.97     568.00      23.83
 86.07     539.49      23.23
 86.17     510.00      22.58
 86.27     563.00      23.73
 86.37     562.39      23.71
 86.47     576.00      24.00
 86.57     585.00      24.19
 86.67     552.00      23.49
 86.77     537.10      23.18
 86.87     575.00      23.98
 86.97     637.00      25.24
 87.07     625.00      25.00
 87.17     624.00      24.98
 87.27     683.00      26.13
 87.37     591.64      24.32
 87.47     694.00      26.34
 87.57     635.00      25.20
 87.67     680.00      26.08
 87.77     627.53      25.05
 87.87     576.00      24.00
 87.97     643.00      25.36
 88.07     544.96      23.34
 88.17     616.47      24.83
 88.27     588.00      24.25
 88.37     628.00      25.06
 88.47     595.00      24.39
 88.57     560.00      23.66
 88.67     573.00      23.94
 88.77     607.50      24.65
 88.87     531.70      23.06
 88.97     596.97      24.43
 89.07     625.00      25.00
 89.17     637.00      25.24
 89.27     558.17      23.63
 89.37     616.81      24.84
 89.47     602.00      24.54
 89.57     561.57      23.70
 89.67     589.19      24.27
 89.77     623.48      24.97
 89.87     542.00      23.28
 89.97     599.00      24.47
 90.07     555.00      23.56
 90.17     546.00      23.37
 90.27     521.00      22.83
 90.37     530.00      23.02
 90.47     566.33      23.80
 90.57     481.00      21.93
 90.67     541.00      23.26
 90.77     519.00      22.78
 90.87     493.62      22.22
 90.97     520.00      22.80
 91.07     523.00      22.87
 91.17     563.40      23.74
 91.27     517.49      22.75
 91.37     511.90      22.63
 91.47     533.00      23.09
 91.57     535.00      23.13
 91.67     508.00      22.54
 91.77     512.00      22.63
 91.87     559.00      23.64
 91.97     545.00      23.35
 92.07     511.00      22.61
 92.17     634.00      25.18
 92.27     615.51      24.81
 92.37     589.00      24.27
 92.47     572.30      23.92
 92.57     684.00      26.15
 92.67     642.27      25.34
 92.77     659.00      25.67
 92.87     716.98      26.78
 92.97     712.74      26.70
 93.07     736.00      27.13
 93.17     796.00      28.21
 93.27     834.72      28.89
 93.37     828.00      28.77
 93.47     821.00      28.65
 93.57     785.58      28.03
 93.67     819.00      28.62
 93.77     765.11      27.66
 93.87     885.00      29.75
 93.97     819.00      28.62
 94.07     880.00      29.66
 94.17     841.00      29.00
 94.27     794.00      28.18
 94.37     907.00      30.12
 94.47     885.00      29.75
 94.57     916.50      30.27
 94.67     965.00      31.06
 94.77     891.00      29.85
 94.87     891.00      29.85
 94.97     891.93      29.87
 95.07     892.00      29.87
 95.17     860.97      29.34
 95.27     876.00      29.60
 95.37     797.00      28.23
 95.47     714.94      26.74
 95.57     743.00      27.26
 95.67     702.00      26.50
 95.77     740.00      27.20
 95.87     711.00      26.66
 95.97     663.87      25.77
 96.07     698.01      26.42
 96.17     676.00      26.00
 96.27     740.70      27.22
 96.37     744.00      27.28
 96.47     798.00      28.25
 96.57     855.00      29.24
 96.67     948.00      30.79
 96.77     977.00      31.26
 96.87    1102.00      33.20
 96.97    1069.00      32.70
 97.07    1223.00      34.97
 97.17    1299.00      36.04
 97.27    1387.00      37.24
 97.37    1426.00      37.76
 97.47    1459.00      38.20
 97.57    1452.00      38.11
 97.67    1427.00      37.78
 97.77    1343.00      36.65
 97.87    1310.00      36.19
 97.97    1315.58      36.27
 98.07    1250.63      35.36
 98.17    1150.00      33.91
 98.27    1118.00      33.44
 98.37     975.00      31.22
 98.47     981.29      31.33
 98.57     944.48      30.73
 98.67     871.81      29.53
 98.77     767.00      27.69
 98.87     749.00      27.37
 98.97     767.00      27.69
 99.07     851.00      29.17
 99.17     872.38      29.54
 99.27     867.00      29.44
 99.37     942.00      30.69
 99.47     936.00      30.59
 99.57    1053.00      32.45
 99.67    1168.00      34.18
 99.77    1310.66      36.20
 99.87    1379.92      37.15
 99.97    1514.00      38.91
100.07    1624.00      40.30
100.17    1777.50      42.16
100.27    1893.00      43.51
100.37    1913.00      43.74
100.47    2069.00      45.49
100.57    2050.00      45.28
100.67    2108.37      45.92
100.77    2050.00      45.28
100.87    2043.54      45.21
100.97    1990.00      44.61
101.07    1975.00      44.44
101.17    1886.00      43.43
101.27    1863.00      43.16
101.37    1657.42      40.71
101.47    1574.00      39.67
101.57    1494.00      38.65
101.67    1458.00      38.18
101.77    1369.00      37.00
101.87    1292.02      35.94
101.97    1207.00      34.74
102.07    1264.18      35.56
102.17    1198.00      34.61
102.27    1077.00      32.82
102.37    1120.00      33.47
102.47    1055.00      32.48
102.57    1040.00      32.25
102.67    1045.00      32.33
102.77    1015.00      31.86
102.87    1017.00      31.89
102.97     953.00      30.87
103.07     928.00      30.46
103.17     851.00      29.17
103.27     802.95      28.34
103.37     754.00      27.46
103.47     743.78      27.27
103.57     754.00      27.46
103.67     694.00      26.34
103.77     699.40      26.45
103.87     648.00      25.46
103.97     655.39      25.60
104.07     608.00      24.66
104.17     588.00      24.25
104.27     566.00      23.79
104.37     547.00      23.39
104.47     547.00      23.39
104.57     585.84      24.20
104.67     558.00      23.62
104.77     530.21      23.03
104.87     546.35      23.37
104.97     575.00      23.98
105.07     544.00      23.32
105.17     568.00      23.83
105.27     494.06      22.23
105.37     594.00      24.37
105.47     489.52      22.13
105.57     561.00      23.69
105.67     566.00      23.79
105.77     530.86      23.04
105.87     551.00      23.47
105.97     554.00      23.54
106.07     553.81      23.53
106.17     606.00      24.62
106.27     625.13      25.00
106.37     597.43      24.44
106.47     609.00      24.68
106.57     616.00      24.82
106.67     642.00      25.34
106.77     615.12      24.80
106.87     715.07      26.74
106.97     688.00      26.23
107.07     693.00      26.32
107.17     673.00      25.94
107.27     692.57      26.32
107.37     689.00      26.25
107.47     658.00      25.65
107.57     714.97      26.74
107.67     700.00      26.46
107.77     750.85      27.40
107.87     667.00      25.83
107.97     688.91      26.25
108.07     713.00      26.70
108.17     685.00      26.17
108.27     712.43      26.69
108.37     692.00      26.31
108.47     695.90      26.38
108.57     656.22      25.62
108.67     712.00      26.68
108.77     692.00      26.31
108.87     676.03      26.00
108.97     701.00      26.48
109.07     661.00      25.71
109.17     687.00      26.21
109.27     713.00      26.70
109.37     621.57      24.93
109.47     637.98      25.26
109.57     652.20      25.54
109.67     655.07      25.59
109.77     619.00      24.88
109.87     553.07      23.52
109.97     563.60      23.74
110.07     605.00      24.60
110.17     617.07      24.84
110.27     560.00      23.66
110.37     540.00      23.24
110.47     506.63      22.51
110.57     516.26      22.72
110.67     503.82      22.45
110.77     562.01      23.71
110.87     560.00      23.66
110.97     529.00      23.00
111.07     504.00      22.45
111.17     530.13      23.02
111.27     522.44      22.86
111.37     556.00      23.58
111.47     570.00      23.87
111.57     570.00      23.87
111.67     569.00      23.85
111.77     555.00      23.56
111.87     522.00      22.85
111.97     544.00      23.32
112.07     560.00      23.66
112.17     597.00      24.43
112.27     564.00      23.75
112.37     626.69      25.03
112.47     641.78      25.33
112.57     612.00      24.74
112.67     639.00      25.28
112.77     598.59      24.47
112.87     683.00      26.13
112.97     677.00      26.02
113.07     721.73      26.86
113.17     719.00      26.81
113.27     717.00      26.78
113.37     749.52      27.38
113.47     802.32      28.33
113.57     833.00      28.86
113.67     895.51      29.93
113.77     940.00      30.66
113.87     910.00      30.17
113.97     997.13      31.58
114.07    1073.00      32.76
114.17    1164.95      34.13
114.27    1198.00      34.61
114.37    1240.00      35.21
114.47    1338.00      36.58
114.57    1419.00      37.67
114.67    1594.00      39.92
114.77    1733.00      41.63
114.87    1907.71      43.68
114.97    2118.00      46.02
115.07    2410.00      49.09
115.17    2545.37      50.45
115.27    2776.00      52.69
115.37    3024.00      54.99
115.47    3542.74      59.52
115.57    3806.45      61.70
115.67    4100.80      64.04
115.77    4384.00      66.21
115.87    4912.00      70.09
115.97    5165.00      71.87
116.07    5506.00      74.20
116.17    5972.00      77.28
116.27    6418.00      80.11
116.37    6530.59      80.81
116.47    6970.64      83.49
116.57    6947.62      83.35
116.67    6832.51      82.66
116.77    6949.00      83.36
116.87    6806.00      82.50
116.97    6704.00      81.88
117.07    6536.19      80.85
117.17    6147.00      78.40
117.27    5756.41      75.87
117.37    5542.82      74.45
117.47    5200.99      72.12
117.57    4766.00      69.04
117.67    4152.16      64.44
117.77    3984.00      63.12
117.87    3546.35      59.55
117.97    3247.00      56.98
118.07    2954.00      54.35
118.17    2530.00      50.30
118.27    2271.52      47.66
118.37    1917.00      43.78
118.47    1690.67      41.12
118.57    1575.00      39.69
118.67    1365.00      36.95
118.77    1261.83      35.52
118.87    1119.23      33.45
118.97    1011.00      31.80
119.07     954.62      30.90
119.17     871.00      29.51
119.27     867.00      29.44
119.37     752.00      27.42
119.47     711.30      26.67
119.57     707.74      26.60
119.67     655.08      25.59
119.77     698.78      26.43
119.87     667.97      25.85
119.97     645.19      25.40
120.07     608.79      24.67
120.17     559.00      23.64
120.27     565.00      23.77
120.37     534.00      23.11
120.47     573.00      23.94
120.57     548.00      23.41
120.67     558.00      23.62
120.77     549.76      23.45
120.87     548.26      23.42
120.97     578.00      24.04
121.07     572.00      23.92
121.17     562.00      23.71
121.27     550.00      23.45
121.37     616.46      24.83
121.47     635.00      25.20
121.57     563.00      23.73
121.67     605.00      24.60
121.77     591.00      24.31
121.87     575.00      23.98
121.97     549.00      23.43
122.07     595.68      24.41
122.17     632.00      25.14
122.27     600.24      24.50
122.37     648.43      25.46
122.47     596.00      24.41
122.57     660.34      25.70
122.67     633.08      25.16
122.77     671.00      25.90
122.87     619.00      24.88
122.97     620.00      24.90
123.07     592.25      24.34
123.17     652.00      25.53
123.27     633.00      25.16
123.37     655.00      25.59
123.47     613.79      24.77
123.57     648.00      25.46
123.67     637.00      25.24
123.77     627.03      25.04
123.87     643.00      25.36
123.97     595.92      24.41
124.07     591.00      24.31
124.17     630.00      25.10
124.27     624.00      24.98
124.37     583.24      24.15
124.47     588.62      24.26
124.57     620.13      24.90
124.67     541.87      23.28
124.77     592.00      24.33
124.87     605.00      24.60
124.97     623.00      24.96
