  9.97     610.00      24.70
 10.07     613.00      24.76
 10.17     590.93      24.31
 10.27     540.87      23.26
 10.37     538.46      23.20
 10.47     582.86      24.14
 10.57     615.00      24.80
 10.67     582.00      24.12
 10.77     620.00      24.90
 10.87     602.00      24.54
 10.97     607.00      24.64
 11.07     603.00      24.56
 11.17     595.00      24.39
 11.27     572.00      23.92
 11.37     616.37      24.83
 11.47     540.78      23.25
 11.57     568.85      23.85
 11.67     542.96      23.30
 11.77     627.51      25.05
 11.87     582.34      24.13
 11.97     631.00      25.12
 12.07     676.00      26.00
 12.17     714.00      26.72
 12.27     743.00      27.26
 12.37     694.00      26.34
 12.47     638.41      25.27
 12.57     598.00      24.45
 12.67     582.00      24.12
 12.77     552.00      23.49
 12.87     596.00      24.41
 12.97     625.00      25.00
 13.07     559.62      23.66
 13.17     556.00      23.58
 13.27     585.00      24.19
 13.37     537.00      23.17
 13.47     572.00      23.92
 13.57     568.00      23.83
 13.67     569.00      23.85
 13.77     567.00      23.81
 13.87     598.00      24.45
 13.97     562.00      23.71
 14.07     547.00      23.39
 14.17     560.00      23.66
 14.27     609.04      24.68
 14.37     592.00      24.33
 14.47     560.00      23.66
 14.57     559.00      23.64
 14.67     594.33      24.38
 14.77     575.00      23.98
 14.87     591.60      24.32
 14.97     528.00      22.98
 15.07     545.00      23.35
 15.17     560.00      23.66
 15.27     546.00      23.37
 15.37     542.40      23.29
 15.47     528.64      22.99
 15.57     561.00      23.69
 15.67     612.30      24.74
 15.77     583.66      24.16
 15.87     550.00      23.45
 15.97     560.00      23.66
 16.07     573.00      23.94
 16.17     564.00      23.75
 16.27     612.53      24.75
 16.37     576.00      24.00
 16.47     524.60      22.90
 16.57     518.00      22.76
 16.67     539.58      23.23
 16.77     562.00      23.71
 16.87     559.00      23.64
 16.97     576.00      24.00
 17.07     542.63      23.29
 17.17     576.00      24.00
 17.27     550.00      23.45
 17.37     523.34      22.88
 17.47     528.30      22.98
 17.57     596.00      24.41
 17.67     539.00      23.22
 17.77     547.00      23.39
 17.87     569.00      23.85
 17.97     536.00      23.15
 18.07     528.58      22.99
 18.17     595.00      24.39
 18.27     589.00      24.27
 18.37     547.00      23.39
 18.47     555.00      23.56
 18.57     575.00      23.98
 18.67     592.38      24.34
 18.77     570.31      23.88
 18.87     587.00      24.23
 18.97     521.00      22.83
 19.07     569.00      23.85
 19.17     551.00      23.47
 19.27     538.51      23.21
 19.37     524.35      22.90
 19.47     494.00      22.23
 19.57     530.00      23.02
 19.67     588.03      24.25
 19.77     572.99      23.94
 19.87     597.52      24.44
 19.97     540.70      23.25
 20.07     538.77      23.21
 20.17     520.93      22.82
 20.27     581.00      24.10
 20.37     593.70      24.37
 20.47     567.51      23.82
 20.57     529.63      23.01
 20.67     547.00      23.39
 20.77     592.87      24.35
 20.87     540.00      23.24
 20.97     563.00      23.73
 21.07     530.00      23.02
 21.17     577.00      24.02
 21.27     590.48      24.30
 21.37     556.51      23.59
 21.47     566.00      23.79
 21.57     535.00      23.13
 21.67     558.00      23.62
 21.77     546.43      23.38
 21.87     544.98      23.34
 21.97     529.47      23.01
 22.07     589.00      24.27
 22.17     571.00      23.90
 22.27     569.00      23.85
 22.37     559.53      23.65
 22.47     560.00      23.66
 22.57     508.14      22.54
 22.67     570.00      23.87
 22.77     566.00      23.79
 22.87     523.00      22.87
 22.97     591.00      24.31
 23.07     536.00      23.15
 23.17     534.66      23.12
 23.27     545.97      23.37
 23.37     545.00      23.35
 23.47     519.54      22.79
 23.57     516.50      22.73
 23.67     571.62      23.91
 23.77     598.00      24.45
 23.87     550.27      23.46
 23.97     507.72      22.53
 24.07     573.00      23.94
 24.17     528.00      22.98
 24.27     562.00      23.71
 24.37     563.00      23.73
 24.47     572.00      23.92
 24.57     627.00      25.04
 24.67     614.00      24.78
 24.77     609.02      24.68
 24.87     643.00      25.36
 24.97     583.33      24.15
 25.07     628.00      25.06
 25.17     611.00      24.72
 25.27     557.00      23.60
 25.37     536.00      23.15
 25.47     510.00      22.58
 25.57     560.00      23.66
 25.67     532.89      23.08
 25.77     508.00      22.54
 25.87     528.05      22.98
 25.97     556.00      23.58
 26.07     527.96      22.98
 26.17     540.00      23.24
 26.27     485.00      22.02
 26.37     582.00      24.12
 26.47     512.52      22.64
 26.57     540.51      23.25
 26.67     543.00      23.30
 26.77     535.00      23.13
 26.87     549.00      23.43
 26.97     559.38      23.65
 27.07     509.00      22.56
 27.17     549.47      23.44
 27.27     589.00      24.27
 27.37     520.00      22.80
 27.47     573.81      23.95
 27.57     562.00      23.71
 27.67     548.22      23.41
 27.77     574.79      23.97
 27.87     657.00      25.63
 27.97     646.00      25.42
 28.07     749.00      27.37
 28.17     902.00      30.03
 28.27     967.00      31.10
 28.37     955.74      30.91
 28.47     823.00      28.69
 28.57     749.00      27.37
 28.67     680.00      26.08
 28.77     751.00      27.40
 28.87     773.00      27.80
 28.97     844.93      29.07
 29.07     743.00      27.26
 29.17     731.63      27.05
 29.27     631.00      25.12
 29.37     625.00      25.00
 29.47     600.00      24.49
 29.57     549.00      23.43
 29.67     554.38      23.55
 29.77     574.00      23.96
 29.87     598.58      24.47
 29.97     552.00      23.49
 30.07     578.41      24.05
 30.17     569.00      23.85
 30.27     599.00      24.47
 30.37     517.00      22.74
 30.47     557.12      23.60
 30.57     560.00      23.66
 30.67     582.00      24.12
 30.77     634.00      25.18
 30.87     580.90      24.10
 30.97     593.00      24.35
 31.07     659.00      25.67
 31.17     584.70      24.18
 31.27     561.52      23.70
 31.37     534.00      23.11
 31.47     552.00      23.49
 31.57     553.00      23.52
 31.67     560.00      23.66
 31.77     553.00      23.52
 31.87     544.00      23.32
 31.97     552.00      23.49
 32.07     519.00      22.78
 32.17     568.70      23.85
 32.27     528.00      22.98
 32.37     507.40      22.53
 32.47     544.69      23.34
 32.57     550.04      23.45
 32.67     552.72      23.51
 32.77     523.00      22.87
 32.87     561.87      23.70
 32.97     537.00      23.17
 33.07     496.88      22.29
 33.17     541.00      23.26
 33.27     538.00      23.19
 33.37     502.05      22.41
 33.47     589.80      24.29
 33.57     601.00      24.52
 33.67     645.00      25.40
 33.77     725.00      26.93
 33.87     888.00      29.80
 33.97     952.00      30.85
 34.07    1087.00      32.97
 34.17    1063.66      32.61
 34.27     869.00      29.48
 34.37     710.00      26.65
 34.47     627.00      25.04
 34.57     624.05      24.98
 34.67     573.00      23.94
 34.77     581.00      24.10
 34.87     541.00      23.26
 34.97     508.78      22.56
 35.07     542.28      23.29
 35.17     574.00      23.96
 35.27     576.00      24.00
 35.37     535.40      23.14
 35.47     515.00      22.69
 35.57     483.00      21.98
 35.67     527.97      22.98
 35.77     483.89      22.00
 35.87     516.00      22.72
 35.97     502.00      22.41
 36.07     504.00      22.45
 36.17     498.00      22.32
 36.27     529.76      23.02
 36.37     502.00      22.41
 36.47     481.05      21.93
 36.57     544.00      23.32
 36.67     570.00      23.87
 36.77     499.00      22.34
 36.87     513.00      22.65
 36.97     492.00      22.18
 37.07     523.07      22.87
 37.17     529.11      23.00
 37.27     553.00      23.52
 37.37     556.00      23.58
 37.47     485.00      22.02
 37.57     570.97      23.90
 37.67     507.15      22.52
 37.77     545.00      23.35
 37.87     519.00      22.78
 37.97     530.00      23.02
 38.07     467.00      21.61
 38.17     547.60      23.40
 38.27     522.71      22.86
 38.37     505.00      22.47
 38.47     532.68      23.08
 38.57     502.00      22.41
 38.67     524.00      22.89
 38.77     545.17      23.35
 38.87     515.00      22.69
 38.97     521.00      22.83
 39.07     454.00      21.31
 39.17     508.00      22.54
 39.27     492.00      22.18
 39.37     525.00      22.91
 39.47     544.00      23.32
 39.57     510.86      22.60
 39.67     528.42      22.99
 39.77     551.57      23.49
 39.87     473.00      21.75
 39.97     523.00      22.87
 40.07     518.74      22.78
 40.17     496.88      22.29
 40.27     544.49      23.33
 40.37     539.00      23.22
 40.47     490.00      22.14
 40.57     506.90      22.51
 40.67     570.00      23.87
 40.77     498.06      22.32
 40.87     467.00      21.61
 40.97     523.00      22.87
 41.07     481.00      21.93
 41.17     489.13      22.12
 41.27     465.00      21.56
 41.37     478.04      21.86
 41.47     529.00      23.00
 41.57     525.60      22.93
 41.67     528.00      22.98
 41.77     527.00      22.96
 41.87     516.00      22.72
 41.97     555.00      23.56
 42.07     479.00      21.89
 42.17     531.00      23.04
 42.27     523.67      22.88
 42.37     557.00      23.60
 42.47     623.01      24.96
 42.57     607.63      24.65
 42.67     656.00      25.61
 42.77     615.00      24.80
 42.87     558.00      23.62
 42.97     539.72      23.23
 43.07     518.00      22.76
 43.17     491.63      22.17
 43.27     539.00      23.22
 43.37     509.00      22.56
 43.47     553.94      23.54
 43.57     480.00      21.91
 43.67     547.29      23.39
 43.77     468.00      21.63
 43.87     531.00      23.04
 43.97     537.00      23.17
 44.07     505.00      22.47
 44.17     523.00      22.87
 44.27     501.00      22.38
 44.37     528.00      22.98
 44.47     500.00      22.36
 44.57     504.00      22.45
 44.67     516.00      22.72
 44.77     511.91      22.63
 44.87     500.00      22.36
 44.97     469.00      21.66
 45.07     532.00      23.07
 45.17     485.00      22.02
 45.27     500.00      22.36
 45.37     483.03      21.98
 45.47     490.00      22.14
 45.57     533.00      23.09
 45.67     536.48      23.16
 45.77     473.00      21.75
 45.87     508.03      22.54
 45.97     491.09      22.16
 46.07     499.00      22.34
 46.17     474.00      21.77
 46.27     541.52      23.27
 46.37     541.88      23.28
 46.47     525.00      22.91
 46.57     491.00      22.16
 46.67     510.92      22.60
 46.77     539.00      23.22
 46.87     510.00      22.58
 46.97     523.00      22.87
 47.07     479.84      21.91
 47.17     519.00      22.78
 47.27     504.00      22.45
 47.37     513.00      22.65
 47.47     561.00      23.69
 47.57     536.24      23.16
 47.67     594.00      24.37
 47.77     594.00      24.37
 47.87     630.00      25.10
 47.97     635.00      25.20
 48.07     554.93      23.56
 48.17     542.00      23.28
 48.27     558.00      23.62
 48.37     570.00      23.87
 48.47     525.00      22.91
 48.57     564.00      23.75
 48.67     499.00      22.34
 48.77     571.00      23.90
 48.87     508.00      22.54
 48.97     527.00      22.96
 49.07     570.00      23.87
 49.17     594.00      24.37
 49.27     557.00      23.60
 49.37     633.00      25.16
 49.47     690.00      26.27
 49.57     793.00      28.16
 49.67     902.66      30.04
 49.77    1140.09      33.77
 49.87    1569.00      39.61
 49.97    1832.61      42.81
 50.07    2183.00      46.72
 50.17    2488.00      49.88
 50.27    2543.00      50.43
 50.37    2148.00      46.35
 50.47    1849.00      43.00
 50.57    1535.78      39.19
 50.67    1072.00      32.74
 50.77     815.00      28.55
 50.87     698.00      26.42
 50.97     703.49      26.52
 51.07     597.68      24.45
 51.17     634.00      25.18
 51.27     609.00      24.68
 51.37     614.24      24.78
 51.47     596.00      24.41
 51.57     561.00      23.69
 51.67     557.00      23.60
 51.77     520.01      22.80
 51.87     524.00      22.89
 51.97     523.00      22.87
 52.07     584.00      24.17
 52.17     525.93      22.93
 52.27     570.91      23.89
 52.37     542.00      23.28
 52.47     555.00      23.56
 52.57     531.00      23.04
 52.67     577.00      24.02
 52.77     682.00      26.12
 52.87     663.81      25.76
 52.97     685.00      26.17
 53.07     817.00      28.58
 53.17     908.00      30.13
 53.27    1102.00      33.20
 53.37    1095.00      33.09
 53.47    1157.93      34.03
 53.57    1162.00      34.09
 53.67    1068.00      32.68
 53.77    1017.00      31.89
 53.87     904.00      30.07
 53.97     757.00      27.51
 54.07     686.00      26.19
 54.17     590.60      24.30
 54.27     592.69      24.35
 54.37     522.98      22.87
 54.47     566.00      23.79
 54.57     552.00      23.49
 54.67     572.51      23.93
 54.77     573.00      23.94
 54.87     535.31      23.14
 54.97     568.69      23.85
 55.07     627.00      25.04
 55.17     545.77      23.36
 55.27     607.00      24.64
 55.37     568.00      23.83
 55.47     599.18      24.48
 55.57     567.00      23.81
 55.67     585.00      24.19
 55.77     575.00      23.98
 55.87     575.00      23.98
 55.97     659.39      25.68
 56.07     651.00      25.51
 56.17     753.00      27.44
 56.27     935.00      30.58
 56.37    1145.81      33.85
 56.47    1403.38      37.46
 56.57    1763.04      41.99
 56.67    2217.99      47.10
 56.77    2552.79      50.53
 56.87    2580.00      50.79
 56.97    2644.00      51.42
 57.07    2456.66      49.56
 57.17    2084.00      45.65
 57.27    1631.90      40.40
 57.37    1337.00      36.57
 57.47     996.56      31.57
 57.57     907.40      30.12
 57.67     758.72      27.54
 57.77     694.00      26.34
 57.87     642.00      25.34
 57.97     700.69      26.47
 58.07     653.16      25.56
 58.17     718.90      26.81
 58.27     718.00      26.80
 58.37     844.00      29.05
 58.47     911.00      30.18
 58.57    1055.00      32.48
 58.67    1129.16      33.60
 58.77    1308.49      36.17
 58.87    1379.00      37.13
 58.97    1437.39      37.91
 59.07    1533.00      39.15
 59.17    1481.42      38.49
 59.27    1419.00      37.67
 59.37    1303.97      36.11
 59.47    1239.62      35.21
 59.57    1132.95      33.66
 59.67    1144.00      33.82
 59.77    1087.29      32.97
 59.87    1225.06      35.00
 59.97    1347.79      36.71
 60.07    1372.65      37.05
 60.17    1544.00      39.29
 60.27    1641.00      40.51
 60.37    1550.00      39.37
 60.47    1432.00      37.84
 60.57    1260.00      35.50
 60.67    1122.50      33.50
 60.77     966.97      31.10
 60.87     819.00      28.62
 60.97     683.82      26.15
 61.07     664.00      25.77
 61.17     659.00      25.67
 61.27     662.00      25.73
 61.37     668.00      25.85
 61.47     691.00      26.29
 61.57     744.00      27.28
 61.67     825.76      28.74
 61.77     937.00      30.61
 61.87    1062.00      32.59
 61.97    1202.68      34.68
 62.07    1323.00      36.37
 62.17    1420.00      37.68
 62.27    1368.00      36.99
 62.37    1302.84      36.09
 62.47    1197.00      34.60
 62.57    1076.00      32.80
 62.67     973.75      31.20
 62.77     798.72      28.26
 62.87     674.00      25.96
 62.97     671.00      25.90
 63.07     614.00      24.78
 63.17     595.72      24.41
 63.27     591.00      24.31
 63.37     591.50      24.32
 63.47     562.96      23.73
 63.57     549.16      23.43
 63.67     549.40      23.44
 63.77     615.00      24.80
 63.87     636.91      25.24
 63.97     702.00      26.50
 64.07     729.00      27.00
 64.17     755.96      27.49
 64.27     854.00      29.22
 64.37     957.00      30.94
 64.47     956.00      30.92
 64.57     981.00      31.32
 64.67    1086.00      32.95
 64.77    1043.00      32.30
 64.87    1003.00      31.67
 64.97     937.00      30.61
 65.07     840.49      28.99
 65.17     777.00      27.87
 65.27     708.83      26.62
 65.37     672.00      25.92
 65.47     623.27      24.97
 65.57     617.00      24.84
 65.67     632.88      25.16
 65.77     567.00      23.81
 65.87     610.54      24.71
 65.97     558.76      23.64
 66.07     583.07      24.15
 66.17     537.00      23.17
 66.27     521.16      22.83
 66.37     551.00      23.47
 66.47     523.45      22.88
 66.57     582.00      24.12
 66.67     548.00      23.41
 66.77     597.00      24.43
 66.87     560.00      23.66
 66.97     634.72      25.19
 67.07     633.00      25.16
 67.17     674.00      25.96
 67.27     782.00      27.96
 67.37     893.00      29.88
 67.47    1096.74      33.12
 67.57    1271.18      35.65
 67.67    1553.00      39.41
 67.77    1804.60      42.48
 67.87    2002.00      44.74
 67.97    2294.00      47.90
 68.07    2386.74      48.85
 68.17    2411.00      49.10
 68.27    2239.00      47.32
 68.37    2096.00      45.78
 68.47    1797.36      42.40
 68.57    1592.00      39.90
 68.67    1265.00      35.57
 68.77    1035.00      32.17
 68.87     903.05      30.05
 68.97     791.00      28.12
 69.07     744.00      27.28
 69.17     688.00      26.23
 69.27     636.00      25.22
 69.37     601.00      24.52
 69.47     552.73      23.51
 69.57     585.00      24.19
 69.67     600.87      24.51
 69.77     541.88      23.28
 69.87     532.48      23.08
 69.97     539.00      23.22
 70.07     534.53      23.12
 70.17     575.80      24.00
 70.27     552.00      23.49
 70.37     607.11      24.64
 70.47     591.00      24.31
 70.57     566.00      23.79
 70.67     550.36      23.46
 70.77     569.00      23.85
 70.87     570.42      23.88
 70.97     655.00      25.59
 71.07     676.00      26.00
 71.17     717.00      26.78
 71.27     831.00      28.83
 71.37     927.00      30.45
 71.47    1112.00      33.35
 71.57    1272.00      35.67
 71.67    1504.00      38.78
 71.77    1582.99      39.79
 71.87    1892.00      43.50
 71.97    1906.00      43.66
 72.07    1881.00      43.37
 72.17    1870.00      43.24
 72.27    1807.00      42.51
 72.37    1653.00      40.66
 72.47    1445.79      38.02
 72.57    1317.00      36.29
 72.67    1101.00      33.18
 72.77    1070.95      32.73
 72.87     917.00      30.28
 72.97     851.00      29.17
 73.07     848.16      29.12
 73.17     735.74      27.12
 73.27     646.00      25.42
 73.37     677.00      26.02
 73.47     626.00      25.02
 73.57     603.00      24.56
 73.67     588.00      24.25
 73.77     553.21      23.52
 73.87     573.00      23.94
 73.97     594.00      24.37
 74.07     544.70      23.34
 74.17     607.73      24.65
 74.27     595.21      24.40
 74.37     599.60      24.49
 74.47     646.00      25.42
 74.57     586.77      24.22
 74.67     598.00      24.45
 74.77     576.00      24.00
 74.87     653.00      25.55
 74.97     594.00      24.37
 75.07     593.00      24.35
 75.17     597.00      24.43
 75.27     580.00      24.08
 75.37     515.17      22.70
 75.47     569.96      23.87
 75.57     552.00      23.49
 75.67     566.03      23.79
 75.77     567.00      23.81
 75.87     633.00      25.16
 75.97     604.49      24.59
 76.07     631.40      25.13
 76.17     670.00      25.88
 76.27     631.00      25.12
 76.37     701.91      26.49
 76.47     711.98      26.68
 76.57     715.44      26.75
 76.67     720.00      26.83
 76.77     704.00      26.53
 76.87     688.00      26.23
 76.97     604.00      24.58
 77.07     632.00      25.14
 77.17     596.00      24.41
 77.27     574.00      23.96
 77.37     524.00      22.89
 77.47     511.00      22.61
 77.57     535.00      23.13
 77.67     585.02      24.19
 77.77     578.42      24.05
 77.87     468.00      21.63
 77.97     563.64      23.74
 78.07     534.00      23.11
 78.17     510.00      22.58
 78.27     504.75      22.47
 78.37     516.00      22.72
 78.47     518.00      22.76
 78.57     570.80      23.89
 78.67     529.92      23.02
 78.77     506.00      22.49
 78.87     517.00      22.74
 78.97     498.00      22.32
 79.07     522.00      22.85
 79.17     532.00      23.07
 79.27     504.69      22.47
 79.37     526.00      22.93
 79.47     569.18      23.86
 79.57     505.74      22.49
 79.67     530.00      23.02
 79.77     543.00      23.30
 79.87     549.75      23.45
 79.97     486.00      22.05
 80.07     568.00      23.83
 80.17     569.00      23.85
 80.27     557.89      23.62
 80.37     611.56      24.73
 80.47     558.00      23.62
 80.57     573.00      23.94
 80.67     590.00      24.29
 80.77     667.67      25.84
 80.87     658.00      25.65
 80.97     743.00      27.26
 81.07     744.10      27.28
 81.17     736.59      27.14
 81.27     771.00      27.77
 81.37     759.00      27.55
 81.47     798.25      28.25
 81.57     777.33      27.88
 81.67     743.00      27.26
 81.77     735.91      27.13
 81.87     666.06      25.81
 81.97     673.53      25.95
 82.07     721.00      26.85
 82.17     627.00      25.04
 82.27     680.81      26.09
 82.37     651.41      25.52
 82.47     620.00      24.90
 82.57     613.22      24.76
 82.67     546.06      23.37
 82.77     575.59      23.99
 82.87     600.00      24.49
 82.97     562.00      23.71
 83.07     517.62      22.75
 83.17     584.88      24.18
 83.27     547.00      23.39
 83.37     535.00      23.13
 83.47     586.00      24.21
 83.57     587.61      24.24
 83.67     589.90      24.29
 83.77     567.00      23.81
 83.87     596.00      24.41
 83.97     544.00      23.32
 84.07     606.00      24.62
 84.17     544.00      23.32
 84.27     535.00      23.13
 84.37     552.00      23.49
 84.47     542.00      23.28
 84.57     544.74      23.34
 84.67     567.00      23.81
 84.77     567.00      23.81
 84.87     552.65      23.51
 84.97     514.00      22.67
 85.07     524.00      22.89
 85.17     564.32      23.76
 85.27     537.00      23.17
 85.37     559.00      23.64
 85.47     528.00      22.98
 85.57     539.00      23.22
 85.67     551.13      23.48
 85.77     504.00      22.45
 85.87     522.00      22.85
 85.97     527.00      22.96
 86.07     555.00      23.56
 86.17     490.00      22.14
 86.27     564.66      23.76
 86.37     557.00      23.60
 86.47     490.00      22.14
 86.57     546.30      23.37
 86.67     558.00      23.62
 86.77     571.00      23.90
 86.87     607.89      24.66
 86.97     657.00      25.63
 87.07     679.00      26.06
 87.17     632.00      25.14
 87.27     579.91      24.08
 87.37     662.37      25.74
 87.47     666.00      25.81
 87.57     679.00      26.06
 87.67     625.00      25.00
 87.77     639.00      25.28
 87.87     618.00      24.86
 87.97     633.00      25.16
 88.07     562.00      23.71
 88.17     587.82      24.24
 88.27     588.00      24.25
 88.37     565.00      23.77
 88.47     520.98      22.83
 88.57     558.00      23.62
 88.67     579.00      24.06
 88.77     580.00      24.08
 88.87     557.65      23.61
 88.97     536.53      23.16
 89.07     598.02      24.45
 89.17     590.00      24.29
 89.27     571.00      23.90
 89.37     650.00      25.50
 89.47     557.03      23.60
 89.57     600.00      24.49
 89.67     559.00      23.64
 89.77     588.00      24.25
 89.87     605.00      24.60
 89.97     589.69      24.28
 90.07     581.10      24.11
 90.17     591.62      24.32
 90.27     530.00      23.02
 90.37     583.34      24.15
 90.47     488.00      22.09
 90.57     529.60      23.01
 90.67     513.00      22.65
 90.77     522.00      22.85
 90.87     514.00      22.67
 90.97     542.00      23.28
 91.07     492.99      22.20
 91.17     544.00      23.32
 91.27     563.68      23.74
 91.37     542.57      23.29
 91.47     564.28      23.75
 91.57     502.00      22.41
 91.67     515.00      22.69
 91.77     557.00      23.60
 91.87     552.00      23.49
 91.97     557.00      23.60
 92.07     544.39      23.33
 92.17     589.00      24.27
 92.27     603.06      24.56
 92.37     619.00      24.88
 92.47     611.94      24.74
 92.57     666.79      25.82
 92.67     615.00      24.80
 92.77     672.00      25.92
 92.87     727.00      26.96
 92.97     739.26      27.19
 93.07     738.17      27.17
 93.17     822.00      28.67
 93.27     773.00      27.80
 93.37     803.00      28.34
 93.47     765.00      27.66
 93.57     852.00      29.19
 93.67     828.60      28.79
 93.77     784.74      28.01
 93.87     815.89      28.56
 93.97     844.62      29.06
 94.07     837.00      28.93
 94.17     806.53      28.40
 94.27     881.83      29.70
 94.37     877.57      29.62
 94.47     828.68      28.79
 94.57     919.86      30.33
 94.67     938.21      30.63
 94.77     921.00      30.35
 94.87     918.45      30.31
 94.97     829.99      28.81
 95.07     905.00      30.08
 95.17     889.43      29.82
 95.27     861.00      29.34
 95.37     824.62      28.72
 95.47     736.10      27.13
 95.57     704.07      26.53
 95.67     740.00      27.20
 95.77     743.00      27.26
 95.87     650.77      25.51
 95.97     644.11      25.38
 96.07     730.49      27.03
 96.17     724.00      26.91
 96.27     732.00      27.06
 96.37     772.00      27.78
 96.47     798.00      28.25
 96.57     852.66      29.20
 96.67     907.00      30.12
 96.77    1003.00      31.67
 96.87    1034.00      32.16
 96.97    1101.00      33.18
 97.07    1260.17      35.50
 97.17    1343.31      36.65
 97.27    1350.35      36.75
 97.37    1397.00      37.38
 97.47    1367.75      36.98
 97.57    1458.00      38.18
 97.67    1413.00      37.59
 97.77    1355.15      36.81
 97.87    1356.00      36.82
 97.97    1262.00      35.52
 98.07    1266.00      35.58
 98.17    1131.00      33.63
 98.27    1107.00      33.27
 98.37    1055.00      32.48
 98.47     955.00      30.90
 98.57     854.00      29.22
 98.67     884.00      29.73
 98.77     772.00      27.78
 98.87     783.58      27.99
 98.97     820.00      28.64
 99.07     768.89      27.73
 99.17     848.00      29.12
 99.27     847.00      29.10
 99.37     900.84      30.01
 99.47     970.51      31.15
 99.57    1090.00      33.02
 99.67    1151.00      33.93
 99.77    1364.00      36.93
 99.87    1391.00      37.30
 99.97    1532.99      39.15
100.07    1594.85      39.94
100.17    1713.00      41.39
100.27    1855.00      43.07
100.37    1927.77      43.91
100.47    2093.00      45.75
100.57    2045.08      45.22
100.67    2085.00      45.66
100.77    2095.00      45.77
100.87    2074.28      45.54
100.97    2027.00      45.02
101.07    1929.29      43.92
101.17    1978.00      44.47
101.27    1747.00      41.80
101.37    1657.00      40.71
101.47    1584.00      39.80
101.57    1445.45      38.02
101.67    1450.00      38.08
101.77    1301.56      36.08
101.87    1247.37      35.32
101.97    1198.33      34.62
102.07    1218.27      34.90
102.17    1212.51      34.82
102.27    1202.23      34.67
102.37    1083.00      32.91
102.47    1074.00      32.77
102.57    1099.00      33.15
102.67    1075.00      32.79
102.77    1049.00      32.39
102.87     958.00      30.95
102.97     972.00      31.18
103.07     901.00      30.02
103.17     864.00      29.39
103.27     866.00      29.43
103.37     803.55      28.35
103.47     766.00      27.68
103.57     730.00      27.02
103.67     662.14      25.73
103.77     718.08      26.80
103.87     684.75      26.17
103.97     631.94      25.14
104.07     582.00      24.12
104.17     599.00      24.47
104.27     597.00      24.43
104.37     560.00      23.66
104.47     509.86      22.58
104.57     537.36      23.18
104.67     564.00      23.75
104.77     550.49      23.46
104.87     507.38      22.53
104.97     519.79      22.80
105.07     571.75      23.91
105.17     570.00      23.87
105.27     504.10      22.45
105.37     545.00      23.35
105.47     536.00      23.15
105.57     590.00      24.29
105.67     550.00      23.45
105.77     517.00      22.74
105.87     554.00      23.54
105.97     582.00      24.12
106.07     557.00      23.60
106.17     616.00      24.82
106.27     602.00      24.54
106.37     572.33      23.92
106.47     635.00      25.20
106.57     628.31      25.07
106.67     603.62      24.57
106.77     631.00      25.12
106.87     693.45      26.33
106.97     669.00      25.87
107.07     657.00      25.63
107.17     700.00      26.46
107.27     636.00      25.22
107.37     678.00      26.04
107.47     692.00      26.31
107.57     664.36      25.78
107.67     703.00      26.51
107.77     687.00      26.21
107.87     643.00      25.36
107.97     690.00      26.27
108.07     667.00      25.83
108.17     704.00      26.53
108.27     670.30      25.89
108.37     690.18      26.27
108.47     704.08      26.53
108.57     643.00      25.36
108.67     690.00      26.27
108.77     742.67      27.25
108.87     741.11      27.22
108.97     701.00      26.48
109.07     616.00      24.82
109.17     635.00      25.20
109.27     660.00      25.69
109.37     682.25      26.12
109.47     687.00      26.21
109.57     647.51      25.45
109.67     650.00      25.50
109.77     598.00      24.45
109.87     641.00      25.32
109.97     558.91      23.64
110.07     589.89      24.29
110.17     603.00      24.56
110.27     575.42      23.99
110.37     613.00      24.76
110.47     524.83      22.91
110.57     573.00      23.94
110.67     579.00      24.06
110.77     540.00      23.24
110.87     576.00      24.00
110.97     509.94      22.58
111.07     540.00      23.24
111.17     517.00      22.74
111.27     556.00      23.58
111.37     577.80      24.04
111.47     518.00      22.76
111.57     520.00      22.80
111.67     509.00      22.56
111.77     537.00      23.17
111.87     520.00      22.80
111.97     558.20      23.63
112.07     571.21      23.90
112.17     603.00      24.56
112.27     639.00      25.28
112.37     627.31      25.05
112.47     630.82      25.12
112.57     595.00      24.39
112.67     595.18      24.40
112.77     584.58      24.18
112.87     619.00      24.88
112.97     632.36      25.15
113.07     631.00      25.12
113.17     654.00      25.57
113.27     688.00      26.23
113.37     724.00      26.91
113.47     702.40      26.50
113.57     798.94      28.27
113.67     769.35      27.74
113.77     846.00      29.09
113.87     920.83      30.35
113.97     875.11      29.58
114.07     958.00      30.95
114.17    1041.38      32.27
114.27    1042.00      32.28
114.37    1155.86      34.00
114.47    1282.00      35.81
114.57    1355.00      36.81
114.67    1579.00      39.74
114.77    1711.00      41.36
114.87    1895.00      43.53
114.97    1971.19      44.40
115.07    2322.00      48.19
115.17    2574.00      50.73
115.27    2697.72      51.94
115.37    3149.00      56.12
115.47    3544.00      59.53
115.57    3882.00      62.31
115.67    4124.00      64.22
115.77    4661.00      68.27
115.87    4815.00      69.39
115.97    5211.00      72.19
116.07    5632.00      75.05
116.17    6123.85      78.26
116.27    6443.18      80.27
116.37    6511.30      80.69
116.47    6841.00      82.71
116.57    6843.00      82.72
116.67    6841.23      82.71
116.77    6959.00      83.42
116.87    6775.00      82.31
116.97    6715.00      81.95
117.07    6378.00      79.86
117.17    6235.06      78.96
117.27    5796.11      76.13
117.37    5438.55      73.75
117.47    5189.62      72.04
117.57    4620.00      67.97
117.67    4255.05      65.23
117.77    3861.57      62.14
117.87    3605.71      60.05
117.97    3174.00      56.34
118.07    2845.47      53.34
118.17    2515.61      50.16
118.27    2278.00      47.73
118.37    1866.00      43.20
118.47    1762.44      41.98
118.57    1624.16      40.30
118.67    1439.42      37.94
118.77    1290.99      35.93
118.87    1209.98      34.78
118.97    1040.00      32.25
119.07     938.00      30.63
119.17     952.00      30.85
119.27     813.00      28.51
119.37     815.11      28.55
119.47     741.00      27.22
119.57     734.57      27.10
119.67     657.00      25.63
119.77     725.00      26.93
119.87     633.67      25.17
119.97     628.00      25.06
120.07     609.31      24.68
120.17     629.34      25.09
120.27     588.11      24.25
120.37     575.00      23.98
120.47     546.00      23.37
120.57     562.16      23.71
120.67     538.45      23.20
120.77     556.00      23.58
120.87     552.00      23.49
120.97     570.00      23.87
121.07     498.00      22.32
121.17     567.18      23.82
121.27     619.67      24.89
121.37     573.00      23.94
121.47     621.74      24.93
121.57     589.25      24.27
121.67     579.00      24.06
121.77     585.86      24.20
121.87     542.00      23.28
121.97     642.03      25.34
122.07     628.00      25.06
122.17     630.00      25.10
122.27     578.66      24.06
122.37     683.00      26.13
122.47     600.00      24.49
122.57     614.00      24.78
122.67     645.00      25.40
122.77     668.19      25.85
122.87     673.00      25.94
122.97     684.12      26.16
123.07     661.00      25.71
123.17     641.00      25.32
123.27     612.10      24.74
123.37     621.14      24.92
123.47     655.00      25.59
123.57     654.27      25.58
123.67     624.00      24.98
123.77     663.00      25.75
123.87     653.12      25.56
123.97     623.00      24.96
124.07     602.07      24.54
124.17     609.00      24.68
124.27     611.00      24.72
124.37     551.83      23.49
124.47     593.22      24.36
124.57     582.00      24.12
124.67     562.00      23.71
124.77     589.00      24.27
124.87     570.00      23.87
124.97     563.00      23.73
