  9.97     607.36      24.64
 10.07     582.00      24.12
 10.17     582.64      24.14
 10.27     593.00      24.35
 10.37     532.46      23.08
 10.47     588.36      24.26
 10.57     562.00      23.71
 10.67     558.89      23.64
 10.77     593.00      24.35
 10.87     573.00      23.94
 10.97     588.00      24.25
 11.07     616.00      24.82
 11.17     570.00      23.87
 11.27     614.73      24.79
 11.37     540.78      23.25
 11.47     599.06      24.48
 11.57     565.00      23.77
 11.67     607.72      24.65
 11.77     547.15      23.39
 11.87     598.00      24.45
 11.97     602.14      24.54
 12.07     635.62      25.21
 12.17     656.00      25.61
 12.27     687.00      26.21
 12.37     678.00      26.04
 12.47     646.36      25.42
 12.57     577.22      24.03
 12.67     597.48      24.44
 12.77     545.00      23.35
 12.87     602.21      24.54
 12.97     558.00      23.62
 13.07     559.33      23.65
 13.17     601.23      24.52
 13.27     530.46      23.03
 13.37     576.01      24.00
 13.47     591.00      24.31
 13.57     559.31      23.65
 13.67     544.00      23.32
 13.77     569.18      23.86
 13.87     530.27      23.03
 13.97     603.99      24.58
 14.07     532.76      23.08
 14.17     540.13      23.24
 14.27     592.92      24.35
 14.37     550.00      23.45
 14.47     556.00      23.58
 14.57     561.00      23.69
 14.67     576.14      24.00
 14.77     529.00      23.00
 14.87     557.00      23.60
 14.97     585.14      24.19
 15.07     592.74      24.35
 15.17     552.00      23.49
 15.27     551.00      23.47
 15.37     570.00      23.87
 15.47     560.00      23.66
 15.57     549.00      23.43
 15.67     525.14      22.92
 15.77     602.00      24.54
 15.87     594.23      24.38
 15.97     574.00      23.96
 16.07     520.00      22.80
 16.17     557.00      23.60
 16.27     578.00      24.04
 16.37     575.00      23.98
 16.47     555.00      23.56
 16.57     608.00      24.66
 16.67     532.00      23.07
 16.77     546.00      23.37
 16.87     575.15      23.98
 16.97     561.70      23.70
 17.07     533.00      23.09
 17.17     523.00      22.87
 17.27     525.00      22.91
 17.37     584.00      24.17
 17.47     550.00      23.45
 17.57     534.00      23.11
 17.67     507.00      22.52
 17.77     573.23      23.94
 17.87     518.44      22.77
 17.97     523.34      22.88
 18.07     547.54      23.40
 18.17     524.39      22.90
 18.27     592.56      24.34
 18.37     559.99      23.66
 18.47     535.00      23.13
 18.57     569.00      23.85
 18.67     601.00      24.52
 18.77     552.00      23.49
 18.87     608.00      24.66
 18.97     577.00      24.02
 19.07     525.00      22.91
 19.17     541.86      23.28
 19.27     546.00      23.37
 19.37     582.00      24.12
 19.47     599.00      24.47
 19.57     539.00      23.22
 19.67     513.50      22.66
 19.77     576.00      24.00
 19.87     597.24      24.44
 19.97     586.47      24.22
 20.07     551.00      23.47
 20.17     507.55      22.53
 20.27     546.70      23.38
 20.37     584.00      24.17
 20.47     549.00      23.43
 20.57     598.62      24.47
 20.67     535.00      23.13
 20.77     538.00      23.19
 20.87     494.00      22.23
 20.97     584.00      24.17
 21.07     580.48      24.09
 21.17     599.41      24.48
 21.27     595.00      24.39
 21.37     531.27      23.05
 21.47     574.51      23.97
 21.57     596.20      24.42
 21.67     579.09      24.06
 21.77     553.00      23.52
 21.87     582.00      24.12
 21.97     535.00      23.13
 22.07     544.00      23.32
 22.17     553.00      23.52
 22.27     525.00      22.91
 22.37     564.02      23.75
 22.47     552.00      23.49
 22.57     538.51      23.21
 22.67     504.98      22.47
 22.77     555.00      23.56
 22.87     559.26      23.65
 22.97     535.00      23.13
 23.07     532.95      23.09
 23.17     563.00      23.73
 23.27     503.23      22.43
 23.37     568.00      23.83
 23.47     539.56      23.23
 23.57     504.94      22.47
 23.67     530.00      23.02
 23.77     547.00      23.39
 23.87     570.00      23.87
 23.97     504.59      22.46
 24.07     549.00      23.43
 24.17     571.00      23.90
 24.27     515.00      22.69
 24.37     551.00      23.47
 24.47     614.00      24.78
 24.57     585.64      24.20
 24.67     577.00      24.02
 24.77     593.00      24.35
 24.87     614.00      24.78
 24.97     576.00      24.00
 25.07     559.06      23.64
 25.17     557.00      23.60
 25.27     519.00      22.78
 25.37     576.00      24.00
 25.47     577.01      24.02
 25.57     622.00      24.94
 25.67     588.10      24.25
 25.77     521.00      22.83
 25.87     540.00      23.24
 25.97     542.00      23.28
 26.07     553.84      23.53
 26.17     587.00      24.23
 26.27     552.00      23.49
 26.37     522.00      22.85
 26.47     525.83      22.93
 26.57     636.00      25.22
 26.67     545.45      23.35
 26.77     535.00      23.13
 26.87     537.00      23.17
 26.97     496.61      22.28
 27.07     581.63      24.12
 27.17     500.00      22.36
 27.27     583.00      24.15
 27.37     535.00      23.13
 27.47     567.00      23.81
 27.57     564.00      23.75
 27.67     600.72      24.51
 27.77     607.00      24.64
 27.87     595.00      24.39
 27.97     692.00      26.31
 28.07     740.56      27.21
 28.17     864.00      29.39
 28.27     922.00      30.36
 28.37     908.00      30.13
 28.47     821.73      28.67
 28.57     693.00      26.32
 28.67     710.03      26.65
 28.77     747.00      27.33
 28.87     814.00      28.53
 28.97     840.18      28.99
 29.07     818.49      28.61
 29.17     686.00      26.19
 29.27     665.14      25.79
 29.37     609.00      24.68
 29.47     637.00      25.24
 29.57     646.00      25.42
 29.67     632.00      25.14
 29.77     623.00      24.96
 29.87     602.00      24.54
 29.97     578.00      24.04
 30.07     554.70      23.55
 30.17     550.16      23.46
 30.27     551.90      23.49
 30.37     638.00      25.26
 30.47     540.00      23.24
 30.57     561.00      23.69
 30.67     585.00      24.19
 30.77     598.23      24.46
 30.87     609.70      24.69
 30.97     663.00      25.75
 31.07     544.00      23.32
 31.17     621.15      24.92
 31.27     565.00      23.77
 31.37     500.92      22.38
 31.47     531.76      23.06
 31.57     489.20      22.12
 31.67     538.00      23.19
 31.77     497.60      22.31
 31.87     569.00      23.85
 31.97     513.00      22.65
 32.07     549.00      23.43
 32.17     559.00      23.64
 32.27     544.00      23.32
 32.37     575.00      23.98
 32.47     486.64      22.06
 32.57     569.29      23.86
 32.67     581.00      24.10
 32.77     562.00      23.71
 32.87     550.80      23.47
 32.97     538.26      23.20
 33.07     530.36      23.03
 33.17     525.00      22.91
 33.27     497.00      22.29
 33.37     500.50      22.37
 33.47     519.08      22.78
 33.57     580.00      24.08
 33.67     636.46      25.23
 33.77     724.00      26.91
 33.87     873.00      29.55
 33.97     964.15      31.05
 34.07    1088.39      32.99
 34.17    1071.00      32.73
 34.27     885.00      29.75
 34.37     734.00      27.09
 34.47     663.08      25.75
 34.57     559.64      23.66
 34.67     558.00      23.62
 34.77     537.00      23.17
 34.87     545.00      23.35
 34.97     542.00      23.28
 35.07     553.19      23.52
 35.17     500.47      22.37
 35.27     537.00      23.17
 35.37     490.31      22.14
 35.47     482.00      21.95
 35.57     533.00      23.09
 35.67     513.02      22.65
 35.77     493.00      22.20
 35.87     503.00      22.43
 35.97     537.00      23.17
 36.07     504.10      22.45
 36.17     515.00      22.69
 36.27     520.00      22.80
 36.37     492.00      22.18
 36.47     552.22      23.50
 36.57     521.00      22.83
 36.67     526.00      22.93
 36.77     529.00      23.00
 36.87     540.84      23.26
 36.97     509.00      22.56
 37.07     502.41      22.41
 37.17     528.00      22.98
 37.27     501.00      22.38
 37.37     565.30      23.78
 37.47     555.00      23.56
 37.57     535.00      23.13
 37.67     556.23      23.58
 37.77     507.00      22.52
 37.87     532.00      23.07
 37.97     517.00      22.74
 38.07     506.40      22.50
 38.17     476.81      21.84
 38.27     512.00      22.63
 38.37     538.00      23.19
 38.47     488.00      22.09
 38.57     554.95      23.56
 38.67     514.02      22.67
 38.77     515.11      22.70
 38.87     494.00      22.23
 38.97     512.00      22.63
 39.07     485.00      22.02
 39.17     485.00      22.02
 39.27     494.00      22.23
 39.37     489.00      22.11
 39.47     502.00      22.41
 39.57     555.00      23.56
 39.67     520.00      22.80
 39.77     531.58      23.06
 39.87     542.00      23.28
 39.97     461.00      21.47
 40.07     534.00      23.11
 40.17     529.00      23.00
 40.27     474.00      21.77
 40.37     475.00      21.79
 40.47     493.00      22.20
 40.57     503.00      22.43
 40.67     483.87      22.00
 40.77     502.00      22.41
 40.87     499.00      22.34
 40.97     510.00      22.58
 41.07     488.00      22.09
 41.17     524.31      22.90
 41.27     493.61      22.22
 41.37     484.86      22.02
 41.47     436.00      20.88
 41.57     477.05      21.84
 41.67     523.00      22.87
 41.77     501.00      22.38
 41.87     516.00      22.72
 41.97     480.00      21.91
 42.07     510.60      22.60
 42.17     502.00      22.41
 42.27     543.00      23.30
 42.37     533.23      23.09
 42.47     577.00      24.02
 42.57     557.00      23.60
 42.67     620.00      24.90
 42.77     608.00      24.66
 42.87     615.00      24.80
 42.97     585.00      24.19
 43.07     561.00      23.69
 43.17     526.00      22.93
 43.27     546.44      23.38
 43.37     493.59      22.22
 43.47     523.00      22.87
 43.57     542.00      23.28
 43.67     537.00      23.17
 43.77     550.00      23.45
 43.87     550.54      23.46
 43.97     474.81      21.79
 44.07     484.00      22.00
 44.17     486.71      22.06
 44.27     500.00      22.36
 44.37     490.00      22.14
 44.47     502.00      22.41
 44.57     519.00      22.78
 44.67     548.06      23.41
 44.77     530.59      23.03
 44.87     520.00      22.80
 44.97     523.00      22.87
 45.07     480.25      21.91
 45.17     487.18      22.07
 45.27     513.00      22.65
 45.37     501.56      22.40
 45.47     502.00      22.41
 45.57     492.73      22.20
 45.67     527.90      22.98
 45.77     505.00      22.47
 45.87     538.88      23.21
 45.97     478.00      21.86
 46.07     500.00      22.36
 46.17     479.61      21.90
 46.27     532.44      23.07
 46.37     530.61      23.04
 46.47     513.00      22.65
 46.57     535.00      23.13
 46.67     484.27      22.01
 46.77     480.27      21.92
 46.87     498.00      22.32
 46.97     475.64      21.81
 47.07     525.98      22.93
 47.17     470.00      21.68
 47.27     530.00      23.02
 47.37     513.75      22.67
 47.47     584.00      24.17
 47.57     579.00      24.06
 47.67     600.00      24.49
 47.77     633.00      25.16
 47.87     622.00      24.94
 47.97     560.00      23.66
 48.07     535.26      23.14
 48.17     581.04      24.10
 48.27     525.89      22.93
 48.37     530.00      23.02
 48.47     566.19      23.79
 48.57     522.48      22.86
 48.67     537.00      23.17
 48.77     510.70      22.60
 48.87     558.00      23.62
 48.97     542.00      23.28
 49.07     559.00      23.64
 49.17     639.91      25.30
 49.27     587.00      24.23
 49.37     640.00      25.30
 49.47     675.67      25.99
 49.57     797.00      28.23
 49.67     862.03      29.36
 49.77    1069.36      32.70
 49.87    1490.00      38.60
 49.97    1813.00      42.58
 50.07    2143.97      46.30
 50.17    2450.75      49.51
 50.27    2590.12      50.89
 50.37    2311.00      48.07
 50.47    1891.09      43.49
 50.57    1371.00      37.03
 50.67    1008.00      31.75
 50.77     850.00      29.15
 50.87     710.43      26.65
 50.97     689.00      26.25
 51.07     629.00      25.08
 51.17     572.45      23.93
 51.27     602.00      24.54
 51.37     619.01      24.88
 51.47     584.00      24.17
 51.57     576.00      24.00
 51.67     541.00      23.26
 51.77     569.36      23.86
 51.87     522.98      22.87
 51.97     556.00      23.58
 52.07     545.90      23.36
 52.17     492.00      22.18
 52.27     548.00      23.41
 52.37     592.00      24.33
 52.47     543.00      23.30
 52.57     564.00      23.75
 52.67     581.85      24.12
 52.77     607.00      24.64
 52.87     655.82      25.61
 52.97     644.97      25.40
 53.07     826.00      28.74
 53.17     877.00      29.61
 53.27    1064.00      32.62
 53.37    1169.06      34.19
 53.47    1174.00      34.26
 53.57    1184.00      34.41
 53.67    1051.00      32.42
 53.77     984.00      31.37
 53.87     846.00      29.09
 53.97     768.00      27.71
 54.07     654.44      25.58
 54.17     622.95      24.96
 54.27     632.45      25.15
 54.37     554.00      23.54
 54.47     551.00      23.47
 54.57     546.00      23.37
 54.67     528.97      23.00
 54.77     584.00      24.17
 54.87     534.00      23.11
 54.97     516.88      22.73
 55.07     563.00      23.73
 55.17     576.00      24.00
 55.27     586.00      24.21
 55.37     603.00      24.56
 55.47     552.00      23.49
 55.57     588.00      24.25
 55.67     570.00      23.87
 55.77     594.00      24.37
 55.87     560.14      23.67
 55.97     635.19      25.20
 56.07     658.00      25.65
 56.17     809.40      28.45
 56.27     824.00      28.71
 56.37    1020.00      31.94
 56.47    1366.00      36.96
 56.57    1797.00      42.39
 56.67    2184.00      46.73
 56.77    2378.00      48.76
 56.87    2684.00      51.81
 56.97    2641.80      51.40
 57.07    2300.56      47.96
 57.17    2067.00      45.46
 57.27    1669.00      40.85
 57.37    1377.00      37.11
 57.47    1050.00      32.40
 57.57     829.35      28.80
 57.67     759.00      27.55
 57.77     666.58      25.82
 57.87     706.84      26.59
 57.97     666.92      25.82
 58.07     659.64      25.68
 58.17     693.88      26.34
 58.27     790.00      28.11
 58.37     907.19      30.12
 58.47     941.23      30.68
 58.57    1084.00      32.92
 58.67    1239.00      35.20
 58.77    1352.99      36.78
 58.87    1514.04      38.91
 58.97    1543.00      39.28
 59.07    1617.00      40.21
 59.17    1570.00      39.62
 59.27    1517.00      38.95
 59.37    1306.00      36.14
 59.47    1238.36      35.19
 59.57    1126.66      33.57
 59.67    1115.32      33.40
 59.77    1191.00      34.51
 59.87    1223.00      34.97
 59.97    1350.00      36.74
 60.07    1439.00      37.93
 60.17    1451.94      38.10
 60.27    1546.00      39.32
 60.37    1469.00      38.33
 60.47    1415.00      37.62
 60.57    1228.00      35.04
 60.67    1042.00      32.28
 60.77     892.71      29.88
 60.87     800.00      28.28
 60.97     727.00      26.96
 61.07     667.00      25.83
 61.17     605.92      24.62
 61.27     677.00      26.02
 61.37     680.00      26.08
 61.47     668.00      25.85
 61.57     733.00      27.07
 61.67     837.00      28.93
 61.77     918.04      30.30
 61.87    1084.00      32.92
 61.97    1195.00      34.57
 62.07    1361.00      36.89
 62.17    1369.00      37.00
 62.27    1473.04      38.38
 62.37    1388.54      37.26
 62.47    1195.00      34.57
 62.57     996.00      31.56
 62.67     877.00      29.61
 62.77     755.34      27.48
 62.87     719.51      26.82
 62.97     635.00      25.20
 63.07     581.00      24.10
 63.17     600.27      24.50
 63.27     568.82      23.85
 63.37     607.00      24.64
 63.47     592.41      24.34
 63.57     571.37      23.90
 63.67     586.00      24.21
 63.77     613.06      24.76
 63.87     626.00      25.02
 63.97     670.80      25.90
 64.07     755.00      27.48
 64.17     796.00      28.21
 64.27     850.00      29.15
 64.37     939.72      30.65
 64.47    1016.56      31.88
 64.57     991.00      31.48
 64.67    1003.31      31.68
 64.77    1043.41      32.30
 64.87     987.00      31.42
 64.97     972.00      31.18
 65.07     848.00      29.12
 65.17     802.00      28.32
 65.27     762.00      27.60
 65.37     630.00      25.10
 65.47     674.44      25.97
 65.57     644.00      25.38
 65.67     591.00      24.31
 65.77     568.00      23.83
 65.87     598.00      24.45
 65.97     593.00      24.35
 66.07     538.82      23.21
 66.17     568.00      23.83
 66.27     557.14      23.60
 66.37     552.00      23.49
 66.47     502.00      22.41
 66.57     548.00      23.41
 66.67     566.00      23.79
 66.77     551.00      23.47
 66.87     564.00      23.75
 66.97     646.90      25.43
 67.07     623.71      24.97
 67.17     687.00      26.21
 67.27     756.00      27.50
 67.37     849.95      29.15
 67.47    1031.00      32.11
 67.57    1279.00      35.76
 67.67    1551.00      39.38
 67.77    1879.55      43.35
 67.87    2067.00      45.46
 67.97    2240.00      47.33
 68.07    2438.00      49.38
 68.17    2449.84      49.50
 68.27    2230.52      47.23
 68.37    2114.00      45.98
 68.47    1811.00      42.56
 68.57    1550.74      39.38
 68.67    1272.00      35.67
 68.77    1052.00      32.43
 68.87     849.46      29.15
 68.97     747.00      27.33
 69.07     655.74      25.61
 69.17     633.00      25.16
 69.27     621.00      24.92
 69.37     596.00      24.41
 69.47     571.16      23.90
 69.57     599.00      24.47
 69.67     584.55      24.18
 69.77     590.00      24.29
 69.87     609.43      24.69
 69.97     595.04      24.39
 70.07     581.00      24.10
 70.17     530.00      23.02
 70.27     573.00      23.94
 70.37     596.00      24.41
 70.47     562.00      23.71
 70.57     571.00      23.90
 70.67     590.00      24.29
 70.77     596.87      24.43
 70.87     594.00      24.37
 70.97     633.00      25.16
 71.07     628.86      25.08
 71.17     703.00      26.51
 71.27     831.00      28.83
 71.37     891.00      29.85
 71.47    1125.95      33.56
 71.57    1239.00      35.20
 71.67    1352.00      36.77
 71.77    1631.00      40.39
 71.87    1761.34      41.97
 71.97    1884.00      43.41
 72.07    1919.00      43.81
 72.17    1935.27      43.99
 72.27    1793.97      42.36
 72.37    1629.00      40.36
 72.47    1466.27      38.29
 72.57    1369.00      37.00
 72.67    1141.05      33.78
 72.77    1049.65      32.40
 72.87     943.70      30.72
 72.97     927.36      30.45
 73.07     829.00      28.79
 73.17     679.00      26.06
 73.27     700.00      26.46
 73.37     692.00      26.31
 73.47     709.66      26.64
 73.57     633.47      25.17
 73.67     604.05      24.58
 73.77     642.36      25.34
 73.87     579.00      24.06
 73.97     594.09      24.37
 74.07     593.00      24.35
 74.17     596.99      24.43
 74.27     626.45      25.03
 74.37     534.64      23.12
 74.47     639.00      25.28
 74.57     587.48      24.24
 74.67     525.78      22.93
 74.77     655.00      25.59
 74.87     628.00      25.06
 74.97     688.00      26.23
 75.07     575.05      23.98
 75.17     572.00      23.92
 75.27     584.00      24.17
 75.37     582.00      24.12
 75.47     573.00      23.94
 75.57     583.00      24.15
 75.67     543.53      23.31
 75.77     602.41      24.54
 75.87     609.30      24.68
 75.97     594.00      24.37
 76.07     593.00      24.35
 76.17     672.00      25.92
 76.27     694.21      26.35
 76.37     702.00      26.50
 76.47     703.00      26.51
 76.57     701.00      26.48
 76.67     690.01      26.27
 76.77     708.00      26.61
 76.87     645.00      25.40
 76.97     608.00      24.66
 77.07     653.08      25.56
 77.17     650.46      25.50
 77.27     525.00      22.91
 77.37     520.00      22.80
 77.47     536.26      23.16
 77.57     585.03      24.19
 77.67     552.00      23.49
 77.77     535.00      23.13
 77.87     490.56      22.15
 77.97     565.00      23.77
 78.07     556.62      23.59
 78.17     520.00      22.80
 78.27     522.57      22.86
 78.37     519.00      22.78
 78.47     488.93      22.11
 78.57     531.00      23.04
 78.67     548.00      23.41
 78.77     537.00      23.17
 78.87     492.00      22.18
 78.97     517.00      22.74
 79.07     497.03      22.29
 79.17     573.80      23.95
 79.27     582.00      24.12
 79.37     569.00      23.85
 79.47     501.95      22.40
 79.57     504.30      22.46
 79.67     483.00      21.98
 79.77     528.00      22.98
 79.87     503.00      22.43
 79.97     578.00      24.04
 80.07     556.26      23.59
 80.17     566.00      23.79
 80.27     575.11      23.98
 80.37     574.82      23.98
 80.47     577.23      24.03
 80.57     660.63      25.70
 80.67     647.00      25.44
 80.77     627.21      25.04
 80.87     668.00      25.85
 80.97     682.00      26.12
 81.07     727.00      26.96
 81.17     715.00      26.74
 81.27     723.00      26.89
 81.37     748.00      27.35
 81.47     706.00      26.57
 81.57     783.00      27.98
 81.67     796.00      28.21
 81.77     755.00      27.48
 81.87     733.00      27.07
 81.97     687.00      26.21
 82.07     722.05      26.87
 82.17     647.70      25.45
 82.27     685.71      26.19
 82.37     640.69      25.31
 82.47     577.14      24.02
 82.57     590.00      24.29
 82.67     561.00      23.69
 82.77     571.00      23.90
 82.87     581.02      24.10
 82.97     533.00      23.09
 83.07     532.00      23.07
 83.17     553.00      23.52
 83.27     528.00      22.98
 83.37     582.00      24.12
 83.47     569.00      23.85
 83.57     527.14      22.96
 83.67     569.00      23.85
 83.77     579.19      24.07
 83.87     554.00      23.54
 83.97     533.00      23.09
 84.07     578.00      24.04
 84.17     518.00      22.76
 84.27     607.00      24.64
 84.37     573.00      23.94
 84.47     533.00      23.09
 84.57     568.60      23.85
 84.67     561.15      23.69
 84.77     559.13      23.65
 84.87     529.00      23.00
 84.97     519.00      22.78
 85.07     533.46      23.10
 85.17     566.00      23.79
 85.27     504.11      22.45
 85.37     527.00      22.96
 85.47     518.78      22.78
 85.57     550.00      23.45
 85.67     517.00      22.74
 85.77     516.84      22.73
 85.87     515.00      22.69
 85.97     502.00      22.41
 86.07     540.64      23.25
 86.17     547.00      23.39
 86.27     533.00      23.09
 86.37     582.83      24.14
 86.47     549.84      23.45
 86.57     591.75      24.33
 86.67     557.00      23.60
 86.77     638.00      25.26
 86.87     576.00      24.00
 86.97     575.00      23.98
 87.07     608.00      24.66
 87.17     630.00      25.10
 87.27     658.71      25.67
 87.37     665.37      25.79
 87.47     643.59      25.37
 87.57     599.33      24.48
 87.67     604.41      24.58
 87.77     688.00      26.23
 87.87     632.00      25.14
 87.97     597.00      24.43
 88.07     593.24      24.36
 88.17     602.00      24.54
 88.27     620.00      24.90
 88.37     565.68      23.78
 88.47     580.00      24.08
 88.57     544.00      23.32
 88.67     584.77      24.18
 88.77     615.00      24.80
 88.87     604.00      24.58
 88.97     586.00      24.21
 89.07     582.00      24.12
 89.17     597.00      24.43
 89.27     633.50      25.17
 89.37     598.28      24.46
 89.47     642.77      25.35
 89.57     608.24      24.66
 89.67     546.00      23.37
 89.77     556.00      23.58
 89.87     566.85      23.81
 89.97     536.00      23.15
 90.07     517.00      22.74
 90.17     533.00      23.09
 90.27     564.00      23.75
 90.37     519.18      22.79
 90.47     497.73      22.31
 90.57     512.00      22.63
 90.67     542.38      23.29
 90.77     523.00      22.87
 90.87     531.00      23.04
 90.97     550.00      23.45
 91.07     476.00      21.82
 91.17     543.00      23.30
 91.27     526.00      22.93
 91.37     474.00      21.77
 91.47     499.33      22.35
 91.57     564.26      23.75
 91.67     569.94      23.87
 91.77     519.00      22.78
 91.87     556.62      23.59
 91.97     545.00      23.35
 92.07     530.00      23.02
 92.17     570.00      23.87
 92.27     574.00      23.96
 92.37     584.00      24.17
 92.47     622.00      24.94
 92.57     611.00      24.72
 92.67     612.68      24.75
 92.77     683.00      26.13
 92.87     732.00      27.06
 92.97     781.00      27.95
 93.07     692.10      26.31
 93.17     792.54      28.15
 93.27     819.11      28.62
 93.37     809.00      28.44
 93.47     786.00      28.04
 93.57     845.02      29.07
 93.67     869.00      29.48
 93.77     851.13      29.17
 93.87     882.00      29.70
 93.97     824.72      28.72
 94.07     855.00      29.24
 94.17     851.00      29.17
 94.27     905.28      30.09
 94.37     896.00      29.93
 94.47     836.33      28.92
 94.57     913.00      30.22
 94.67     908.00      30.13
 94.77     911.00      30.18
 94.87     848.18      29.12
 94.97     847.00      29.10
 95.07     905.94      30.10
 95.17     904.00      30.07
 95.27     765.47      27.67
 95.37     831.00      28.83
 95.47     721.38      26.86
 95.57     739.00      27.18
 95.67     707.00      26.59
 95.77     703.00      26.51
 95.87     668.00      25.85
 95.97     670.34      25.89
 96.07     681.13      26.10
 96.17     703.00      26.51
 96.27     808.00      28.43
 96.37     765.00      27.66
 96.47     847.00      29.10
 96.57     855.68      29.25
 96.67     875.00      29.58
 96.77     995.24      31.55
 96.87    1093.75      33.07
 96.97    1117.00      33.42
 97.07    1261.00      35.51
 97.17    1232.00      35.10
 97.27    1364.00      36.93
 97.37    1402.61      37.45
 97.47    1425.00      37.75
 97.57    1460.00      38.21
 97.67    1441.86      37.97
 97.77    1456.00      38.16
 97.87    1375.15      37.08
 97.97    1336.41      36.56
 98.07    1263.09      35.54
 98.17    1080.01      32.86
 98.27    1083.00      32.91
 98.37     953.75      30.88
 98.47     976.00      31.24
 98.57     880.72      29.68
 98.67     879.00      29.65
 98.77     824.00      28.71
 98.87     780.00      27.93
 98.97     763.00      27.62
 99.07     793.00      28.16
 99.17     825.00      28.72
 99.27     909.00      30.15
 99.37     913.00      30.22
 99.47    1020.00      31.94
 99.57    1110.00      33.32
 99.67    1175.00      34.28
 99.77    1306.00      36.14
 99.87    1408.46      37.53
 99.97    1483.00      38.51
100.07    1661.00      40.76
100.17    1793.00      42.34
100.27    1799.00      42.41
100.37    1888.33      43.45
100.47    1997.00      44.69
100.57    2046.00      45.23
100.67    2123.72      46.08
100.77    2061.27      45.40
100.87    2109.00      45.92
100.97    2068.20      45.48
101.07    2026.71      45.02
101.17    1847.14      42.98
101.27    1789.83      42.31
101.37    1677.65      40.96
101.47    1635.00      40.44
101.57    1563.90      39.55
101.67    1415.00      37.62
101.77    1425.00      37.75
101.87    1316.00      36.28
101.97    1200.40      34.65
102.07    1168.48      34.18
102.17    1094.00      33.08
102.27    1163.00      34.10
102.37    1110.00      33.32
102.47    1151.08      33.93
102.57    1096.00      33.11
102.67    1068.12      32.68
102.77    1048.25      32.38
102.87    1047.78      32.37
102.97     959.00      30.97
103.07     908.00      30.13
103.17     831.00      28.83
103.27     806.00      28.39
103.37     793.00      28.16
103.47     777.00      27.87
103.57     741.00      27.22
103.67     736.17      27.13
103.77     693.00      26.32
103.87     636.61      25.23
103.97     652.00      25.53
104.07     668.00      25.85
104.17     600.00      24.49
104.27     596.00      24.41
104.37     554.00      23.54
104.47     571.49      23.91
104.57     519.76      22.80
104.67     513.68      22.66
104.77     509.37      22.57
104.87     532.00      23.07
104.97     554.00      23.54
105.07     544.00      23.32
105.17     558.00      23.62
105.27     542.00      23.28
105.37     538.00      23.19
105.47     570.00      23.87
105.57     551.00      23.47
105.67     514.92      22.69
105.77     530.00      23.02
105.87     594.00      24.37
105.97     550.44      23.46
106.07     560.00      23.66
106.17     563.00      23.73
106.27     579.82      24.08
106.37     594.00      24.37
106.47     609.00      24.68
106.57     619.36      24.89
106.67     589.65      24.28
106.77     620.00      24.90
106.87     642.00      25.34
106.97     662.00      25.73
107.07     640.00      25.30
107.17     665.00      25.79
107.27     651.00      25.51
107.37     713.96      26.72
107.47     694.83      26.36
107.57     674.00      25.96
107.67     661.00      25.71
107.77     663.00      25.75
107.87     706.00      26.57
107.97     653.00      25.55
108.07     687.00      26.21
108.17     668.00      25.85
108.27     646.49      25.43
108.37     648.00      25.46
108.47     669.00      25.87
108.57     681.00      26.10
108.67     652.00      25.53
108.77     685.00      26.17
108.87     698.00      26.42
108.97     633.23      25.16
109.07     634.00      25.18
109.17     648.00      25.46
109.27     693.00      26.32
109.37     605.00      24.60
109.47     650.00      25.50
109.57     667.25      25.83
109.67     641.00      25.32
109.77     585.36      24.19
109.87     608.00      24.66
109.97     649.00      25.48
110.07     602.81      24.55
110.17     562.00      23.71
110.27     601.00      24.52
110.37     558.00      23.62
110.47     589.00      24.27
110.57     514.71      22.69
110.67     570.16      23.88
110.77     563.00      23.73
110.87     533.10      23.09
110.97     493.42      22.21
111.07     537.00      23.17
111.17     546.00      23.37
111.27     525.00      22.91
111.37     544.93      23.34
111.47     509.00      22.56
111.57     563.00      23.73
111.67     535.00      23.13
111.77     527.39      22.96
111.87     531.88      23.06
111.97     520.00      22.80
112.07     533.00      23.09
112.17     578.00      24.04
112.27     585.00      24.19
112.37     655.00      25.59
112.47     555.21      23.56
112.57     606.61      24.63
112.67     630.00      25.10
112.77     654.00      25.57
112.87     675.00      25.98
112.97     637.35      25.25
113.07     705.62      26.56
113.17     743.95      27.28
113.27     687.08      26.21
113.37     774.00      27.82
113.47     743.00      27.26
113.57     793.00      28.16
113.67     857.00      29.27
113.77     834.68      28.89
113.87     981.75      31.33
113.97     959.68      30.98
114.07    1017.77      31.90
114.17    1022.00      31.97
114.27    1050.00      32.40
114.37    1258.00      35.47
114.47    1361.00      36.89
114.57    1416.00      37.63
114.67    1533.00      39.15
114.77    1671.00      40.88
114.87    1916.00      43.77
114.97    2114.00      45.98
115.07    2372.73      48.71
115.17    2578.00      50.77
115.27    2855.00      53.43
115.37    3133.00      55.97
115.47    3492.00      59.09
115.57    3723.00      61.02
115.67    4199.44      64.80
115.77    4423.00      66.51
115.87    4783.00      69.16
115.97    5212.00      72.19
116.07    5486.00      74.07
116.17    5944.73      77.10
116.27    6220.00      78.87
116.37    6545.36      80.90
116.47    6607.84      81.29
116.57    6845.00      82.73
116.67    6844.20      82.73
116.77    6952.03      83.38
116.87    6813.70      82.55
116.97    6687.00      81.77
117.07    6428.00      80.17
117.17    6149.00      78.42
117.27    5727.00      75.68
117.37    5322.00      72.95
117.47    5103.00      71.44
117.57    4653.00      68.21
117.67    4185.94      64.70
117.77    3926.58      62.66
117.87    3472.84      58.93
117.97    3241.00      56.93
118.07    2944.00      54.26
118.17    2573.00      50.72
118.27    2321.29      48.18
118.37    2047.00      45.24
118.47    1742.00      41.74
118.57    1600.00      40.00
118.67    1405.00      37.48
118.77    1243.00      35.26
118.87    1089.00      33.00
118.97    1062.00      32.59
119.07     993.00      31.51
119.17     873.57      29.56
119.27     778.25      27.90
119.37     786.01      28.04
119.47     723.75      26.90
119.57     704.11      26.54
119.67     663.00      25.75
119.77     632.77      25.15
119.87     615.85      24.82
119.97     635.00      25.20
120.07     646.49      25.43
120.17     556.83      23.60
120.27     576.00      24.00
120.37     634.71      25.19
120.47     558.00      23.62
120.57     548.15      23.41
120.67     588.00      24.25
120.77     575.00      23.98
120.87     555.42      23.57
120.97     585.00      24.19
121.07     580.00      24.08
121.17     574.07      23.96
121.27     580.00      24.08
121.37     569.94      23.87
121.47     623.74      24.97
121.57     559.00      23.64
121.67     583.00      24.15
121.77     590.00      24.29
121.87     554.00      23.54
121.97     589.00      24.27
122.07     613.42      24.77
122.17     621.00      24.92
122.27     617.00      24.84
122.37     591.00      24.31
122.47     617.00      24.84
122.57     656.00      25.61
122.67     620.00      24.90
122.77     636.00      25.22
122.87     629.00      25.08
122.97     696.00      26.38
123.07     672.00      25.92
123.17     658.00      25.65
123.27     646.00      25.42
123.37     621.00      24.92
123.47     608.81      24.67
123.57     673.56      25.95
123.67     653.75      25.57
123.77     612.00      24.74
123.87     654.00      25.57
123.97     563.00      23.73
124.07     639.00      25.28
124.17     572.62      23.93
124.27     660.00      25.69
124.37     602.30      24.54
124.47     648.71      25.47
124.57     572.00      23.92
124.67     601.00      24.52
124.77     625.32      25.01
124.87     564.00      23.75
124.97     568.00      23.83
