  9.97     606.00      24.62
 10.07     523.01      22.87
 10.17     582.77      24.14
 10.27     577.00      24.02
 10.37     532.33      23.07
 10.47     559.65      23.66
 10.57     577.45      24.03
 10.67     593.00      24.35
 10.77     535.58      23.14
 10.87     563.68      23.74
 10.97     577.00      24.02
 11.07     591.00      24.31
 11.17     573.34      23.94
 11.27     574.00      23.96
 11.37     612.00      24.74
 11.47     551.00      23.47
 11.57     614.00      24.78
 11.67     639.00      25.28
 11.77     598.33      24.46
 11.87     625.00      25.00
 11.97     603.52      24.57
 12.07     708.95      26.63
 12.17     697.00      26.40
 12.27     756.56      27.51
 12.37     571.00      23.90
 12.47     633.43      25.17
 12.57     611.00      24.72
 12.67     561.16      23.69
 12.77     596.00      24.41
 12.87     508.00      22.54
 12.97     539.00      23.22
 13.07     589.14      24.27
 13.17     570.39      23.88
 13.27     582.00      24.12
 13.37     568.00      23.83
 13.47     550.00      23.45
 13.57     584.00      24.17
 13.67     579.00      24.06
 13.77     603.86      24.57
 13.87     570.34      23.88
 13.97     572.16      23.92
 14.07     526.00      22.93
 14.17     568.00      23.83
 14.27     557.54      23.61
 14.37     531.35      23.05
 14.47     581.00      24.10
 14.57     616.13      24.82
 14.67     541.00      23.26
 14.77     545.56      23.36
 14.87     514.00      22.67
 14.97     593.00      24.35
 15.07     577.00      24.02
 15.17     568.00      23.83
 15.27     550.22      23.46
 15.37     584.00      24.17
 15.47     557.00      23.60
 15.57     599.00      24.47
 15.67     577.00      24.02
 15.77     608.54      24.67
 15.87     548.32      23.42
 15.97     529.00      23.00
 16.07     576.00      24.00
 16.17     541.52      23.27
 16.27     558.00      23.62
 16.37     582.00      24.12
 16.47     554.75      23.55
 16.57     620.00      24.90
 16.67     553.48      23.53
 16.77     569.00      23.85
 16.87     610.00      24.70
 16.97     569.00      23.85
 17.07     563.00      23.73
 17.17     562.00      23.71
 17.27     576.00      24.00
 17.37     551.00      23.47
 17.47     547.00      23.39
 17.57     624.00      24.98
 17.67     587.00      24.23
 17.77     594.35      24.38
 17.87     571.00      23.90
 17.97     569.00      23.85
 18.07     512.00      22.63
 18.17     556.00      23.58
 18.27     564.00      23.75
 18.37     585.00      24.19
 18.47     552.34      23.50
 18.57     542.77      23.30
 18.67     579.00      24.06
 18.77     571.00      23.90
 18.87     523.69      22.88
 18.97     566.30      23.80
 19.07     605.00      24.60
 19.17     587.89      24.25
 19.27     559.00      23.64
 19.37     522.00      22.85
 19.47     520.32      22.81
 19.57     596.00      24.41
 19.67     522.00      22.85
 19.77     544.00      23.32
 19.87     579.45      24.07
 19.97     568.83      23.85
 20.07     593.00      24.35
 20.17     515.93      22.71
 20.27     576.00      24.00
 20.37     568.00      23.83
 20.47     551.72      23.49
 20.57     549.00      23.43
 20.67     553.00      23.52
 20.77     525.00      22.91
 20.87     582.00      24.12
 20.97     584.02      24.17
 21.07     571.00      23.90
 21.17     552.00      23.49
 21.27     580.17      24.09
 21.37     578.00      24.04
 21.47     549.80      23.45
 21.57     533.48      23.10
 21.67     543.00      23.30
 21.77     520.05      22.80
 21.87     573.56      23.95
 21.97     526.59      22.95
 22.07     530.00      23.02
 22.17     574.00      23.96
 22.27     519.42      22.79
 22.37     549.00      23.43
 22.47     582.32      24.13
 22.57     587.00      24.23
 22.67     549.00      23.43
 22.77     548.00      23.41
 22.87     544.00      23.32
 22.97     518.00      22.76
 23.07     527.00      22.96
 23.17     585.46      24.20
 23.27     545.00      23.35
 23.37     546.97      23.39
 23.47     591.00      24.31
 23.57     581.00      24.10
 23.67     518.00      22.76
 23.77     508.00      22.54
 23.87     552.00      23.49
 23.97     510.26      22.59
 24.07     564.00      23.75
 24.17     561.00      23.69
 24.27     580.48      24.09
 24.37     551.14      23.48
 24.47     618.00      24.86
 24.57     576.98      24.02
 24.67     611.00      24.72
 24.77     618.00      24.86
 24.87     635.00      25.20
 24.97     642.28      25.34
 25.07     608.00      24.66
 25.17     606.18      24.62
 25.27     538.91      23.21
 25.37     541.00      23.26
 25.47     572.00      23.92
 25.57     534.00      23.11
 25.67     553.00      23.52
 25.77     509.96      22.58
 25.87     565.47      23.78
 25.97     574.29      23.96
 26.07     528.00      22.98
 26.17     541.00      23.26
 26.27     588.44      24.26
 26.37     546.00      23.37
 26.47     528.72      22.99
 26.57     516.00      22.72
 26.67     517.00      22.74
 26.77     527.00      22.96
 26.87     614.00      24.78
 26.97     540.00      23.24
 27.07     547.72      23.40
 27.17     559.01      23.64
 27.27     576.00      24.00
 27.37     523.00      22.87
 27.47     584.00      24.17
 27.57     567.00      23.81
 27.67     574.63      23.97
 27.77     586.00      24.21
 27.87     580.01      24.08
 27.97     670.00      25.88
 28.07     770.00      27.75
 28.17     862.00      29.36
 28.27     956.93      30.93
 28.37     917.00      30.28
 28.47     816.00      28.57
 28.57     730.00      27.02
 28.67     673.78      25.96
 28.77     744.00      27.28
 28.87     810.00      28.46
 28.97     814.10      28.53
 29.07     807.00      28.41
 29.17     703.00      26.51
 29.27     658.45      25.66
 29.37     639.00      25.28
 29.47     571.45      23.90
 29.57     655.00      25.59
 29.67     594.00      24.37
 29.77     608.00      24.66
 29.87     547.49      23.40
 29.97     603.00      24.56
 30.07     611.00      24.72
 30.17     594.81      24.39
 30.27     554.53      23.55
 30.37     514.16      22.68
 30.47     563.00      23.73
 30.57     546.47      23.38
 30.67     580.00      24.08
 30.77     606.00      24.62
 30.87     622.16      24.94
 30.97     595.00      24.39
 31.07     560.45      23.67
 31.17     561.00      23.69
 31.27     529.00      23.00
 31.37     575.53      23.99
 31.47     545.09      23.35
 31.57     520.00      22.80
 31.67     516.00      22.72
 31.77     516.93      22.74
 31.87     516.00      22.72
 31.97     535.00      23.13
 32.07     545.00      23.35
 32.17     515.75      22.71
 32.27     540.00      23.24
 32.37     556.00      23.58
 32.47     598.00      24.45
 32.57     542.56      23.29
 32.67     526.00      22.93
 32.77     521.00      22.83
 32.87     533.00      23.09
 32.97     534.00      23.11
 33.07     504.00      22.45
 33.17     578.00      24.04
 33.27     499.81      22.36
 33.37     556.00      23.58
 33.47     540.00      23.24
 33.57     603.00      24.56
 33.67     660.00      25.69
 33.77     719.00      26.81
 33.87     883.00      29.72
 33.97    1011.00      31.80
 34.07    1011.43      31.80
 34.17     989.74      31.46
 34.27     899.00      29.98
 34.37     697.00      26.40
 34.47     625.00      25.00
 34.57     584.51      24.18
 34.67     535.85      23.15
 34.77     535.23      23.14
 34.87     548.25      23.41
 34.97     564.90      23.77
 35.07     514.00      22.67
 35.17     518.00      22.76
 35.27     498.00      22.32
 35.37     495.00      22.25
 35.47     556.00      23.58
 35.57     510.00      22.58
 35.67     559.00      23.64
 35.77     509.00      22.56
 35.87     507.00      22.52
 35.97     510.90      22.60
 36.07     541.77      23.28
 36.17     530.00      23.02
 36.27     517.00      22.74
 36.37     526.00      22.93
 36.47     510.65      22.60
 36.57     558.00      23.62
 36.67     537.05      23.17
 36.77     487.00      22.07
 36.87     479.00      21.89
 36.97     493.00      22.20
 37.07     545.00      23.35
 37.17     511.00      22.61
 37.27     526.33      22.94
 37.37     522.23      22.85
 37.47     504.41      22.46
 37.57     485.64      22.04
 37.67     528.00      22.98
 37.77     531.00      23.04
 37.87     554.00      23.54
 37.97     544.75      23.34
 38.07     549.00      23.43
 38.17     547.81      23.41
 38.27     498.00      22.32
 38.37     547.14      23.39
 38.47     487.65      22.08
 38.57     529.00      23.00
 38.67     523.80      22.89
 38.77     485.70      22.04
 38.87     491.00      22.16
 38.97     509.00      22.56
 39.07     549.67      23.45
 39.17     509.90      22.58
 39.27     515.00      22.69
 39.37     543.00      23.30
 39.47     501.00      22.38
 39.57     532.00      23.07
 39.67     502.42      22.41
 39.77     487.00      22.07
 39.87     522.00      22.85
 39.97     516.00      22.72
 40.07     550.65      23.47
 40.17     549.81      23.45
 40.27     550.67      23.47
 40.37     483.00      21.98
 40.47     533.00      23.09
 40.57     510.07      22.58
 40.67     488.00      22.09
 40.77     480.00      21.91
 40.87     488.03      22.09
 40.97     485.00      22.02
 41.07     512.42      22.64
 41.17     487.00      22.07
 41.27     483.00      21.98
 41.37     504.19      22.45
 41.47     460.00      21.45
 41.57     449.00      21.19
 41.67     473.20      21.75
 41.77     467.00      21.61
 41.87     487.30      22.07
 41.97     515.00      22.69
 42.07     558.74      23.64
 42.17     514.00      22.67
 42.27     538.00      23.19
 42.37     588.00      24.25
 42.47     556.00      23.58
 42.57     584.74      24.18
 42.67     637.64      25.25
 42.77     604.51      24.59
 42.87     595.50      24.40
 42.97     555.00      23.56
 43.07     563.00      23.73
 43.17     504.00      22.45
 43.27     487.00      22.07
 43.37     505.00      22.47
 43.47     513.00      22.65
 43.57     497.00      22.29
 43.67     551.50      23.48
 43.77     484.81      22.02
 43.87     527.00      22.96
 43.97     510.61      22.60
 44.07     463.30      21.52
 44.17     526.00      22.93
 44.27     508.50      22.55
 44.37     500.00      22.36
 44.47     516.00      22.72
 44.57     508.00      22.54
 44.67     541.00      23.26
 44.77     469.77      21.67
 44.87     504.00      22.45
 44.97     515.00      22.69
 45.07     507.00      22.52
 45.17     503.72      22.44
 45.27     492.00      22.18
 45.37     537.75      23.19
 45.47     507.00      22.52
 45.57     512.00      22.63
 45.67     520.00      22.80
 45.77     523.00      22.87
 45.87     529.00      23.00
 45.97     518.00      22.76
 46.07     510.27      22.59
 46.17     493.00      22.20
 46.27     544.51      23.33
 46.37     485.00      22.02
 46.47     508.00      22.54
 46.57     498.00      22.32
 46.67     505.00      22.47
 46.77     492.94      22.20
 46.87     517.04      22.74
 46.97     489.46      22.12
 47.07     491.00      22.16
 47.17     502.50      22.42
 47.27     529.00      23.00
 47.37     506.00      22.49
 47.47     512.00      22.63
 47.57     606.00      24.62
 47.67     566.00      23.79
 47.77     538.00      23.19
 47.87     571.13      23.90
 47.97     626.00      25.02
 48.07     540.07      23.24
 48.17     559.00      23.64
 48.27     571.00      23.90
 48.37     545.44      23.35
 48.47     539.00      23.22
 48.57     509.00      22.56
 48.67     525.00      22.91
 48.77     513.48      22.66
 48.87     566.47      23.80
 48.97     547.00      23.39
 49.07     558.00      23.62
 49.17     559.00      23.64
 49.27     622.00      24.94
 49.37     699.00      26.44
 49.47     724.57      26.92
 49.57     754.23      27.46
 49.67     879.00      29.65
 49.77    1152.00      33.94
 49.87    1421.00      37.70
 49.97    1832.00      42.80
 50.07    2138.45      46.24
 50.17    2561.00      50.61
 50.27    2509.00      50.09
 50.37    2320.00      48.17
 50.47    1886.00      43.43
 50.57    1506.00      38.81
 50.67    1073.00      32.76
 50.77     838.99      28.97
 50.87     688.65      26.24
 50.97     670.00      25.88
 51.07     595.12      24.40
 51.17     608.52      24.67
 51.27     589.00      24.27
 51.37     610.62      24.71
 51.47     600.07      24.50
 51.57     599.00      24.47
 51.67     570.00      23.87
 51.77     550.00      23.45
 51.87     496.29      22.28
 51.97     519.00      22.78
 52.07     544.00      23.32
 52.17     525.87      22.93
 52.27     534.17      23.11
 52.37     513.44      22.66
 52.47     583.00      24.15
 52.57     574.00      23.96
 52.67     594.00      24.37
 52.77     597.00      24.43
 52.87     658.00      25.65
 52.97     718.12      26.80
 53.07     774.99      27.84
 53.17     815.65      28.56
 53.27     947.26      30.78
 53.37    1092.97      33.06
 53.47    1223.41      34.98
 53.57    1241.00      35.23
 53.67    1120.99      33.48
 53.77     967.00      31.10
 53.87     907.00      30.12
 53.97     719.00      26.81
 54.07     642.15      25.34
 54.17     581.22      24.11
 54.27     570.00      23.87
 54.37     550.00      23.45
 54.47     550.00      23.45
 54.57     558.63      23.64
 54.67     551.00      23.47
 54.77     561.70      23.70
 54.87     552.78      23.51
 54.97     510.00      22.58
 55.07     546.00      23.37
 55.17     561.00      23.69
 55.27     561.20      23.69
 55.37     566.00      23.79
 55.47     588.83      24.27
 55.57     528.59      22.99
 55.67     554.34      23.54
 55.77     617.70      24.85
 55.87     621.40      24.93
 55.97     609.00      24.68
 56.07     670.89      25.90
 56.17     717.00      26.78
 56.27     830.21      28.81
 56.37    1044.00      32.31
 56.47    1271.00      35.65
 56.57    1731.00      41.61
 56.67    2098.00      45.80
 56.77    2539.59      50.39
 56.87    2663.00      51.60
 56.97    2652.73      51.50
 57.07    2344.44      48.42
 57.17    2168.00      46.56
 57.27    1730.78      41.60
 57.37    1305.00      36.12
 57.47    1086.00      32.95
 57.57     871.00      29.51
 57.67     804.11      28.36
 57.77     747.00      27.33
 57.87     683.00      26.13
 57.97     665.00      25.79
 58.07     678.00      26.04
 58.17     750.00      27.39
 58.27     818.00      28.60
 58.37     896.00      29.93
 58.47     978.00      31.27
 58.57    1126.00      33.56
 58.67    1314.84      36.26
 58.77    1438.00      37.92
 58.87    1564.67      39.56
 58.97    1595.60      39.95
 59.07    1680.71      41.00
 59.17    1668.00      40.84
 59.27    1457.00      38.17
 59.37    1416.30      37.63
 59.47    1225.58      35.01
 59.57    1174.00      34.26
 59.67    1169.00      34.19
 59.77    1156.00      34.00
 59.87    1212.00      34.81
 59.97    1303.34      36.10
 60.07    1487.00      38.56
 60.17    1571.00      39.64
 60.27    1528.00      39.09
 60.37    1508.27      38.84
 60.47    1422.32      37.71
 60.57    1362.00      36.91
 60.67    1148.00      33.88
 60.77     944.84      30.74
 60.87     754.00      27.46
 60.97     712.00      26.68
 61.07     688.61      26.24
 61.17     649.00      25.48
 61.27     659.06      25.67
 61.37     659.18      25.67
 61.47     687.00      26.21
 61.57     755.00      27.48
 61.67     775.82      27.85
 61.77     906.00      30.10
 61.87    1122.44      33.50
 61.97    1174.00      34.26
 62.07    1335.00      36.54
 62.17    1442.00      37.97
 62.27    1438.00      37.92
 62.37    1335.00      36.54
 62.47    1285.50      35.85
 62.57    1041.00      32.26
 62.67     924.00      30.40
 62.77     781.00      27.95
 62.87     705.86      26.57
 62.97     624.00      24.98
 63.07     582.00      24.12
 63.17     582.34      24.13
 63.27     522.90      22.87
 63.37     595.89      24.41
 63.47     578.00      24.04
 63.57     579.00      24.06
 63.67     535.77      23.15
 63.77     618.00      24.86
 63.87     633.00      25.16
 63.97     662.54      25.74
 64.07     634.20      25.18
 64.17     728.00      26.98
 64.27     845.29      29.07
 64.37     846.00      29.09
 64.47     992.00      31.50
 64.57    1005.00      31.70
 64.67    1030.00      32.09
 64.77     984.00      31.37
 64.87     917.80      30.30
 64.97     910.00      30.17
 65.07     888.93      29.81
 65.17     793.00      28.16
 65.27     718.00      26.80
 65.37     689.00      26.25
 65.47     688.93      26.25
 65.57     611.00      24.72
 65.67     626.00      25.02
 65.77     585.78      24.20
 65.87     527.00      22.96
 65.97     563.00      23.73
 66.07     560.88      23.68
 66.17     544.73      23.34
 66.27     582.00      24.12
 66.37     536.20      23.16
 66.47     524.00      22.89
 66.57     559.86      23.66
 66.67     538.00      23.19
 66.77     610.00      24.70
 66.87     568.00      23.83
 66.97     613.00      24.76
 67.07     588.36      24.26
 67.17     646.00      25.42
 67.27     745.00      27.29
 67.37     856.00      29.26
 67.47     942.00      30.69
 67.57    1209.49      34.78
 67.67    1471.01      38.35
 67.77    1749.00      41.82
 67.87    1997.00      44.69
 67.97    2159.56      46.47
 68.07    2374.00      48.72
 68.17    2357.00      48.55
 68.27    2317.00      48.14
 68.37    2088.94      45.70
 68.47    1775.48      42.14
 68.57    1507.48      38.83
 68.67    1297.84      36.03
 68.77    1015.49      31.87
 68.87     875.00      29.58
 68.97     818.00      28.60
 69.07     739.84      27.20
 69.17     688.00      26.23
 69.27     632.00      25.14
 69.37     623.00      24.96
 69.47     553.14      23.52
 69.57     575.21      23.98
 69.67     609.53      24.69
 69.77     584.69      24.18
 69.87     603.00      24.56
 69.97     584.00      24.17
 70.07     605.00      24.60
 70.17     601.36      24.52
 70.27     521.92      22.85
 70.37     598.50      24.46
 70.47     579.41      24.07
 70.57     599.33      24.48
 70.67     559.00      23.64
 70.77     569.72      23.87
 70.87     573.00      23.94
 70.97     573.09      23.94
 71.07     613.00      24.76
 71.17     696.00      26.38
 71.27     758.00      27.53
 71.37     877.00      29.61
 71.47    1067.00      32.66
 71.57    1226.00      35.01
 71.67    1444.08      38.00
 71.77    1603.00      40.04
 71.87    1804.28      42.48
 71.97    1853.00      43.05
 72.07    1909.96      43.70
 72.17    1889.00      43.46
 72.27    1730.58      41.60
 72.37    1613.16      40.16
 72.47    1565.00      39.56
 72.57    1322.69      36.37
 72.67    1229.00      35.06
 72.77    1121.43      33.49
 72.87     974.00      31.21
 72.97     983.00      31.35
 73.07     825.00      28.72
 73.17     796.08      28.21
 73.27     751.00      27.40
 73.37     707.00      26.59
 73.47     653.46      25.56
 73.57     596.00      24.41
 73.67     560.00      23.66
 73.77     597.15      24.44
 73.87     579.00      24.06
 73.97     554.12      23.54
 74.07     631.00      25.12
 74.17     606.00      24.62
 74.27     588.77      24.26
 74.37     580.00      24.08
 74.47     544.03      23.32
 74.57     578.00      24.04
 74.67     558.04      23.62
 74.77     628.00      25.06
 74.87     566.65      23.80
 74.97     640.00      25.30
 75.07     588.17      24.25
 75.17     546.19      23.37
 75.27     580.00      24.08
 75.37     530.00      23.02
 75.47     530.00      23.02
 75.57     569.00      23.85
 75.67     515.96      22.71
 75.77     547.25      23.39
 75.87     611.51      24.73
 75.97     594.09      24.37
 76.07     587.24      24.23
 76.17     600.11      24.50
 76.27     662.90      25.75
 76.37     707.00      26.59
 76.47     640.00      25.30
 76.57     654.38      25.58
 76.67     660.68      25.70
 76.77     736.00      27.13
 76.87     653.00      25.55
 76.97     631.00      25.12
 77.07     650.00      25.50
 77.17     636.00      25.22
 77.27     576.32      24.01
 77.37     543.00      23.30
 77.47     534.67      23.12
 77.57     561.93      23.71
 77.67     563.92      23.75
 77.77     510.00      22.58
 77.87     484.00      22.00
 77.97     537.00      23.17
 78.07     537.00      23.17
 78.17     502.50      22.42
 78.27     494.08      22.23
 78.37     497.00      22.29
 78.47     543.00      23.30
 78.57     506.00      22.49
 78.67     547.00      23.39
 78.77     525.37      22.92
 78.87     546.26      23.37
 78.97     515.00      22.69
 79.07     505.83      22.49
 79.17     524.00      22.89
 79.27     542.00      23.28
 79.37     539.00      23.22
 79.47     520.57      22.82
 79.57     508.00      22.54
 79.67     502.00      22.41
 79.77     526.00      22.93
 79.87     574.80      23.98
 79.97     527.98      22.98
 80.07     526.00      22.93
 80.17     516.00      22.72
 80.27     530.00      23.02
 80.37     558.00      23.62
 80.47     578.00      24.04
 80.57     571.00      23.90
 80.67     591.00      24.31
 80.77     673.00      25.94
 80.87     641.00      25.32
 80.97     675.06      25.98
 81.07     761.22      27.59
 81.17     701.00      26.48
 81.27     752.04      27.42
 81.37     740.00      27.20
 81.47     727.00      26.96
 81.57     742.00      27.24
 81.67     722.00      26.87
 81.77     716.00      26.76
 81.87     663.65      25.76
 81.97     689.24      26.25
 82.07     678.00      26.04
 82.17     694.00      26.34
 82.27     617.00      24.84
 82.37     625.39      25.01
 82.47     586.00      24.21
 82.57     553.00      23.52
 82.67     567.00      23.81
 82.77     563.51      23.74
 82.87     572.00      23.92
 82.97     577.51      24.03
 83.07     572.00      23.92
 83.17     597.04      24.43
 83.27     519.00      22.78
 83.37     549.00      23.43
 83.47     514.05      22.67
 83.57     554.82      23.55
 83.67     570.00      23.87
 83.77     603.00      24.56
 83.87     567.00      23.81
 83.97     569.00      23.85
 84.07     601.00      24.52
 84.17     551.00      23.47
 84.27     539.00      23.22
 84.37     593.27      24.36
 84.47     569.00      23.85
 84.57     547.00      23.39
 84.67     517.15      22.74
 84.77     529.00      23.00
 84.87     539.00      23.22
 84.97     545.53      23.36
 85.07     573.74      23.95
 85.17     529.10      23.00
 85.27     525.42      22.92
 85.37     489.65      22.13
 85.47     563.39      23.74
 85.57     553.00      23.52
 85.67     498.64      22.33
 85.77     528.00      22.98
 85.87     508.00      22.54
 85.97     536.00      23.15
 86.07     557.00      23.60
 86.17     503.41      22.44
 86.27     499.00      22.34
 86.37     520.00      22.80
 86.47     575.39      23.99
 86.57     587.02      24.23
 86.67     601.00      24.52
 86.77     580.00      24.08
 86.87     626.76      25.04
 86.97     626.12      25.02
 87.07     620.00      24.90
 87.17     629.00      25.08
 87.27     656.00      25.61
 87.37     671.80      25.92
 87.47     651.00      25.51
 87.57     582.43      24.13
 87.67     639.00      25.28
 87.77     628.00      25.06
 87.87     629.16      25.08
 87.97     619.51      24.89
 88.07     557.88      23.62
 88.17     604.00      24.58
 88.27     615.00      24.80
 88.37     571.02      23.90
 88.47     539.62      23.23
 88.57     553.95      23.54
 88.67     579.00      24.06
 88.77     577.00      24.02
 88.87     588.00      24.25
 88.97     562.24      23.71
 89.07     606.00      24.62
 89.17     633.00      25.16
 89.27     620.00      24.90
 89.37     553.44      23.53
 89.47     582.05      24.13
 89.57     582.00      24.12
 89.67     619.52      24.89
 89.77     625.00      25.00
 89.87     588.00      24.25
 89.97     576.00      24.00
 90.07     573.00      23.94
 90.17     498.00      22.32
 90.27     561.79      23.70
 90.37     497.00      22.29
 90.47     513.97      22.67
 90.57     539.00      23.22
 90.67     533.71      23.10
 90.77     488.00      22.09
 90.87     516.11      22.72
 90.97     486.00      22.05
 91.07     498.00      22.32
 91.17     527.00      22.96
 91.27     524.00      22.89
 91.37     563.20      23.73
 91.47     534.00      23.11
 91.57     565.00      23.77
 91.67     536.00      23.15
 91.77     496.20      22.28
 91.87     546.00      23.37
 91.97     583.00      24.15
 92.07     559.00      23.64
 92.17     564.39      23.76
 92.27     542.59      23.29
 92.37     606.00      24.62
 92.47     589.37      24.28
 92.57     645.57      25.41
 92.67     691.35      26.29
 92.77     687.00      26.21
 92.87     714.00      26.72
 92.97     725.82      26.94
 93.07     740.80      27.22
 93.17     733.50      27.08
 93.27     773.44      27.81
 93.37     850.00      29.15
 93.47     753.79      27.46
 93.57     799.00      28.27
 93.67     892.00      29.87
 93.77     794.36      28.18
 93.87     864.00      29.39
 93.97     843.00      29.03
 94.07     861.00      29.34
 94.17     798.22      28.25
 94.27     821.00      28.65
 94.37     848.00      29.12
 94.47     888.00      29.80
 94.57     926.00      30.43
 94.67     908.00      30.13
 94.77     915.00      30.25
 94.87     883.94      29.73
 94.97     947.00      30.77
 95.07     913.00      30.22
 95.17     847.00      29.10
 95.27     855.33      29.25
 95.37     870.00      29.50
 95.47     771.35      27.77
 95.57     772.25      27.79
 95.67     729.00      27.00
 95.77     710.00      26.65
 95.87     633.00      25.16
 95.97     693.00      26.32
 96.07     659.00      25.67
 96.17     715.00      26.74
 96.27     740.00      27.20
 96.37     687.14      26.21
 96.47     790.00      28.11
 96.57     849.00      29.14
 96.67     911.55      30.19
 96.77     987.35      31.42
 96.87     995.00      31.54
 96.97    1113.00      33.36
 97.07    1232.28      35.10
 97.17    1222.41      34.96
 97.27    1358.00      36.85
 97.37    1414.00      37.60
 97.47    1381.75      37.17
 97.57    1423.00      37.72
 97.67    1485.00      38.54
 97.77    1385.00      37.22
 97.87    1303.00      36.10
 97.97    1287.00      35.87
 98.07    1261.00      35.51
 98.17    1193.00      34.54
 98.27    1100.00      33.17
 98.37    1028.63      32.07
 98.47     990.00      31.46
 98.57     890.13      29.84
 98.67     866.00      29.43
 98.77     816.00      28.57
 98.87     750.87      27.40
 98.97     800.00      28.28
 99.07     794.00      28.18
 99.17     822.00      28.67
 99.27     835.00      28.90
 99.37     878.00      29.63
 99.47     991.00      31.48
 99.57    1065.00      32.63
 99.67    1172.00      34.23
 99.77    1301.00      36.07
 99.87    1358.43      36.86
 99.97    1486.82      38.56
100.07    1575.00      39.69
100.17    1654.00      40.67
100.27    1859.00      43.12
100.37    1908.00      43.68
100.47    2065.30      45.45
100.57    2111.05      45.95
100.67    2080.00      45.61
100.77    2107.35      45.91
100.87    2198.00      46.88
100.97    2126.85      46.12
101.07    2066.46      45.46
101.17    2011.00      44.84
101.27    1842.44      42.92
101.37    1835.98      42.85
101.47    1622.20      40.28
101.57    1592.00      39.90
101.67    1448.00      38.05
101.77    1406.00      37.50
101.87    1325.01      36.40
101.97    1268.00      35.61
102.07    1226.00      35.01
102.17    1090.00      33.02
102.27    1086.00      32.95
102.37    1097.00      33.12
102.47    1131.00      33.63
102.57    1029.00      32.08
102.67    1014.20      31.85
102.77    1080.94      32.88
102.87    1009.40      31.77
102.97     995.04      31.54
103.07     975.68      31.24
103.17     882.00      29.70
103.27     850.66      29.17
103.37     858.95      29.31
103.47     811.00      28.48
103.57     708.67      26.62
103.67     739.00      27.18
103.77     661.00      25.71
103.87     616.37      24.83
103.97     654.00      25.57
104.07     594.00      24.37
104.17     565.00      23.77
104.27     540.00      23.24
104.37     538.00      23.19
104.47     534.00      23.11
104.57     560.00      23.66
104.67     578.74      24.06
104.77     496.47      22.28
104.87     579.00      24.06
104.97     535.00      23.13
105.07     510.00      22.58
105.17     516.41      22.72
105.27     564.29      23.75
105.37     596.00      24.41
105.47     566.03      23.79
105.57     587.00      24.23
105.67     589.00      24.27
105.77     552.00      23.49
105.87     553.00      23.52
105.97     578.00      24.04
106.07     585.00      24.19
106.17     651.00      25.51
106.27     584.00      24.17
106.37     584.00      24.17
106.47     587.00      24.23
106.57     653.00      25.55
106.67     613.00      24.76
106.77     674.55      25.97
106.87     649.00      25.48
106.97     650.00      25.50
107.07     645.00      25.40
107.17     669.11      25.87
107.27     686.62      26.20
107.37     668.00      25.85
107.47     715.00      26.74
107.57     648.00      25.46
107.67     668.00      25.85
107.77     663.00      25.75
107.87     704.00      26.53
107.97     622.00      24.94
108.07     648.00      25.46
108.17     723.24      26.89
108.27     676.35      26.01
108.37     692.00      26.31
108.47     643.00      25.36
108.57     663.00      25.75
108.67     696.00      26.38
108.77     675.00      25.98
108.87     684.00      26.15
108.97     672.00      25.92
109.07     724.84      26.92
109.17     665.00      25.79
109.27     658.00      25.65
109.37     639.74      25.29
109.47     636.00      25.22
109.57     654.00      25.57
109.67     628.33      25.07
109.77     655.00      25.59
109.87     604.00      24.58
109.97     574.00      23.96
110.07     649.00      25.48
110.17     555.00      23.56
110.27     582.30      24.13
110.37     597.00      24.43
110.47     545.00      23.35
110.57     549.97      23.45
110.67     529.27      23.01
110.77     506.00      22.49
110.87     577.00      24.02
110.97     608.00      24.66
111.07     543.00      23.30
111.17     521.24      22.83
111.27     582.00      24.12
111.37     527.00      22.96
111.47     535.23      23.14
111.57     540.00      23.24
111.67     528.81      23.00
111.77     576.91      24.02
111.87     590.50      24.30
111.97     544.96      23.34
112.07     539.04      23.22
112.17     596.20      24.42
112.27     593.00      24.35
112.37     579.00      24.06
112.47     599.84      24.49
112.57     604.83      24.59
112.67     603.00      24.56
112.77     597.00      24.43
112.87     576.00      24.00
112.97     651.00      25.51
113.07     727.91      26.98
113.17     693.30      26.33
113.27     675.00      25.98
113.37     763.32      27.63
113.47     799.00      28.27
113.57     772.12      27.79
113.67     852.00      29.19
113.77     921.00      30.35
113.87     992.00      31.50
113.97    1084.00      32.92
114.07    1045.00      32.33
114.17    1070.00      32.71
114.27    1123.00      33.51
114.37    1214.22      34.85
114.47    1294.00      35.97
114.57    1459.00      38.20
114.67    1556.91      39.46
114.77    1678.00      40.96
114.87    1873.04      43.28
114.97    2059.48      45.38
115.07    2319.00      48.16
115.17    2521.00      50.21
115.27    2780.00      52.73
115.37    3137.00      56.01
115.47    3305.00      57.49
115.57    3687.00      60.72
115.67    3851.00      62.06
115.77    4308.00      65.64
115.87    4677.07      68.39
115.97    5150.14      71.76
116.07    5502.00      74.18
116.17    5737.00      75.74
116.27    6282.00      79.26
116.37    6607.00      81.28
116.47    6680.21      81.73
116.57    6925.00      83.22
116.67    7014.00      83.75
116.77    7102.00      84.27
116.87    6917.00      83.17
116.97    6886.00      82.98
117.07    6551.42      80.94
117.17    6202.00      78.75
117.27    5834.00      76.38
117.37    5559.39      74.56
117.47    5110.00      71.48
117.57    4649.00      68.18
117.67    4471.00      66.87
117.77    4130.00      64.27
117.87    3690.45      60.75
117.97    3501.00      59.17
118.07    2869.46      53.57
118.17    2576.20      50.76
118.27    2377.00      48.75
118.37    2115.00      45.99
118.47    1872.84      43.28
118.57    1673.04      40.90
118.67    1463.00      38.25
118.77    1279.00      35.76
118.87    1201.05      34.66
118.97    1071.00      32.73
119.07     943.00      30.71
119.17     936.00      30.59
119.27     898.40      29.97
119.37     763.00      27.62
119.47     761.00      27.59
119.57     681.00      26.10
119.67     693.88      26.34
119.77     635.00      25.20
119.87     665.62      25.80
119.97     593.39      24.36
120.07     569.00      23.85
120.17     572.00      23.92
120.27     626.00      25.02
120.37     594.00      24.37
120.47     592.00      24.33
120.57     589.00      24.27
120.67     557.46      23.61
120.77     582.00      24.12
120.87     531.00      23.04
120.97     532.00      23.07
121.07     556.00      23.58
121.17     589.00      24.27
121.27     614.59      24.79
121.37     595.00      24.39
121.47     548.00      23.41
121.57     559.00      23.64
121.67     612.00      24.74
121.77     587.00      24.23
121.87     602.99      24.56
121.97     579.77      24.08
122.07     597.02      24.43
122.17     613.70      24.77
122.27     604.19      24.58
122.37     642.11      25.34
122.47     625.00      25.00
122.57     639.00      25.28
122.67     618.00      24.86
122.77     677.00      26.02
122.87     637.00      25.24
122.97     716.00      26.76
123.07     697.00      26.40
123.17     650.59      25.51
123.27     693.00      26.32
123.37     626.20      25.02
123.47     699.00      26.44
123.57     673.25      25.95
123.67     632.29      25.15
123.77     617.70      24.85
123.87     593.00      24.35
123.97     651.00      25.51
124.07     595.26      24.40
124.17     605.00      24.60
124.27     632.00      25.14
124.37     605.00      24.60
124.47     624.58      24.99
124.57     601.00      24.52
124.67     593.00      24.35
124.77     631.25      25.12
124.87     578.00      24.04
124.97     571.00      23.90
