  9.97     616.00      24.82
 10.07     595.00      24.39
 10.17     618.00      24.86
 10.27     580.00      24.08
 10.37     617.27      24.84
 10.47     579.00      24.06
 10.57     593.00      24.35
 10.67     565.00      23.77
 10.77     589.00      24.27
 10.87     570.00      23.87
 10.97     537.14      23.18
 11.07     529.52      23.01
 11.17     604.00      24.58
 11.27     554.00      23.54
 11.37     597.00      24.43
 11.47     572.00      23.92
 11.57     593.00      24.35
 11.67     550.45      23.46
 11.77     668.00      25.85
 11.87     635.00      25.20
 11.97     608.60      24.67
 12.07     674.00      25.96
 12.17     664.93      25.79
 12.27     674.12      25.96
 12.37     667.00      25.83
 12.47     604.03      24.58
 12.57     634.73      25.19
 12.67     612.49      24.75
 12.77     573.00      23.94
 12.87     585.00      24.19
 12.97     526.00      22.93
 13.07     588.00      24.25
 13.17     550.00      23.45
 13.27     559.00      23.64
 13.37     599.97      24.49
 13.47     525.04      22.91
 13.57     544.00      23.32
 13.67     603.00      24.56
 13.77     515.00      22.69
 13.87     516.02      22.72
 13.97     556.00      23.58
 14.07     549.30      23.44
 14.17     520.00      22.80
 14.27     542.00      23.28
 14.37     547.00      23.39
 14.47     556.00      23.58
 14.57     572.87      23.93
 14.67     562.00      23.71
 14.77     566.00      23.79
 14.87     592.00      24.33
 14.97     487.00      22.07
 15.07     518.00      22.76
 15.17     603.82      24.57
 15.27     568.00      23.83
 15.37     531.99      23.06
 15.47     561.00      23.69
 15.57     529.00      23.00
 15.67     533.00      23.09
 15.77     562.93      23.73
 15.87     554.00      23.54
 15.97     568.00      23.83
 16.07     576.00      24.00
 16.17     580.00      24.08
 16.27     527.00      22.96
 16.37     598.00      24.45
 16.47     525.00      22.91
 16.57     549.42      23.44
 16.67     551.00      23.47
 16.77     574.00      23.96
 16.87     549.00      23.43
 16.97     549.00      23.43
 17.07     538.00      23.19
 17.17     541.00      23.26
 17.27     509.00      22.56
 17.37     569.00      23.85
 17.47     542.00      23.28
 17.57     535.00      23.13
 17.67     527.00      22.96
 17.77     555.00      23.56
 17.87     541.00      23.26
 17.97     586.00      24.21
 18.07     556.00      23.58
 18.17     577.95      24.04
 18.27     552.00      23.49
 18.37     510.45      22.59
 18.47     605.79      24.61
 18.57     519.24      22.79
 18.67     598.72      24.47
 18.77     583.00      24.15
 18.87     603.00      24.56
 18.97     564.41      23.76
 19.07     583.00      24.15
 19.17     587.00      24.23
 19.27     526.18      22.94
 19.37     565.73      23.79
 19.47     514.78      22.69
 19.57     530.00      23.02
 19.67     535.45      23.14
 19.77     546.37      23.37
 19.87     550.00      23.45
 19.97     556.63      23.59
 20.07     562.00      23.71
 20.17     555.00      23.56
 20.27     542.00      23.28
 20.37     588.20      24.25
 20.47     574.00      23.96
 20.57     598.73      24.47
 20.67     570.00      23.87
 20.77     596.91      24.43
 20.87     534.00      23.11
 20.97     579.59      24.07
 21.07     523.68      22.88
 21.17     522.00      22.85
 21.27     554.00      23.54
 21.37     521.02      22.83
 21.47     561.00      23.69
 21.57     550.00      23.45
 21.67     511.06      22.61
 21.77     504.65      22.46
 21.87     508.89      22.56
 21.97     539.00      23.22
 22.07     517.00      22.74
 22.17     523.30      22.88
 22.27     509.00      22.56
 22.37     507.00      22.52
 22.47     548.00      23.41
 22.57     583.00      24.15
 22.67     541.68      23.27
 22.77     595.96      24.41
 22.87     577.62      24.03
 22.97     593.33      24.36
 23.07     562.49      23.72
 23.17     562.00      23.71
 23.27     575.00      23.98
 23.37     553.31      23.52
 23.47     529.00      23.00
 23.57     551.11      23.48
 23.67     527.00      22.96
 23.77     554.00      23.54
 23.87     561.00      23.69
 23.97     504.32      22.46
 24.07     528.92      23.00
 24.17     566.00      23.79
 24.27     588.58      24.26
 24.37     552.00      23.49
 24.47     572.00      23.92
 24.57     573.00      23.94
 24.67     604.00      24.58
 24.77     621.28      24.93
 24.87     667.22      25.83
 24.97     625.45      25.01
 25.07     548.93      23.43
 25.17     561.00      23.69
 25.27     570.00      23.87
 25.37     569.38      23.86
 25.47     511.00      22.61
 25.57     527.66      22.97
 25.67     539.00      23.22
 25.77     583.00      24.15
 25.87     542.00      23.28
 25.97     579.00      24.06
 26.07     575.00      23.98
 26.17     556.15      23.58
 26.27     534.00      23.11
 26.37     575.00      23.98
 26.47     493.07      22.21
 26.57     560.00      23.66
 26.67     538.00      23.19
 26.77     492.58      22.19
 26.87     522.00      22.85
 26.97     557.71      23.62
 27.07     581.00      24.10
 27.17     511.62      22.62
 27.27     592.00      24.33
 27.37     553.00      23.52
 27.47     614.00      24.78
 27.57     563.00      23.73
 27.67     541.74      23.28
 27.77     577.00      24.02
 27.87     578.32      24.05
 27.97     678.00      26.04
 28.07     775.00      27.84
 28.17     897.00      29.95
 28.27     958.00      30.95
 28.37     889.00      29.82
 28.47     772.00      27.78
 28.57     733.00      27.07
 28.67     711.00      26.66
 28.77     695.63      26.37
 28.87     828.99      28.79
 28.97     766.00      27.68
 29.07     776.00      27.86
 29.17     738.92      27.18
 29.27     651.00      25.51
 29.37     582.00      24.12
 29.47     662.00      25.73
 29.57     632.92      25.16
 29.67     609.00      24.68
 29.77     525.93      22.93
 29.87     614.00      24.78
 29.97     587.51      24.24
 30.07     534.52      23.12
 30.17     518.86      22.78
 30.27     492.74      22.20
 30.37     571.43      23.90
 30.47     575.00      23.98
 30.57     555.04      23.56
 30.67     534.06      23.11
 30.77     538.38      23.20
 30.87     601.79      24.53
 30.97     603.00      24.56
 31.07     588.00      24.25
 31.17     597.00      24.43
 31.27     520.00      22.80
 31.37     585.00      24.19
 31.47     562.87      23.72
 31.57     565.00      23.77
 31.67     519.73      22.80
 31.77     504.00      22.45
 31.87     518.00      22.76
 31.97     530.00      23.02
 32.07     540.00      23.24
 32.17     523.00      22.87
 32.27     494.58      22.24
 32.37     545.00      23.35
 32.47     538.00      23.19
 32.57     530.00      23.02
 32.67     581.00      24.10
 32.77     549.00      23.43
 32.87     524.00      22.89
 32.97     553.00      23.52
 33.07     536.00      23.15
 33.17     557.67      23.62
 33.27     579.00      24.06
 33.37     558.00      23.62
 33.47     587.00      24.23
 33.57     618.28      24.87
 33.67     627.00      25.04
 33.77     721.00      26.85
 33.87     842.00      29.02
 33.97     961.00      31.00
 34.07    1001.14      31.64
 34.17    1064.00      32.62
 34.27     899.00      29.98
 34.37     838.43      28.96
 34.47     607.00      24.64
 34.57     568.00      23.83
 34.67     577.00      24.02
 34.77     568.79      23.85
 34.87     549.00      23.43
 34.97     493.43      22.21
 35.07     559.00      23.64
 35.17     556.00      23.58
 35.27     511.00      22.61
 35.37     527.49      22.97
 35.47     557.19      23.60
 35.57     548.00      23.41
 35.67     495.00      22.25
 35.77     543.00      23.30
 35.87     479.90      21.91
 35.97     516.60      22.73
 36.07     548.02      23.41
 36.17     522.54      22.86
 36.27     468.00      21.63
 36.37     532.64      23.08
 36.47     468.60      21.65
 36.57     536.00      23.15
 36.67     522.50      22.86
 36.77     482.00      21.95
 36.87     463.60      21.53
 36.97     527.00      22.96
 37.07     540.13      23.24
 37.17     492.00      22.18
 37.27     492.79      22.20
 37.37     552.94      23.51
 37.47     538.40      23.20
 37.57     521.00      22.83
 37.67     496.00      22.27
 37.77     511.00      22.61
 37.87     513.16      22.65
 37.97     552.75      23.51
 38.07     529.89      23.02
 38.17     471.00      21.70
 38.27     454.00      21.31
 38.37     553.91      23.54
 38.47     532.68      23.08
 38.57     545.00      23.35
 38.67     501.00      22.38
 38.77     507.64      22.53
 38.87     536.77      23.17
 38.97     468.00      21.63
 39.07     489.00      22.11
 39.17     512.00      22.63
 39.27     474.15      21.78
 39.37     524.00      22.89
 39.47     477.66      21.86
 39.57     507.00      22.52
 39.67     506.44      22.50
 39.77     563.00      23.73
 39.87     491.00      22.16
 39.97     501.00      22.38
 40.07     505.00      22.47
 40.17     466.44      21.60
 40.27     497.00      22.29
 40.37     485.56      22.04
 40.47     540.83      23.26
 40.57     521.00      22.83
 40.67     522.47      22.86
 40.77     511.35      22.61
 40.87     487.08      22.07
 40.97     470.62      21.69
 41.07     495.27      22.25
 41.17     480.00      21.91
 41.27     481.00      21.93
 41.37     508.00      22.54
 41.47     508.03      22.54
 41.57     505.00      22.47
 41.67     495.88      22.27
 41.77     481.00      21.93
 41.87     510.00      22.58
 41.97     501.00      22.38
 42.07     512.00      22.63
 42.17     504.00      22.45
 42.27     534.00      23.11
 42.37     574.99      23.98
 42.47     577.22      24.03
 42.57     547.00      23.39
 42.67     609.99      24.70
 42.77     629.34      25.09
 42.87     536.00      23.15
 42.97     596.86      24.43
 43.07     593.61      24.36
 43.17     495.00      22.25
 43.27     491.00      22.16
 43.37     525.00      22.91
 43.47     479.00      21.89
 43.57     469.39      21.67
 43.67     511.71      22.62
 43.77     520.00      22.80
 43.87     512.00      22.63
 43.97     467.62      21.62
 44.07     488.00      22.09
 44.17     500.00      22.36
 44.27     501.41      22.39
 44.37     491.00      22.16
 44.47     474.50      21.78
 44.57     517.00      22.74
 44.67     501.00      22.38
 44.77     519.00      22.78
 44.87     485.04      22.02
 44.97     480.00      21.91
 45.07     472.07      21.73
 45.17     522.00      22.85
 45.27     477.00      21.84
 45.37     467.00      21.61
 45.47     437.00      20.90
 45.57     501.00      22.38
 45.67     510.16      22.59
 45.77     510.00      22.58
 45.87     514.00      22.67
 45.97     483.30      21.98
 46.07     466.00      21.59
 46.17     515.00      22.69
 46.27     461.02      21.47
 46.37     539.50      23.23
 46.47     462.00      21.49
 46.57     511.38      22.61
 46.67     524.17      22.89
 46.77     478.00      21.86
 46.87     497.00      22.29
 46.97     506.30      22.50
 47.07     544.01      23.32
 47.17     508.00      22.54
 47.27     516.00      22.72
 47.37     493.62      22.22
 47.47     498.02      22.32
 47.57     586.24      24.21
 47.67     584.00      24.17
 47.77     633.00      25.16
 47.87     544.00      23.32
 47.97     575.24      23.98
 48.07     587.00      24.23
 48.17     607.18      24.64
 48.27     547.00      23.39
 48.37     538.83      23.21
 48.47     525.00      22.91
 48.57     551.00      23.47
 48.67     573.35      23.94
 48.77     520.00      22.80
 48.87     556.72      23.59
 48.97     535.60      23.14
 49.07     572.00      23.92
 49.17     542.00      23.28
 49.27     593.00      24.35
 49.37     657.83      25.65
 49.47     710.42      26.65
 49.57     761.00      27.59
 49.67     884.00      29.73
 49.77    1092.00      33.05
 49.87    1325.00      36.40
 49.97    1644.00      40.55
 50.07    2148.36      46.35
 50.17    2449.57      49.49
 50.27    2534.00      50.34
 50.37    2372.00      48.70
 50.47    2139.00      46.25
 50.57    1615.14      40.19
 50.67    1162.00      34.09
 50.77     949.99      30.82
 50.87     764.44      27.65
 50.97     700.00      26.46
 51.07     670.00      25.88
 51.17     633.00      25.16
 51.27     571.14      23.90
 51.37     568.00      23.83
 51.47     564.31      23.76
 51.57     578.46      24.05
 51.67     578.00      24.04
 51.77     563.00      23.73
 51.87     529.00      23.00
 51.97     523.00      22.87
 52.07     555.00      23.56
 52.17     512.00      22.63
 52.27     491.86      22.18
 52.37     554.51      23.55
 52.47     588.00      24.25
 52.57     587.00      24.23
 52.67     561.00      23.69
 52.77     622.00      24.94
 52.87     622.00      24.94
 52.97     705.00      26.55
 53.07     729.55      27.01
 53.17     842.00      29.02
 53.27     952.00      30.85
 53.37    1054.00      32.47
 53.47    1125.00      33.54
 53.57    1213.00      34.83
 53.67    1074.00      32.77
 53.77    1028.00      32.06
 53.87    1003.29      31.67
 53.97     815.00      28.55
 54.07     740.00      27.20
 54.17     619.00      24.88
 54.27     598.00      24.45
 54.37     580.00      24.08
 54.47     534.44      23.12
 54.57     542.00      23.28
 54.67     545.00      23.35
 54.77     537.65      23.19
 54.87     557.00      23.60
 54.97     570.00      23.87
 55.07     562.00      23.71
 55.17     524.00      22.89
 55.27     587.00      24.23
 55.37     525.53      22.92
 55.47     547.00      23.39
 55.57     596.00      24.41
 55.67     546.00      23.37
 55.77     527.40      22.97
 55.87     571.00      23.90
 55.97     594.00      24.37
 56.07     636.00      25.22
 56.17     693.00      26.32
 56.27     821.46      28.66
 56.37     962.36      31.02
 56.47    1244.00      35.27
 56.57    1594.48      39.93
 56.67    2059.31      45.38
 56.77    2399.00      48.98
 56.87    2535.00      50.35
 56.97    2604.00      51.03
 57.07    2577.00      50.76
 57.17    2186.26      46.76
 57.27    1900.42      43.59
 57.37    1421.00      37.70
 57.47    1220.00      34.93
 57.57     947.37      30.78
 57.67     792.78      28.16
 57.77     668.86      25.86
 57.87     729.00      27.00
 57.97     644.00      25.38
 58.07     618.00      24.86
 58.17     652.84      25.55
 58.27     741.00      27.22
 58.37     830.51      28.82
 58.47     894.00      29.90
 58.57    1058.00      32.53
 58.67    1171.69      34.23
 58.77    1276.54      35.73
 58.87    1474.00      38.39
 58.97    1508.00      38.83
 59.07    1623.00      40.29
 59.17    1594.74      39.93
 59.27    1541.00      39.26
 59.37    1466.00      38.29
 59.47    1273.62      35.69
 59.57    1197.24      34.60
 59.67    1110.62      33.33
 59.77    1109.00      33.30
 59.87    1159.50      34.05
 59.97    1271.00      35.65
 60.07    1394.00      37.34
 60.17    1501.43      38.75
 60.27    1619.93      40.25
 60.37    1593.00      39.91
 60.47    1521.00      39.00
 60.57    1362.12      36.91
 60.67    1184.00      34.41
 60.77     962.00      31.02
 60.87     816.00      28.57
 60.97     779.00      27.91
 61.07     694.00      26.34
 61.17     598.59      24.47
 61.27     653.00      25.55
 61.37     645.96      25.42
 61.47     656.96      25.63
 61.57     708.00      26.61
 61.67     788.33      28.08
 61.77     916.00      30.27
 61.87    1051.00      32.42
 61.97    1168.11      34.18
 62.07    1286.47      35.87
 62.17    1492.60      38.63
 62.27    1392.00      37.31
 62.37    1467.60      38.31
 62.47    1334.00      36.52
 62.57    1107.00      33.27
 62.67    1036.17      32.19
 62.77     824.00      28.71
 62.87     695.91      26.38
 62.97     635.19      25.20
 63.07     583.00      24.15
 63.17     609.00      24.68
 63.27     587.00      24.23
 63.37     591.00      24.31
 63.47     530.00      23.02
 63.57     561.00      23.69
 63.67     599.00      24.47
 63.77     557.00      23.60
 63.87     658.00      25.65
 63.97     599.00      24.47
 64.07     685.00      26.17
 64.17     705.00      26.55
 64.27     806.00      28.39
 64.37     853.34      29.21
 64.47     917.00      30.28
 64.57     982.00      31.34
 64.67    1012.34      31.82
 64.77     975.00      31.22
 64.87    1030.21      32.10
 64.97     880.00      29.66
 65.07     921.00      30.35
 65.17     856.00      29.26
 65.27     786.00      28.04
 65.37     688.00      26.23
 65.47     667.00      25.83
 65.57     662.00      25.73
 65.67     620.00      24.90
 65.77     624.00      24.98
 65.87     567.00      23.81
 65.97     550.79      23.47
 66.07     565.00      23.77
 66.17     546.00      23.37
 66.27     563.00      23.73
 66.37     534.00      23.11
 66.47     527.00      22.96
 66.57     553.00      23.52
 66.67     556.00      23.58
 66.77     566.00      23.79
 66.87     543.00      23.30
 66.97     596.00      24.41
 67.07     576.00      24.00
 67.17     613.00      24.76
 67.27     746.00      27.31
 67.37     797.51      28.24
 67.47     885.00      29.75
 67.57    1080.00      32.86
 67.67    1305.00      36.12
 67.77    1664.88      40.80
 67.87    1842.00      42.92
 67.97    2174.71      46.63
 68.07    2438.00      49.38
 68.17    2436.44      49.36
 68.27    2328.99      48.26
 68.37    2281.89      47.77
 68.47    1904.19      43.64
 68.57    1698.00      41.21
 68.67    1411.58      37.57
 68.77    1159.33      34.05
 68.87     920.91      30.35
 68.97     866.00      29.43
 69.07     732.00      27.06
 69.17     680.00      26.08
 69.27     653.00      25.55
 69.37     634.00      25.18
 69.47     608.92      24.68
 69.57     538.50      23.21
 69.67     562.00      23.71
 69.77     575.00      23.98
 69.87     511.08      22.61
 69.97     553.00      23.52
 70.07     543.00      23.30
 70.17     534.00      23.11
 70.27     554.00      23.54
 70.37     542.00      23.28
 70.47     534.00      23.11
 70.57     564.00      23.75
 70.67     575.00      23.98
 70.77     599.97      24.49
 70.87     563.00      23.73
 70.97     593.26      24.36
 71.07     595.00      24.39
 71.17     705.00      26.55
 71.27     714.00      26.72
 71.37     820.26      28.64
 71.47     956.00      30.92
 71.57    1120.73      33.48
 71.67    1300.00      36.06
 71.77    1453.74      38.13
 71.87    1726.00      41.55
 71.97    1828.00      42.76
 72.07    1975.00      44.44
 72.17    1963.00      44.31
 72.27    1911.00      43.71
 72.37    1781.38      42.21
 72.47    1597.00      39.96
 72.57    1489.00      38.59
 72.67    1266.10      35.58
 72.77    1188.15      34.47
 72.87    1016.00      31.87
 72.97     901.00      30.02
 73.07     899.00      29.98
 73.17     896.11      29.94
 73.27     772.00      27.78
 73.37     701.00      26.48
 73.47     658.00      25.65
 73.57     720.66      26.85
 73.67     620.89      24.92
 73.77     590.00      24.29
 73.87     588.31      24.26
 73.97     532.00      23.07
 74.07     577.00      24.02
 74.17     598.00      24.45
 74.27     604.00      24.58
 74.37     572.00      23.92
 74.47     621.00      24.92
 74.57     662.00      25.73
 74.67     615.00      24.80
 74.77     649.00      25.48
 74.87     654.00      25.57
 74.97     621.00      24.92
 75.07     614.00      24.78
 75.17     512.62      22.64
 75.27     600.00      24.49
 75.37     586.71      24.22
 75.47     562.00      23.71
 75.57     519.25      22.79
 75.67     499.00      22.34
 75.77     546.00      23.37
 75.87     552.00      23.49
 75.97     569.28      23.86
 76.07     597.00      24.43
 76.17     671.65      25.92
 76.27     597.85      24.45
 76.37     635.00      25.20
 76.47     637.09      25.24
 76.57     647.00      25.44
 76.67     697.00      26.40
 76.77     696.12      26.38
 76.87     669.00      25.87
 76.97     666.20      25.81
 77.07     621.00      24.92
 77.17     571.40      23.90
 77.27     606.00      24.62
 77.37     599.19      24.48
 77.47     527.00      22.96
 77.57     562.38      23.71
 77.67     524.60      22.90
 77.77     513.00      22.65
 77.87     501.00      22.38
 77.97     538.00      23.19
 78.07     533.81      23.10
 78.17     506.00      22.49
 78.27     528.00      22.98
 78.37     539.41      23.23
 78.47     517.00      22.74
 78.57     485.00      22.02
 78.67     537.00      23.17
 78.77     550.00      23.45
 78.87     534.57      23.12
 78.97     560.00      23.66
 79.07     533.00      23.09
 79.17     534.00      23.11
 79.27     524.18      22.90
 79.37     555.71      23.57
 79.47     530.00      23.02
 79.57     505.39      22.48
 79.67     544.00      23.32
 79.77     503.00      22.43
 79.87     539.00      23.22
 79.97     483.00      21.98
 80.07     553.00      23.52
 80.17     522.41      22.86
 80.27     538.00      23.19
 80.37     585.01      24.19
 80.47     561.79      23.70
 80.57     586.13      24.21
 80.67     628.77      25.08
 80.77     610.00      24.70
 80.87     662.00      25.73
 80.97     633.95      25.18
 81.07     697.00      26.40
 81.17     667.20      25.83
 81.27     764.00      27.64
 81.37     682.84      26.13
 81.47     750.00      27.39
 81.57     804.00      28.35
 81.67     709.53      26.64
 81.77     742.20      27.24
 81.87     703.00      26.51
 81.97     687.91      26.23
 82.07     684.00      26.15
 82.17     645.24      25.40
 82.27     686.33      26.20
 82.37     626.95      25.04
 82.47     597.00      24.43
 82.57     600.59      24.51
 82.67     569.00      23.85
 82.77     559.00      23.64
 82.87     551.00      23.47
 82.97     553.65      23.53
 83.07     515.00      22.69
 83.17     592.06      24.33
 83.27     562.00      23.71
 83.37     567.00      23.81
 83.47     541.75      23.28
 83.57     537.00      23.17
 83.67     528.00      22.98
 83.77     565.00      23.77
 83.87     571.00      23.90
 83.97     602.89      24.55
 84.07     601.74      24.53
 84.17     536.06      23.15
 84.27     563.00      23.73
 84.37     554.00      23.54
 84.47     575.00      23.98
 84.57     581.00      24.10
 84.67     546.00      23.37
 84.77     546.00      23.37
 84.87     530.51      23.03
 84.97     550.09      23.45
 85.07     546.00      23.37
 85.17     525.00      22.91
 85.27     530.00      23.02
 85.37     531.00      23.04
 85.47     536.26      23.16
 85.57     524.00      22.89
 85.67     539.34      23.22
 85.77     525.00      22.91
 85.87     537.00      23.17
 85.97     521.00      22.83
 86.07     528.28      22.98
 86.17     484.53      22.01
 86.27     557.00      23.60
 86.37     517.00      22.74
 86.47     576.00      24.00
 86.57     568.47      23.84
 86.67     554.00      23.54
 86.77     610.00      24.70
 86.87     582.00      24.12
 86.97     580.12      24.09
 87.07     559.00      23.64
 87.17     605.00      24.60
 87.27     593.00      24.35
 87.37     632.00      25.14
 87.47     607.00      24.64
 87.57     636.00      25.22
 87.67     636.00      25.22
 87.77     651.41      25.52
 87.87     612.00      24.74
 87.97     653.71      25.57
 88.07     652.00      25.53
 88.17     603.00      24.56
 88.27     583.00      24.15
 88.37     609.86      24.70
 88.47     557.00      23.60
 88.57     606.84      24.63
 88.67     568.24      23.84
 88.77     603.92      24.57
 88.87     565.33      23.78
 88.97     571.00      23.90
 89.07     641.00      25.32
 89.17     599.32      24.48
 89.27     610.66      24.71
 89.37     574.21      23.96
 89.47     625.00      25.00
 89.57     589.00      24.27
 89.67     547.00      23.39
 89.77     541.58      23.27
 89.87     606.47      24.63
 89.97     572.58      23.93
 90.07     550.82      23.47
 90.17     594.36      24.38
 90.27     525.00      22.91
 90.37     546.00      23.37
 90.47     520.00      22.80
 90.57     573.79      23.95
 90.67     502.00      22.41
 90.77     519.00      22.78
 90.87     490.54      22.15
 90.97     559.00      23.64
 91.07     490.00      22.14
 91.17     528.79      23.00
 91.27     533.97      23.11
 91.37     485.93      22.04
 91.47     492.00      22.18
 91.57     550.64      23.47
 91.67     540.00      23.24
 91.77     515.00      22.69
 91.87     499.00      22.34
 91.97     480.00      21.91
 92.07     509.00      22.56
 92.17     523.00      22.87
 92.27     553.52      23.53
 92.37     513.00      22.65
 92.47     596.64      24.43
 92.57     643.00      25.36
 92.67     631.00      25.12
 92.77     642.82      25.35
 92.87     701.99      26.50
 92.97     676.00      26.00
 93.07     684.25      26.16
 93.17     676.00      26.00
 93.27     697.00      26.40
 93.37     807.00      28.41
 93.47     746.00      27.31
 93.57     816.00      28.57
 93.67     847.03      29.10
 93.77     831.00      28.83
 93.87     782.65      27.98
 93.97     857.01      29.27
 94.07     893.00      29.88
 94.17     838.00      28.95
 94.27     832.50      28.85
 94.37     872.00      29.53
 94.47     901.05      30.02
 94.57     932.76      30.54
 94.67     919.00      30.32
 94.77     925.08      30.42
 94.87     907.00      30.12
 94.97     920.00      30.33
 95.07     892.45      29.87
 95.17     917.00      30.28
 95.27     858.00      29.29
 95.37     800.00      28.28
 95.47     773.00      27.80
 95.57     814.00      28.53
 95.67     739.00      27.18
 95.77     735.16      27.11
 95.87     685.00      26.17
 95.97     647.00      25.44
 96.07     698.00      26.42
 96.17     634.15      25.18
 96.27     644.16      25.38
 96.37     700.00      26.46
 96.47     733.00      27.07
 96.57     790.00      28.11
 96.67     886.13      29.77
 96.77     861.00      29.34
 96.87     964.00      31.05
 96.97    1016.84      31.89
 97.07    1124.00      33.53
 97.17    1171.00      34.22
 97.27    1281.00      35.79
 97.37    1288.00      35.89
 97.47    1428.00      37.79
 97.57    1352.00      36.77
 97.67    1384.09      37.20
 97.77    1413.00      37.59
 97.87    1420.00      37.68
 97.97    1393.81      37.33
 98.07    1364.00      36.93
 98.17    1296.00      36.00
 98.27    1133.17      33.66
 98.37    1145.56      33.85
 98.47    1080.54      32.87
 98.57     980.00      31.30
 98.67     898.00      29.97
 98.77     841.21      29.00
 98.87     822.00      28.67
 98.97     777.00      27.87
 99.07     836.00      28.91
 99.17     757.70      27.53
 99.27     804.00      28.35
 99.37     907.00      30.12
 99.47     893.03      29.88
 99.57    1013.00      31.83
 99.67    1089.00      33.00
 99.77    1181.00      34.37
 99.87    1246.32      35.30
 99.97    1279.00      35.76
100.07    1531.00      39.13
100.17    1630.00      40.37
100.27    1735.86      41.66
100.37    1926.00      43.89
100.47    1879.20      43.35
100.57    1982.54      44.53
100.67    2014.00      44.88
100.77    2061.00      45.40
100.87    2088.00      45.69
100.97    2098.00      45.80
101.07    2101.00      45.84
101.17    1992.00      44.63
101.27    1958.00      44.25
101.37    1865.00      43.19
101.47    1682.00      41.01
101.57    1588.28      39.85
101.67    1661.00      40.76
101.77    1478.00      38.44
101.87    1343.00      36.65
101.97    1319.00      36.32
102.07    1311.62      36.22
102.17    1277.00      35.74
102.27    1207.00      34.74
102.37    1164.83      34.13
102.47    1060.00      32.56
102.57    1109.00      33.30
102.67    1038.00      32.22
102.77    1061.00      32.57
102.87    1042.00      32.28
102.97     985.90      31.40
103.07     964.00      31.05
103.17     980.67      31.32
103.27     922.26      30.37
103.37     865.00      29.41
103.47     818.00      28.60
103.57     801.00      28.30
103.67     743.00      27.26
103.77     732.00      27.06
103.87     693.00      26.32
103.97     622.00      24.94
104.07     607.00      24.64
104.17     583.78      24.16
104.27     596.00      24.41
104.37     599.45      24.48
104.47     591.65      24.32
104.57     531.00      23.04
104.67     587.00      24.23
104.77     535.00      23.13
104.87     500.00      22.36
104.97     506.00      22.49
105.07     540.00      23.24
105.17     561.00      23.69
105.27     521.34      22.83
105.37     501.34      22.39
105.47     508.30      22.55
105.57     539.00      23.22
105.67     545.00      23.35
105.77     539.00      23.22
105.87     570.00      23.87
105.97     515.40      22.70
106.07     545.92      23.36
106.17     599.00      24.47
106.27     609.62      24.69
106.37     592.00      24.33
106.47     616.23      24.82
106.57     577.00      24.02
106.67     602.00      24.54
106.77     656.71      25.63
106.87     625.00      25.00
106.97     675.00      25.98
107.07     652.00      25.53
107.17     651.00      25.51
107.27     626.00      25.02
107.37     643.82      25.37
107.47     629.00      25.08
107.57     654.00      25.57
107.67     673.01      25.94
107.77     726.00      26.94
107.87     669.00      25.87
107.97     694.53      26.35
108.07     715.64      26.75
108.17     665.07      25.79
108.27     619.00      24.88
108.37     663.00      25.75
108.47     705.00      26.55
108.57     676.39      26.01
108.67     659.71      25.68
108.77     718.30      26.80
108.87     652.00      25.53
108.97     673.64      25.95
109.07     679.00      26.06
109.17     647.22      25.44
109.27     623.00      24.96
109.37     692.00      26.31
109.47     618.00      24.86
109.57     682.00      26.12
109.67     632.00      25.14
109.77     656.49      25.62
109.87     579.79      24.08
109.97     584.00      24.17
110.07     611.00      24.72
110.17     592.00      24.33
110.27     560.00      23.66
110.37     594.00      24.37
110.47     572.77      23.93
110.57     562.00      23.71
110.67     561.00      23.69
110.77     533.00      23.09
110.87     539.90      23.24
110.97     550.00      23.45
111.07     537.00      23.17
111.17     588.00      24.25
111.27     507.01      22.52
111.37     502.63      22.42
111.47     490.59      22.15
111.57     539.00      23.22
111.67     536.00      23.15
111.77     503.00      22.43
111.87     509.22      22.57
111.97     590.00      24.29
112.07     506.92      22.51
112.17     545.00      23.35
112.27     536.51      23.16
112.37     554.18      23.54
112.47     527.00      22.96
112.57     561.83      23.70
112.67     585.20      24.19
112.77     552.00      23.49
112.87     613.00      24.76
112.97     597.79      24.45
113.07     636.00      25.22
113.17     703.00      26.51
113.27     740.00      27.20
113.37     673.87      25.96
113.47     731.92      27.05
113.57     807.91      28.42
113.67     888.00      29.80
113.77     868.19      29.47
113.87     858.18      29.29
113.97     945.18      30.74
114.07     931.00      30.51
114.17    1035.00      32.17
114.27    1164.00      34.12
114.37    1193.00      34.54
114.47    1247.00      35.31
114.57    1380.79      37.16
114.67    1504.00      38.78
114.77    1631.00      40.39
114.87    1733.78      41.64
114.97    1938.00      44.02
115.07    2179.00      46.68
115.17    2281.24      47.76
115.27    2562.26      50.62
115.37    2865.00      53.53
115.47    3055.00      55.27
115.57    3478.98      58.98
115.67    3793.00      61.59
115.77    4128.00      64.25
115.87    4400.00      66.33
115.97    4883.00      69.88
116.07    5238.00      72.37
116.17    5800.22      76.16
116.27    6051.00      77.79
116.37    6244.00      79.02
116.47    6844.00      82.73
116.57    6878.74      82.94
116.67    7079.00      84.14
116.77    7080.65      84.15
116.87    7222.00      84.98
116.97    7135.00      84.47
117.07    6815.09      82.55
117.17    6640.00      81.49
117.27    6360.00      79.75
117.37    6209.62      78.80
117.47    5536.00      74.40
117.57    5250.27      72.46
117.67    4890.00      69.93
117.77    4632.00      68.06
117.87    4259.07      65.26
117.97    3823.23      61.83
118.07    3494.00      59.11
118.17    3151.00      56.13
118.27    2702.00      51.98
118.37    2427.00      49.26
118.47    2077.11      45.58
118.57    1916.00      43.77
118.67    1599.00      39.99
118.77    1411.00      37.56
118.87    1296.82      36.01
118.97    1161.68      34.08
119.07    1071.00      32.73
119.17     955.00      30.90
119.27     902.00      30.03
119.37     886.98      29.78
119.47     854.98      29.24
119.57     705.33      26.56
119.67     703.00      26.51
119.77     667.00      25.83
119.87     648.00      25.46
119.97     590.00      24.29
120.07     633.95      25.18
120.17     573.16      23.94
120.27     560.00      23.66
120.37     599.00      24.47
120.47     577.00      24.02
120.57     621.81      24.94
120.67     589.00      24.27
120.77     587.00      24.23
120.87     555.53      23.57
120.97     558.00      23.62
121.07     563.27      23.73
121.17     576.00      24.00
121.27     608.98      24.68
121.37     533.00      23.09
121.47     518.00      22.76
121.57     588.00      24.25
121.67     570.63      23.89
121.77     598.00      24.45
121.87     580.00      24.08
121.97     581.00      24.10
122.07     591.49      24.32
122.17     604.18      24.58
122.27     582.25      24.13
122.37     634.00      25.18
122.47     639.15      25.28
122.57     670.00      25.88
122.67     595.76      24.41
122.77     663.21      25.75
122.87     613.65      24.77
122.97     638.00      25.26
123.07     602.00      24.54
123.17     646.00      25.42
123.27     624.00      24.98
123.37     583.27      24.15
123.47     654.74      25.59
123.57     627.00      25.04
123.67     662.00      25.73
123.77     625.13      25.00
123.87     625.00      25.00
123.97     632.13      25.14
124.07     623.00      24.96
124.17     642.72      25.35
124.27     570.95      23.89
124.37     586.00      24.21
124.47     581.00      24.10
124.57     594.05      24.37
124.67     586.00      24.21
124.77     585.00      24.19
124.87     570.00      23.87
124.97     583.00      24.15
