  9.97     591.00      24.31
 10.07     587.00      24.23
 10.17     597.23      24.44
 10.27     593.00      24.35
 10.37     594.00      24.37
 10.47     602.83      24.55
 10.57     557.15      23.60
 10.67     563.00      23.73
 10.77     606.05      24.62
 10.87     620.00      24.90
 10.97     587.35      24.24
 11.07     543.59      23.31
 11.17     549.08      23.43
 11.27     544.94      23.34
 11.37     602.00      24.54
 11.47     547.42      23.40
 11.57     588.00      24.25
 11.67     619.00      24.88
 11.77     615.00      24.80
 11.87     618.74      24.87
 11.97     641.92      25.34
 12.07     687.00      26.21
 12.17     674.00      25.96
 12.27     746.54      27.32
 12.37     603.00      24.56
 12.47     600.00      24.49
 12.57     610.00      24.70
 12.67     607.00      24.64
 12.77     573.63      23.95
 12.87     593.00      24.35
 12.97     537.00      23.17
 13.07     549.00      23.43
 13.17     573.00      23.94
 13.27     555.00      23.56
 13.37     569.00      23.85
 13.47     530.30      23.03
 13.57     534.14      23.11
 13.67     533.00      23.09
 13.77     593.08      24.35
 13.87     542.00      23.28
 13.97     595.00      24.39
 14.07     554.90      23.56
 14.17     542.28      23.29
 14.27     537.00      23.17
 14.37     547.59      23.40
 14.47     536.00      23.15
 14.57     566.41      23.80
 14.67     586.74      24.22
 14.77     542.00      23.28
 14.87     565.00      23.77
 14.97     605.00      24.60
 15.07     542.10      23.28
 15.17     548.00      23.41
 15.27     606.00      24.62
 15.37     533.00      23.09
 15.47     540.86      23.26
 15.57     599.98      24.49
 15.67     553.49      23.53
 15.77     577.00      24.02
 15.87     560.00      23.66
 15.97     567.00      23.81
 16.07     613.00      24.76
 16.17     521.00      22.83
 16.27     582.42      24.13
 16.37     550.57      23.46
 16.47     546.70      23.38
 16.57     520.00      22.80
 16.67     530.00      23.02
 16.77     586.78      24.22
 16.87     541.00      23.26
 16.97     591.00      24.31
 17.07     573.00      23.94
 17.17     574.00      23.96
 17.27     564.00      23.75
 17.37     560.00      23.66
 17.47     506.00      22.49
 17.57     523.52      22.88
 17.67     562.00      23.71
 17.77     559.00      23.64
 17.87     530.00      23.02
 17.97     539.01      23.22
 18.07     540.00      23.24
 18.17     558.00      23.62
 18.27     577.75      24.04
 18.37     579.00      24.06
 18.47     519.00      22.78
 18.57     527.00      22.96
 18.67     566.00      23.79
 18.77     575.00      23.98
 18.87     513.00      22.65
 18.97     567.24      23.82
 19.07     570.42      23.88
 19.17     559.03      23.64
 19.27     575.00      23.98
 19.37     590.63      24.30
 19.47     523.87      22.89
 19.57     566.25      23.80
 19.67     569.00      23.85
 19.77     515.00      22.69
 19.87     518.00      22.76
 19.97     549.00      23.43
 20.07     537.00      23.17
 20.17     563.00      23.73
 20.27     539.00      23.22
 20.37     515.00      22.69
 20.47     512.00      22.63
 20.57     530.00      23.02
 20.67     559.00      23.64
 20.77     566.00      23.79
 20.87     581.47      24.11
 20.97     514.00      22.67
 21.07     514.61      22.68
 21.17     564.00      23.75
 21.27     596.00      24.41
 21.37     558.00      23.62
 21.47     547.00      23.39
 21.57     593.00      24.35
 21.67     509.34      22.57
 21.77     566.00      23.79
 21.87     573.79      23.95
 21.97     583.92      24.16
 22.07     539.00      23.22
 22.17     539.00      23.22
 22.27     582.00      24.12
 22.37     511.03      22.61
 22.47     543.92      23.32
 22.57     558.58      23.63
 22.67     600.00      24.49
 22.77     531.11      23.05
 22.87     571.00      23.90
 22.97     527.23      22.96
 23.07     561.00      23.69
 23.17     514.00      22.67
 23.27     560.00      23.66
 23.37     507.60      22.53
 23.47     553.00      23.52
 23.57     549.53      23.44
 23.67     561.92      23.70
 23.77     525.35      22.92
 23.87     548.00      23.41
 23.97     524.09      22.89
 24.07     584.54      24.18
 24.17     554.00      23.54
 24.27     584.79      24.18
 24.37     589.00      24.27
 24.47     576.00      24.00
 24.57     583.97      24.17
 24.67     614.00      24.78
 24.77     564.00      23.75
 24.87     648.00      25.46
 24.97     573.63      23.95
 25.07     593.70      24.37
 25.17     531.00      23.04
 25.27     574.00      23.96
 25.37     536.54      23.16
 25.47     570.00      23.87
 25.57     551.00      23.47
 25.67     587.05      24.23
 25.77     571.58      23.91
 25.87     546.03      23.37
 25.97     556.00      23.58
 26.07     547.00      23.39
 26.17     563.00      23.73
 26.27     543.66      23.32
 26.37     568.00      23.83
 26.47     533.00      23.09
 26.57     537.00      23.17
 26.67     501.61      22.40
 26.77     573.00      23.94
 26.87     563.00      23.73
 26.97     594.00      24.37
 27.07     509.00      22.56
 27.17     562.00      23.71
 27.27     599.00      24.47
 27.37     506.80      22.51
 27.47     567.00      23.81
 27.57     560.00      23.66
 27.67     559.00      23.64
 27.77     638.00      25.26
 27.87     580.00      24.08
 27.97     633.29      25.17
 28.07     709.00      26.63
 28.17     930.00      30.50
 28.27     902.76      30.05
 28.37     865.99      29.43
 28.47     800.00      28.28
 28.57     744.90      27.29
 28.67     677.00      26.02
 28.77     718.00      26.80
 28.87     802.18      28.32
 28.97     752.00      27.42
 29.07     751.00      27.40
 29.17     685.00      26.17
 29.27     632.00      25.14
 29.37     590.00      24.29
 29.47     628.80      25.08
 29.57     635.00      25.20
 29.67     613.00      24.76
 29.77     561.29      23.69
 29.87     534.08      23.11
 29.97     568.00      23.83
 30.07     592.06      24.33
 30.17     529.00      23.00
 30.27     580.00      24.08
 30.37     521.00      22.83
 30.47     512.19      22.63
 30.57     618.00      24.86
 30.67     597.00      24.43
 30.77     603.14      24.56
 30.87     648.00      25.46
 30.97     607.00      24.64
 31.07     610.00      24.70
 31.17     571.12      23.90
 31.27     548.00      23.41
 31.37     511.00      22.61
 31.47     506.00      22.49
 31.57     524.00      22.89
 31.67     551.02      23.47
 31.77     533.00      23.09
 31.87     534.00      23.11
 31.97     538.13      23.20
 32.07     601.00      24.52
 32.17     535.76      23.15
 32.27     536.00      23.15
 32.37     527.00      22.96
 32.47     565.29      23.78
 32.57     557.80      23.62
 32.67     527.00      22.96
 32.77     563.00      23.73
 32.87     542.00      23.28
 32.97     511.00      22.61
 33.07     542.00      23.28
 33.17     591.00      24.31
 33.27     565.00      23.77
 33.37     571.50      23.91
 33.47     539.00      23.22
 33.57     538.88      23.21
 33.67     606.23      24.62
 33.77     793.00      28.16
 33.87     875.00      29.58
 33.97     993.00      31.51
 34.07    1063.86      32.62
 34.17    1047.35      32.36
 34.27     937.18      30.61
 34.37     747.00      27.33
 34.47     605.00      24.60
 34.57     613.00      24.76
 34.67     595.42      24.40
 34.77     516.00      22.72
 34.87     514.00      22.67
 34.97     565.96      23.79
 35.07     530.00      23.02
 35.17     542.00      23.28
 35.27     518.00      22.76
 35.37     479.00      21.89
 35.47     547.14      23.39
 35.57     521.32      22.83
 35.67     498.00      22.32
 35.77     546.33      23.37
 35.87     506.00      22.49
 35.97     526.00      22.93
 36.07     542.79      23.30
 36.17     544.27      23.33
 36.27     534.84      23.13
 36.37     538.00      23.19
 36.47     561.00      23.69
 36.57     528.00      22.98
 36.67     518.00      22.76
 36.77     508.00      22.54
 36.87     537.00      23.17
 36.97     511.00      22.61
 37.07     509.63      22.58
 37.17     540.00      23.24
 37.27     514.00      22.67
 37.37     537.00      23.17
 37.47     492.44      22.19
 37.57     517.25      22.74
 37.67     522.00      22.85
 37.77     548.00      23.41
 37.87     512.00      22.63
 37.97     515.53      22.71
 38.07     553.24      23.52
 38.17     503.00      22.43
 38.27     509.00      22.56
 38.37     519.00      22.78
 38.47     514.98      22.69
 38.57     515.00      22.69
 38.67     497.00      22.29
 38.77     504.00      22.45
 38.87     510.56      22.60
 38.97     473.00      21.75
 39.07     480.00      21.91
 39.17     509.84      22.58
 39.27     552.06      23.50
 39.37     522.00      22.85
 39.47     503.00      22.43
 39.57     502.00      22.41
 39.67     475.92      21.82
 39.77     513.00      22.65
 39.87     480.08      21.91
 39.97     485.21      22.03
 40.07     497.31      22.30
 40.17     495.16      22.25
 40.27     529.48      23.01
 40.37     455.00      21.33
 40.47     560.00      23.66
 40.57     532.16      23.07
 40.67     547.83      23.41
 40.77     511.18      22.61
 40.87     528.50      22.99
 40.97     491.33      22.17
 41.07     507.00      22.52
 41.17     579.00      24.06
 41.27     462.00      21.49
 41.37     525.86      22.93
 41.47     519.00      22.78
 41.57     520.00      22.80
 41.67     488.00      22.09
 41.77     494.00      22.23
 41.87     550.70      23.47
 41.97     552.80      23.51
 42.07     524.00      22.89
 42.17     494.00      22.23
 42.27     557.87      23.62
 42.37     512.00      22.63
 42.47     606.49      24.63
 42.57     622.21      24.94
 42.67     660.60      25.70
 42.77     640.00      25.30
 42.87     581.00      24.10
 42.97     589.00      24.27
 43.07     507.00      22.52
 43.17     533.00      23.09
 43.27     508.60      22.55
 43.37     543.66      23.32
 43.47     510.00      22.58
 43.57     483.00      21.98
 43.67     488.00      22.09
 43.77     498.00      22.32
 43.87     499.93      22.36
 43.97     522.00      22.85
 44.07     531.95      23.06
 44.17     466.00      21.59
 44.27     504.87      22.47
 44.37     501.00      22.38
 44.47     487.00      22.07
 44.57     521.00      22.83
 44.67     508.00      22.54
 44.77     485.00      22.02
 44.87     528.75      22.99
 44.97     508.00      22.54
 45.07     525.12      22.92
 45.17     473.13      21.75
 45.27     530.00      23.02
 45.37     564.00      23.75
 45.47     471.00      21.70
 45.57     496.57      22.28
 45.67     476.95      21.84
 45.77     524.05      22.89
 45.87     528.70      22.99
 45.97     514.00      22.67
 46.07     540.93      23.26
 46.17     500.00      22.36
 46.27     498.93      22.34
 46.37     549.20      23.43
 46.47     517.00      22.74
 46.57     508.00      22.54
 46.67     487.00      22.07
 46.77     489.07      22.11
 46.87     466.00      21.59
 46.97     513.00      22.65
 47.07     518.00      22.76
 47.17     534.73      23.12
 47.27     539.71      23.23
 47.37     545.00      23.35
 47.47     542.00      23.28
 47.57     532.00      23.07
 47.67     590.00      24.29
 47.77     549.43      23.44
 47.87     568.00      23.83
 47.97     608.00      24.66
 48.07     583.07      24.15
 48.17     595.00      24.39
 48.27     558.00      23.62
 48.37     532.00      23.07
 48.47     491.82      22.18
 48.57     541.00      23.26
 48.67     546.00      23.37
 48.77     541.00      23.26
 48.87     545.00      23.35
 48.97     568.00      23.83
 49.07     534.70      23.12
 49.17     552.00      23.49
 49.27     660.14      25.69
 49.37     694.41      26.35
 49.47     743.88      27.27
 49.57     773.14      27.81
 49.67     870.00      29.50
 49.77    1124.69      33.54
 49.87    1467.00      38.30
 49.97    1793.00      42.34
 50.07    2272.09      47.67
 50.17    2652.00      51.50
 50.27    2474.00      49.74
 50.37    2339.00      48.36
 50.47    1882.00      43.38
 50.57    1528.18      39.09
 50.67    1052.59      32.44
 50.77     889.15      29.82
 50.87     694.00      26.34
 50.97     676.00      26.00
 51.07     635.08      25.20
 51.17     607.29      24.64
 51.27     600.00      24.49
 51.37     547.46      23.40
 51.47     582.00      24.12
 51.57     565.00      23.77
 51.67     512.00      22.63
 51.77     547.00      23.39
 51.87     571.90      23.91
 51.97     581.00      24.10
 52.07     548.44      23.42
 52.17     535.00      23.13
 52.27     563.00      23.73
 52.37     561.00      23.69
 52.47     514.33      22.68
 52.57     603.00      24.56
 52.67     607.00      24.64
 52.77     621.44      24.93
 52.87     664.00      25.77
 52.97     688.02      26.23
 53.07     802.00      28.32
 53.17     929.26      30.48
 53.27    1042.48      32.29
 53.37    1087.80      32.98
 53.47    1180.00      34.35
 53.57    1185.00      34.42
 53.67    1045.00      32.33
 53.77    1009.00      31.76
 53.87     861.36      29.35
 53.97     812.00      28.50
 54.07     692.00      26.31
 54.17     630.00      25.10
 54.27     618.00      24.86
 54.37     600.00      24.49
 54.47     537.33      23.18
 54.57     577.00      24.02
 54.67     541.00      23.26
 54.77     582.41      24.13
 54.87     573.00      23.94
 54.97     500.17      22.36
 55.07     576.00      24.00
 55.17     570.33      23.88
 55.27     575.00      23.98
 55.37     561.00      23.69
 55.47     570.00      23.87
 55.57     568.00      23.83
 55.67     540.79      23.25
 55.77     563.00      23.73
 55.87     580.00      24.08
 55.97     606.00      24.62
 56.07     680.00      26.08
 56.17     750.00      27.39
 56.27     873.00      29.55
 56.37    1019.00      31.92
 56.47    1420.26      37.69
 56.57    1720.00      41.47
 56.67    2177.09      46.66
 56.77    2388.00      48.87
 56.87    2539.00      50.39
 56.97    2523.00      50.23
 57.07    2328.00      48.25
 57.17    1941.99      44.07
 57.27    1659.00      40.73
 57.37    1266.77      35.59
 57.47    1092.70      33.06
 57.57     882.00      29.70
 57.67     755.00      27.48
 57.77     709.00      26.63
 57.87     694.00      26.34
 57.97     665.56      25.80
 58.07     681.00      26.10
 58.17     696.00      26.38
 58.27     826.35      28.75
 58.37     863.00      29.38
 58.47     984.81      31.38
 58.57    1151.00      33.93
 58.67    1282.28      35.81
 58.77    1350.25      36.75
 58.87    1617.00      40.21
 58.97    1618.00      40.22
 59.07    1674.50      40.92
 59.17    1584.31      39.80
 59.27    1448.00      38.05
 59.37    1388.00      37.26
 59.47    1233.00      35.11
 59.57    1178.00      34.32
 59.67    1184.00      34.41
 59.77    1158.23      34.03
 59.87    1119.51      33.46
 59.97    1337.15      36.57
 60.07    1460.00      38.21
 60.17    1530.21      39.12
 60.27    1625.00      40.31
 60.37    1526.02      39.06
 60.47    1521.00      39.00
 60.57    1163.09      34.10
 60.67    1122.00      33.50
 60.77     924.00      30.40
 60.87     792.00      28.14
 60.97     730.00      27.02
 61.07     661.00      25.71
 61.17     705.00      26.55
 61.27     647.00      25.44
 61.37     600.32      24.50
 61.47     668.00      25.85
 61.57     787.28      28.06
 61.67     899.57      29.99
 61.77     948.00      30.79
 61.87    1082.00      32.89
 61.97    1239.29      35.20
 62.07    1337.00      36.57
 62.17    1362.00      36.91
 62.27    1388.00      37.26
 62.37    1322.00      36.36
 62.47    1149.00      33.90
 62.57    1025.00      32.02
 62.67     872.00      29.53
 62.77     846.18      29.09
 62.87     655.00      25.59
 62.97     608.00      24.66
 63.07     617.00      24.84
 63.17     576.00      24.00
 63.27     533.85      23.11
 63.37     555.00      23.56
 63.47     592.04      24.33
 63.57     584.00      24.17
 63.67     561.00      23.69
 63.77     564.00      23.75
 63.87     585.45      24.20
 63.97     689.94      26.27
 64.07     668.82      25.86
 64.17     790.99      28.12
 64.27     810.00      28.46
 64.37     911.00      30.18
 64.47     931.00      30.51
 64.57     980.00      31.30
 64.67    1016.00      31.87
 64.77    1054.00      32.47
 64.87     955.51      30.91
 64.97     872.00      29.53
 65.07     854.86      29.24
 65.17     840.00      28.98
 65.27     777.58      27.89
 65.37     725.05      26.93
 65.47     687.13      26.21
 65.57     629.00      25.08
 65.67     644.38      25.38
 65.77     583.43      24.15
 65.87     583.00      24.15
 65.97     567.89      23.83
 66.07     599.00      24.47
 66.17     565.00      23.77
 66.27     575.73      23.99
 66.37     608.35      24.66
 66.47     518.00      22.76
 66.57     575.00      23.98
 66.67     556.00      23.58
 66.77     542.33      23.29
 66.87     537.00      23.17
 66.97     625.65      25.01
 67.07     666.02      25.81
 67.17     724.53      26.92
 67.27     807.11      28.41
 67.37     861.00      29.34
 67.47    1040.00      32.25
 67.57    1218.00      34.90
 67.67    1525.00      39.05
 67.77    1821.00      42.67
 67.87    1975.18      44.44
 67.97    2306.00      48.02
 68.07    2490.00      49.90
 68.17    2467.00      49.67
 68.27    2316.00      48.12
 68.37    1966.27      44.34
 68.47    1849.00      43.00
 68.57    1525.00      39.05
 68.67    1268.68      35.62
 68.77     959.00      30.97
 68.87     876.00      29.60
 68.97     740.48      27.21
 69.07     694.00      26.34
 69.17     665.00      25.79
 69.27     688.00      26.23
 69.37     571.00      23.90
 69.47     591.00      24.31
 69.57     595.38      24.40
 69.67     587.00      24.23
 69.77     599.07      24.48
 69.87     557.57      23.61
 69.97     568.95      23.85
 70.07     605.00      24.60
 70.17     575.45      23.99
 70.27     562.00      23.71
 70.37     522.00      22.85
 70.47     621.00      24.92
 70.57     578.00      24.04
 70.67     584.24      24.17
 70.77     599.52      24.49
 70.87     556.00      23.58
 70.97     671.79      25.92
 71.07     629.00      25.08
 71.17     707.00      26.59
 71.27     854.49      29.23
 71.37     873.00      29.55
 71.47    1041.00      32.26
 71.57    1280.73      35.79
 71.67    1505.32      38.80
 71.77    1564.94      39.56
 71.87    1775.42      42.14
 71.97    1854.31      43.06
 72.07    1996.26      44.68
 72.17    1917.00      43.78
 72.27    1774.00      42.12
 72.37    1699.00      41.22
 72.47    1582.00      39.77
 72.57    1420.57      37.69
 72.67    1182.00      34.38
 72.77    1123.00      33.51
 72.87    1030.00      32.09
 72.97     912.38      30.21
 73.07     858.53      29.30
 73.17     782.00      27.96
 73.27     751.00      27.40
 73.37     718.81      26.81
 73.47     608.00      24.66
 73.57     694.60      26.36
 73.67     565.00      23.77
 73.77     577.00      24.02
 73.87     562.00      23.71
 73.97     588.64      24.26
 74.07     623.00      24.96
 74.17     600.00      24.49
 74.27     588.00      24.25
 74.37     562.90      23.73
 74.47     568.12      23.84
 74.57     651.00      25.51
 74.67     608.00      24.66
 74.77     601.00      24.52
 74.87     567.02      23.81
 74.97     593.22      24.36
 75.07     668.00      25.85
 75.17     543.00      23.30
 75.27     590.00      24.29
 75.37     555.34      23.57
 75.47     533.00      23.09
 75.57     560.02      23.66
 75.67     561.00      23.69
 75.77     572.00      23.92
 75.87     626.00      25.02
 75.97     643.00      25.36
 76.07     626.00      25.02
 76.17     627.00      25.04
 76.27     650.00      25.50
 76.37     655.00      25.59
 76.47     731.00      27.04
 76.57     678.51      26.05
 76.67     666.00      25.81
 76.77     670.00      25.88
 76.87     645.00      25.40
 76.97     651.00      25.51
 77.07     625.00      25.00
 77.17     620.00      24.90
 77.27     574.00      23.96
 77.37     600.82      24.51
 77.47     557.83      23.62
 77.57     582.00      24.12
 77.67     560.00      23.66
 77.77     575.27      23.98
 77.87     497.00      22.29
 77.97     564.35      23.76
 78.07     499.00      22.34
 78.17     520.00      22.80
 78.27     552.65      23.51
 78.37     553.76      23.53
 78.47     508.00      22.54
 78.57     532.00      23.07
 78.67     522.00      22.85
 78.77     509.00      22.56
 78.87     498.00      22.32
 78.97     541.92      23.28
 79.07     515.00      22.69
 79.17     528.00      22.98
 79.27     533.31      23.09
 79.37     506.00      22.49
 79.47     529.00      23.00
 79.57     541.00      23.26
 79.67     511.00      22.61
 79.77     501.00      22.38
 79.87     529.00      23.00
 79.97     551.00      23.47
 80.07     585.00      24.19
 80.17     585.94      24.21
 80.27     551.29      23.48
 80.37     590.99      24.31
 80.47     571.00      23.90
 80.57     630.37      25.11
 80.67     606.00      24.62
 80.77     647.60      25.45
 80.87     641.49      25.33
 80.97     677.00      26.02
 81.07     733.00      27.07
 81.17     757.64      27.53
 81.27     737.00      27.15
 81.37     756.00      27.50
 81.47     783.18      27.99
 81.57     774.00      27.82
 81.67     758.03      27.53
 81.77     737.00      27.15
 81.87     720.31      26.84
 81.97     726.00      26.94
 82.07     639.56      25.29
 82.17     645.00      25.40
 82.27     638.10      25.26
 82.37     591.00      24.31
 82.47     601.00      24.52
 82.57     591.00      24.31
 82.67     556.30      23.59
 82.77     522.00      22.85
 82.87     547.95      23.41
 82.97     560.00      23.66
 83.07     562.00      23.71
 83.17     578.00      24.04
 83.27     552.00      23.49
 83.37     562.00      23.71
 83.47     529.00      23.00
 83.57     574.47      23.97
 83.67     570.00      23.87
 83.77     514.00      22.67
 83.87     550.32      23.46
 83.97     588.00      24.25
 84.07     600.33      24.50
 84.17     575.00      23.98
 84.27     553.00      23.52
 84.37     536.00      23.15
 84.47     550.00      23.45
 84.57     531.06      23.04
 84.67     517.00      22.74
 84.77     577.00      24.02
 84.87     501.79      22.40
 84.97     531.33      23.05
 85.07     527.00      22.96
 85.17     512.38      22.64
 85.27     553.17      23.52
 85.37     516.13      22.72
 85.47     539.28      23.22
 85.57     489.29      22.12
 85.67     530.00      23.02
 85.77     533.00      23.09
 85.87     568.42      23.84
 85.97     517.51      22.75
 86.07     551.00      23.47
 86.17     531.48      23.05
 86.27     542.06      23.28
 86.37     579.00      24.06
 86.47     566.00      23.79
 86.57     581.00      24.10
 86.67     513.00      22.65
 86.77     589.00      24.27
 86.87     603.98      24.58
 86.97     616.00      24.82
 87.07     623.00      24.96
 87.17     657.00      25.63
 87.27     668.00      25.85
 87.37     619.44      24.89
 87.47     612.32      24.75
 87.57     684.00      26.15
 87.67     612.00      24.74
 87.77     626.00      25.02
 87.87     626.00      25.02
 87.97     596.00      24.41
 88.07     622.00      24.94
 88.17     625.00      25.00
 88.27     570.72      23.89
 88.37     538.00      23.19
 88.47     551.24      23.48
 88.57     599.00      24.47
 88.67     612.00      24.74
 88.77     624.00      24.98
 88.87     649.00      25.48
 88.97     571.00      23.90
 89.07     630.00      25.10
 89.17     653.00      25.55
 89.27     641.66      25.33
 89.37     590.00      24.29
 89.47     569.00      23.85
 89.57     576.62      24.01
 89.67     576.12      24.00
 89.77     576.00      24.00
 89.87     566.00      23.79
 89.97     560.00      23.66
 90.07     586.17      24.21
 90.17     547.00      23.39
 90.27     496.00      22.27
 90.37     571.66      23.91
 90.47     582.86      24.14
 90.57     553.12      23.52
 90.67     509.97      22.58
 90.77     554.00      23.54
 90.87     530.66      23.04
 90.97     562.87      23.72
 91.07     562.50      23.72
 91.17     561.00      23.69
 91.27     525.03      22.91
 91.37     523.00      22.87
 91.47     538.00      23.19
 91.57     516.00      22.72
 91.67     538.00      23.19
 91.77     576.00      24.00
 91.87     503.00      22.43
 91.97     609.00      24.68
 92.07     563.85      23.75
 92.17     548.67      23.42
 92.27     598.26      24.46
 92.37     563.00      23.73
 92.47     647.84      25.45
 92.57     645.00      25.40
 92.67     689.00      26.25
 92.77     676.00      26.00
 92.87     654.00      25.57
 92.97     778.00      27.89
 93.07     815.00      28.55
 93.17     757.53      27.52
 93.27     850.00      29.15
 93.37     780.00      27.93
 93.47     845.00      29.07
 93.57     850.00      29.15
 93.67     847.00      29.10
 93.77     810.00      28.46
 93.87     805.86      28.39
 93.97     817.19      28.59
 94.07     911.00      30.18
 94.17     848.25      29.12
 94.27     892.00      29.87
 94.37     857.90      29.29
 94.47     918.95      30.31
 94.57     838.92      28.96
 94.67     838.24      28.95
 94.77     902.00      30.03
 94.87     838.01      28.95
 94.97     864.35      29.40
 95.07     870.00      29.50
 95.17     852.00      29.19
 95.27     863.00      29.38
 95.37     819.00      28.62
 95.47     801.00      28.30
 95.57     760.00      27.57
 95.67     729.00      27.00
 95.77     691.00      26.29
 95.87     702.02      26.50
 95.97     677.00      26.02
 96.07     643.45      25.37
 96.17     699.24      26.44
 96.27     739.00      27.18
 96.37     783.27      27.99
 96.47     768.00      27.71
 96.57     859.00      29.31
 96.67     898.28      29.97
 96.77     946.77      30.77
 96.87    1086.47      32.96
 96.97    1147.11      33.87
 97.07    1234.00      35.13
 97.17    1285.00      35.85
 97.27    1375.75      37.09
 97.37    1450.75      38.09
 97.47    1349.23      36.73
 97.57    1419.00      37.67
 97.67    1447.00      38.04
 97.77    1374.00      37.07
 97.87    1389.00      37.27
 97.97    1328.00      36.44
 98.07    1242.00      35.24
 98.17    1148.00      33.88
 98.27    1050.20      32.41
 98.37    1019.00      31.92
 98.47     978.03      31.27
 98.57     909.00      30.15
 98.67     827.20      28.76
 98.77     827.08      28.76
 98.87     803.00      28.34
 98.97     829.93      28.81
 99.07     839.86      28.98
 99.17     856.00      29.26
 99.27     839.14      28.97
 99.37     952.00      30.85
 99.47    1026.00      32.03
 99.57    1147.00      33.87
 99.67    1182.00      34.38
 99.77    1263.00      35.54
 99.87    1419.00      37.67
 99.97    1495.00      38.67
100.07    1594.08      39.93
100.17    1704.00      41.28
100.27    1845.00      42.95
100.37    1844.19      42.94
100.47    2069.00      45.49
100.57    2096.00      45.78
100.67    1997.18      44.69
100.77    2153.00      46.40
100.87    2136.11      46.22
100.97    2143.00      46.29
101.07    1938.76      44.03
101.17    1995.00      44.67
101.27    1805.00      42.49
101.37    1784.62      42.24
101.47    1531.00      39.13
101.57    1509.00      38.85
101.67    1523.79      39.04
101.77    1379.00      37.13
101.87    1295.00      35.99
101.97    1215.00      34.86
102.07    1163.00      34.10
102.17    1206.64      34.74
102.27    1110.00      33.32
102.37    1150.58      33.92
102.47    1112.52      33.35
102.57    1027.00      32.05
102.67    1080.00      32.86
102.77     992.06      31.50
102.87    1042.92      32.29
102.97     925.20      30.42
103.07     926.00      30.43
103.17     835.00      28.90
103.27     796.72      28.23
103.37     818.00      28.60
103.47     791.99      28.14
103.57     702.00      26.50
103.67     752.00      27.42
103.77     685.58      26.18
103.87     639.00      25.28
103.97     661.00      25.71
104.07     570.95      23.89
104.17     557.00      23.60
104.27     597.00      24.43
104.37     580.03      24.08
104.47     575.00      23.98
104.57     576.57      24.01
104.67     580.00      24.08
104.77     574.48      23.97
104.87     576.23      24.00
104.97     538.00      23.19
105.07     547.48      23.40
105.17     530.00      23.02
105.27     541.00      23.26
105.37     513.35      22.66
105.47     568.00      23.83
105.57     532.00      23.07
105.67     573.00      23.94
105.77     510.48      22.59
105.87     574.15      23.96
105.97     582.12      24.13
106.07     583.00      24.15
106.17     528.00      22.98
106.27     569.00      23.85
106.37     632.00      25.14
106.47     598.34      24.46
106.57     635.00      25.20
106.67     658.00      25.65
106.77     628.00      25.06
106.87     648.00      25.46
106.97     678.00      26.04
107.07     689.89      26.27
107.17     662.00      25.73
107.27     709.50      26.64
107.37     705.00      26.55
107.47     694.58      26.35
107.57     659.00      25.67
107.67     649.16      25.48
107.77     634.00      25.18
107.87     682.00      26.12
107.97     737.67      27.16
108.07     660.01      25.69
108.17     676.00      26.00
108.27     672.00      25.92
108.37     737.12      27.15
108.47     682.64      26.13
108.57     664.00      25.77
108.67     690.00      26.27
108.77     676.00      26.00
108.87     706.22      26.57
108.97     717.51      26.79
109.07     639.00      25.28
109.17     664.00      25.77
109.27     683.00      26.13
109.37     626.00      25.02
109.47     677.27      26.02
109.57     674.00      25.96
109.67     620.00      24.90
109.77     594.00      24.37
109.87     624.00      24.98
109.97     595.00      24.39
110.07     581.03      24.10
110.17     591.33      24.32
110.27     566.00      23.79
110.37     546.00      23.37
110.47     533.96      23.11
110.57     576.00      24.00
110.67     550.00      23.45
110.77     534.33      23.12
110.87     531.00      23.04
110.97     550.68      23.47
111.07     578.99      24.06
111.17     545.55      23.36
111.27     512.02      22.63
111.37     568.40      23.84
111.47     537.00      23.17
111.57     521.00      22.83
111.67     548.00      23.41
111.77     573.00      23.94
111.87     534.00      23.11
111.97     535.00      23.13
112.07     618.00      24.86
112.17     554.00      23.54
112.27     546.99      23.39
112.37     551.00      23.47
112.47     594.00      24.37
112.57     574.30      23.96
112.67     608.00      24.66
112.77     625.19      25.00
112.87     636.00      25.22
112.97     693.00      26.32
113.07     712.00      26.68
113.17     708.00      26.61
113.27     766.28      27.68
113.37     732.00      27.06
113.47     821.00      28.65
113.57     841.00      29.00
113.67     892.41      29.87
113.77     923.00      30.38
113.87     981.72      31.33
113.97    1039.00      32.23
114.07    1104.56      33.23
114.17    1165.00      34.13
114.27    1213.00      34.83
114.37    1258.00      35.47
114.47    1391.00      37.30
114.57    1460.00      38.21
114.67    1679.00      40.98
114.77    1818.00      42.64
114.87    1870.84      43.25
114.97    2062.00      45.41
115.07    2360.00      48.58
115.17    2586.00      50.85
115.27    2856.00      53.44
115.37    3228.39      56.82
115.47    3360.00      57.97
115.57    3748.00      61.22
115.67    4148.11      64.41
115.77    4554.96      67.49
115.87    5009.59      70.78
115.97    5105.00      71.45
116.07    5534.00      74.39
116.17    5994.00      77.42
116.27    6438.00      80.24
116.37    6539.81      80.87
116.47    6711.00      81.92
116.57    7047.04      83.95
116.67    6864.00      82.85
116.77    6964.00      83.45
116.87    7001.00      83.67
116.97    6794.00      82.43
117.07    6433.00      80.21
117.17    6021.93      77.60
117.27    5645.00      75.13
117.37    5426.00      73.66
117.47    5152.66      71.78
117.57    4604.00      67.85
117.67    4464.00      66.81
117.77    3760.27      61.32
117.87    3692.00      60.76
117.97    3193.00      56.51
118.07    2868.90      53.56
118.17    2617.00      51.16
118.27    2279.23      47.74
118.37    2007.00      44.80
118.47    1778.00      42.17
118.57    1600.95      40.01
118.67    1418.40      37.66
118.77    1183.00      34.39
118.87    1134.00      33.67
118.97     975.00      31.22
119.07     935.94      30.59
119.17     872.00      29.53
119.27     834.35      28.89
119.37     777.00      27.87
119.47     661.00      25.71
119.57     670.00      25.88
119.67     640.68      25.31
119.77     608.36      24.66
119.87     638.45      25.27
119.97     588.19      24.25
120.07     577.57      24.03
120.17     602.00      24.54
120.27     546.00      23.37
120.37     548.00      23.41
120.47     612.00      24.74
120.57     551.40      23.48
120.67     570.13      23.88
120.77     614.67      24.79
120.87     541.00      23.26
120.97     619.00      24.88
121.07     560.00      23.66
121.17     599.00      24.47
121.27     579.74      24.08
121.37     596.21      24.42
121.47     558.55      23.63
121.57     585.00      24.19
121.67     573.00      23.94
121.77     624.00      24.98
121.87     549.59      23.44
121.97     614.48      24.79
122.07     567.00      23.81
122.17     648.38      25.46
122.27     581.64      24.12
122.37     622.00      24.94
122.47     604.00      24.58
122.57     625.00      25.00
122.67     610.00      24.70
122.77     590.00      24.29
122.87     660.00      25.69
122.97     622.00      24.94
123.07     647.00      25.44
123.17     663.88      25.77
123.27     657.00      25.63
123.37     683.00      26.13
123.47     613.00      24.76
123.57     652.00      25.53
123.67     586.64      24.22
123.77     641.00      25.32
123.87     631.00      25.12
123.97     608.00      24.66
124.07     627.00      25.04
124.17     572.53      23.93
124.27     600.00      24.49
124.37     619.00      24.88
124.47     632.10      25.14
124.57     581.00      24.10
124.67     641.00      25.32
124.77     569.00      23.85
124.87     601.00      24.52
124.97     614.32      24.79
