  9.97     587.07      24.23
 10.07     612.00      24.74
 10.17     590.00      24.29
 10.27     582.00      24.12
 10.37     560.00      23.66
 10.47     601.26      24.52
 10.57     516.64      22.73
 10.67     603.00      24.56
 10.77     539.00      23.22
 10.87     532.29      23.07
 10.97     606.00      24.62
 11.07     605.00      24.60
 11.17     548.84      23.43
 11.27     539.00      23.22
 11.37     574.55      23.97
 11.47     575.22      23.98
 11.57     541.00      23.26
 11.67     542.94      23.30
 11.77     562.92      23.73
 11.87     636.00      25.22
 11.97     569.57      23.87
 12.07     671.00      25.90
 12.17     684.00      26.15
 12.27     645.00      25.40
 12.37     642.00      25.34
 12.47     609.70      24.69
 12.57     588.00      24.25
 12.67     599.00      24.47
 12.77     569.00      23.85
 12.87     584.00      24.17
 12.97     563.00      23.73
 13.07     584.00      24.17
 13.17     514.00      22.67
 13.27     522.00      22.85
 13.37     541.00      23.26
 13.47     598.30      24.46
 13.57     544.00      23.32
 13.67     532.51      23.08
 13.77     576.00      24.00
 13.87     552.00      23.49
 13.97     569.06      23.85
 14.07     557.45      23.61
 14.17     575.00      23.98
 14.27     531.00      23.04
 14.37     593.00      24.35
 14.47     564.34      23.76
 14.57     588.00      24.25
 14.67     589.00      24.27
 14.77     583.00      24.15
 14.87     503.00      22.43
 14.97     599.00      24.47
 15.07     531.00      23.04
 15.17     510.00      22.58
 15.27     554.00      23.54
 15.37     554.39      23.55
 15.47     517.78      22.75
 15.57     545.00      23.35
 15.67     564.00      23.75
 15.77     528.00      22.98
 15.87     537.00      23.17
 15.97     553.00      23.52
 16.07     519.44      22.79
 16.17     568.00      23.83
 16.27     563.00      23.73
 16.37     554.00      23.54
 16.47     509.00      22.56
 16.57     586.00      24.21
 16.67     533.00      23.09
 16.77     582.00      24.12
 16.87     559.00      23.64
 16.97     568.00      23.83
 17.07     588.00      24.25
 17.17     542.00      23.28
 17.27     591.63      24.32
 17.37     604.47      24.59
 17.47     533.00      23.09
 17.57     551.00      23.47
 17.67     543.00      23.30
 17.77     559.00      23.64
 17.87     533.00      23.09
 17.97     573.00      23.94
 18.07     488.00      22.09
 18.17     547.00      23.39
 18.27     592.35      24.34
 18.37     588.93      24.27
 18.47     533.00      23.09
 18.57     563.94      23.75
 18.67     503.00      22.43
 18.77     545.00      23.35
 18.87     552.00      23.49
 18.97     515.72      22.71
 19.07     557.00      23.60
 19.17     520.00      22.80
 19.27     541.93      23.28
 19.37     553.96      23.54
 19.47     518.00      22.76
 19.57     513.00      22.65
 19.67     544.00      23.32
 19.77     558.29      23.63
 19.87     523.00      22.87
 19.97     553.00      23.52
 20.07     516.15      22.72
 20.17     555.00      23.56
 20.27     585.42      24.20
 20.37     584.00      24.17
 20.47     550.00      23.45
 20.57     530.71      23.04
 20.67     517.09      22.74
 20.77     539.00      23.22
 20.87     587.03      24.23
 20.97     542.00      23.28
 21.07     524.13      22.89
 21.17     503.04      22.43
 21.27     557.00      23.60
 21.37     519.00      22.78
 21.47     538.00      23.19
 21.57     595.57      24.40
 21.67     568.15      23.84
 21.77     522.15      22.85
 21.87     574.00      23.96
 21.97     546.00      23.37
 22.07     581.00      24.10
 22.17     590.92      24.31
 22.27     519.00      22.78
 22.37     567.66      23.83
 22.47     538.00      23.19
 22.57     566.00      23.79
 22.67     567.00      23.81
 22.77     551.00      23.47
 22.87     554.00      23.54
 22.97     526.00      22.93
 23.07     562.00      23.71
 23.17     587.92      24.25
 23.27     568.88      23.85
 23.37     573.00      23.94
 23.47     543.00      23.30
 23.57     518.00      22.76
 23.67     566.00      23.79
 23.77     551.00      23.47
 23.87     565.00      23.77
 23.97     552.00      23.49
 24.07     539.16      23.22
 24.17     591.57      24.32
 24.27     610.00      24.70
 24.37     588.00      24.25
 24.47     590.00      24.29
 24.57     618.00      24.86
 24.67     677.00      26.02
 24.77     605.00      24.60
 24.87     641.21      25.32
 24.97     666.51      25.82
 25.07     625.00      25.00
 25.17     559.85      23.66
 25.27     553.00      23.52
 25.37     568.00      23.83
 25.47     550.00      23.45
 25.57     582.75      24.14
 25.67     516.00      22.72
 25.77     581.37      24.11
 25.87     537.00      23.17
 25.97     528.67      22.99
 26.07     522.80      22.86
 26.17     567.00      23.81
 26.27     521.00      22.83
 26.37     530.18      23.03
 26.47     502.95      22.43
 26.57     539.43      23.23
 26.67     566.00      23.79
 26.77     554.09      23.54
 26.87     517.00      22.74
 26.97     584.00      24.17
 27.07     550.00      23.45
 27.17     532.00      23.07
 27.27     554.41      23.55
 27.37     556.00      23.58
 27.47     530.00      23.02
 27.57     601.00      24.52
 27.67     562.00      23.71
 27.77     595.00      24.39
 27.87     597.02      24.43
 27.97     659.00      25.67
 28.07     704.00      26.53
 28.17     829.00      28.79
 28.27     887.22      29.79
 28.37     969.18      31.13
 28.47     799.00      28.27
 28.57     707.00      26.59
 28.67     716.21      26.76
 28.77     716.00      26.76
 28.87     797.00      28.23
 28.97     877.65      29.63
 29.07     837.15      28.93
 29.17     699.79      26.45
 29.27     628.29      25.07
 29.37     583.33      24.15
 29.47     582.00      24.12
 29.57     614.00      24.78
 29.67     626.19      25.02
 29.77     611.46      24.73
 29.87     604.00      24.58
 29.97     562.00      23.71
 30.07     568.00      23.83
 30.17     539.00      23.22
 30.27     543.53      23.31
 30.37     573.00      23.94
 30.47     589.00      24.27
 30.57     570.00      23.87
 30.67     574.00      23.96
 30.77     587.00      24.23
 30.87     640.41      25.31
 30.97     643.00      25.36
 31.07     616.00      24.82
 31.17     554.00      23.54
 31.27     569.00      23.85
 31.37     583.36      24.15
 31.47     510.42      22.59
 31.57     497.91      22.31
 31.67     538.00      23.19
 31.77     534.00      23.11
 31.87     565.00      23.77
 31.97     557.00      23.60
 32.07     536.00      23.15
 32.17     537.00      23.17
 32.27     532.50      23.08
 32.37     545.00      23.35
 32.47     546.00      23.37
 32.57     521.44      22.84
 32.67     511.00      22.61
 32.77     510.00      22.58
 32.87     524.00      22.89
 32.97     482.75      21.97
 33.07     540.00      23.24
 33.17     550.00      23.45
 33.27     535.69      23.14
 33.37     595.00      24.39
 33.47     504.40      22.46
 33.57     542.30      23.29
 33.67     616.00      24.82
 33.77     775.00      27.84
 33.87     775.69      27.85
 33.97     908.18      30.14
 34.07    1116.00      33.41
 34.17     997.00      31.58
 34.27     966.00      31.08
 34.37     778.00      27.89
 34.47     662.88      25.75
 34.57     552.00      23.49
 34.67     574.00      23.96
 34.77     529.00      23.00
 34.87     503.00      22.43
 34.97     558.02      23.62
 35.07     556.31      23.59
 35.17     545.06      23.35
 35.27     526.00      22.93
 35.37     543.00      23.30
 35.47     511.00      22.61
 35.57     530.00      23.02
 35.67     475.46      21.81
 35.77     516.81      22.73
 35.87     553.00      23.52
 35.97     487.65      22.08
 36.07     514.00      22.67
 36.17     518.00      22.76
 36.27     555.01      23.56
 36.37     466.65      21.60
 36.47     543.79      23.32
 36.57     527.00      22.96
 36.67     464.55      21.55
 36.77     468.00      21.63
 36.87     510.29      22.59
 36.97     514.00      22.67
 37.07     523.00      22.87
 37.17     550.16      23.46
 37.27     532.00      23.07
 37.37     481.91      21.95
 37.47     560.82      23.68
 37.57     482.93      21.98
 37.67     536.30      23.16
 37.77     574.27      23.96
 37.87     550.88      23.47
 37.97     500.00      22.36
 38.07     518.00      22.76
 38.17     550.05      23.45
 38.27     523.00      22.87
 38.37     509.00      22.56
 38.47     506.00      22.49
 38.57     550.09      23.45
 38.67     514.26      22.68
 38.77     530.12      23.02
 38.87     512.00      22.63
 38.97     542.86      23.30
 39.07     517.79      22.76
 39.17     489.00      22.11
 39.27     479.00      21.89
 39.37     496.00      22.27
 39.47     485.00      22.02
 39.57     504.00      22.45
 39.67     538.45      23.20
 39.77     466.00      21.59
 39.87     462.00      21.49
 39.97     501.00      22.38
 40.07     518.09      22.76
 40.17     503.00      22.43
 40.27     474.00      21.77
 40.37     520.00      22.80
 40.47     490.00      22.14
 40.57     488.00      22.09
 40.67     535.21      23.13
 40.77     507.81      22.53
 40.87     457.00      21.38
 40.97     444.00      21.07
 41.07     542.40      23.29
 41.17     494.00      22.23
 41.27     488.00      22.09
 41.37     542.29      23.29
 41.47     475.00      21.79
 41.57     479.00      21.89
 41.67     472.80      21.74
 41.77     516.00      22.72
 41.87     513.00      22.65
 41.97     532.00      23.07
 42.07     492.76      22.20
 42.17     521.00      22.83
 42.27     481.22      21.94
 42.37     553.00      23.52
 42.47     530.00      23.02
 42.57     562.11      23.71
 42.67     637.31      25.24
 42.77     620.02      24.90
 42.87     625.00      25.00
 42.97     546.10      23.37
 43.07     514.00      22.67
 43.17     500.00      22.36
 43.27     485.00      22.02
 43.37     523.00      22.87
 43.47     472.00      21.73
 43.57     483.00      21.98
 43.67     509.00      22.56
 43.77     485.00      22.02
 43.87     504.71      22.47
 43.97     482.00      21.95
 44.07     502.36      22.41
 44.17     481.00      21.93
 44.27     490.00      22.14
 44.37     514.98      22.69
 44.47     525.00      22.91
 44.57     458.88      21.42
 44.67     542.77      23.30
 44.77     526.68      22.95
 44.87     541.19      23.26
 44.97     510.00      22.58
 45.07     502.00      22.41
 45.17     485.00      22.02
 45.27     531.70      23.06
 45.37     515.00      22.69
 45.47     496.00      22.27
 45.57     472.11      21.73
 45.67     527.00      22.96
 45.77     492.62      22.20
 45.87     525.00      22.91
 45.97     504.93      22.47
 46.07     478.00      21.86
 46.17     529.00      23.00
 46.27     530.00      23.02
 46.37     494.00      22.23
 46.47     518.00      22.76
 46.57     456.67      21.37
 46.67     456.79      21.37
 46.77     508.00      22.54
 46.87     483.41      21.99
 46.97     499.00      22.34
 47.07     474.00      21.77
 47.17     505.00      22.47
 47.27     508.61      22.55
 47.37     550.11      23.45
 47.47     531.00      23.04
 47.57     569.24      23.86
 47.67     574.24      23.96
 47.77     545.53      23.36
 47.87     612.00      24.74
 47.97     609.00      24.68
 48.07     562.00      23.71
 48.17     533.27      23.09
 48.27     528.00      22.98
 48.37     527.00      22.96
 48.47     554.00      23.54
 48.57     533.56      23.10
 48.67     551.69      23.49
 48.77     495.00      22.25
 48.87     540.80      23.26
 48.97     554.00      23.54
 49.07     529.00      23.00
 49.17     569.00      23.85
 49.27     657.00      25.63
 49.37     624.00      24.98
 49.47     686.99      26.21
 49.57     767.00      27.69
 49.67     880.00      29.66
 49.77    1007.00      31.73
 49.87    1255.00      35.43
 49.97    1648.62      40.60
 50.07    2099.00      45.81
 50.17    2480.00      49.80
 50.27    2501.00      50.01
 50.37    2421.00      49.20
 50.47    2076.00      45.56
 50.57    1574.00      39.67
 50.67    1220.00      34.93
 50.77     944.96      30.74
 50.87     743.00      27.26
 50.97     648.07      25.46
 51.07     645.00      25.40
 51.17     644.00      25.38
 51.27     650.00      25.50
 51.37     563.00      23.73
 51.47     585.00      24.19
 51.57     587.77      24.24
 51.67     594.10      24.37
 51.77     571.00      23.90
 51.87     564.00      23.75
 51.97     516.00      22.72
 52.07     561.63      23.70
 52.17     492.00      22.18
 52.27     597.00      24.43
 52.37     540.00      23.24
 52.47     543.00      23.30
 52.57     533.13      23.09
 52.67     577.87      24.04
 52.77     530.56      23.03
 52.87     612.99      24.76
 52.97     666.00      25.81
 53.07     757.00      27.51
 53.17     916.00      30.27
 53.27     953.00      30.87
 53.37    1122.00      33.50
 53.47    1136.00      33.70
 53.57    1217.87      34.90
 53.67    1114.00      33.38
 53.77    1101.02      33.18
 53.87     942.00      30.69
 53.97     832.00      28.84
 54.07     727.00      26.96
 54.17     635.69      25.21
 54.27     642.00      25.34
 54.37     575.00      23.98
 54.47     557.35      23.61
 54.57     557.00      23.60
 54.67     503.50      22.44
 54.77     571.00      23.90
 54.87     569.00      23.85
 54.97     521.00      22.83
 55.07     571.00      23.90
 55.17     534.00      23.11
 55.27     553.00      23.52
 55.37     548.07      23.41
 55.47     527.00      22.96
 55.57     551.00      23.47
 55.67     535.00      23.13
 55.77     548.82      23.43
 55.87     560.86      23.68
 55.97     598.00      24.45
 56.07     598.04      24.45
 56.17     687.00      26.21
 56.27     829.00      28.79
 56.37     955.00      30.90
 56.47    1238.15      35.19
 56.57    1524.14      39.04
 56.67    2063.01      45.42
 56.77    2403.49      49.03
 56.87    2637.00      51.35
 56.97    2608.00      51.07
 57.07    2648.01      51.46
 57.17    2269.00      47.63
 57.27    1941.53      44.06
 57.37    1505.00      38.79
 57.47    1205.35      34.72
 57.57     944.92      30.74
 57.67     819.00      28.62
 57.77     691.15      26.29
 57.87     688.01      26.23
 57.97     723.00      26.89
 58.07     690.55      26.28
 58.17     704.00      26.53
 58.27     746.00      27.31
 58.37     784.00      28.00
 58.47     947.00      30.77
 58.57    1035.00      32.17
 58.67    1207.00      34.74
 58.77    1291.01      35.93
 58.87    1440.30      37.95
 58.97    1644.40      40.55
 59.07    1609.00      40.11
 59.17    1673.00      40.90
 59.27    1572.30      39.65
 59.37    1400.00      37.42
 59.47    1321.00      36.35
 59.57    1202.00      34.67
 59.67    1169.00      34.19
 59.77    1096.00      33.11
 59.87    1139.78      33.76
 59.97    1169.30      34.20
 60.07    1379.00      37.13
 60.17    1466.00      38.29
 60.27    1517.21      38.95
 60.37    1556.12      39.45
 60.47    1455.54      38.15
 60.57    1306.14      36.14
 60.67    1195.00      34.57
 60.77     965.00      31.06
 60.87     885.00      29.75
 60.97     756.05      27.50
 61.07     704.00      26.53
 61.17     633.11      25.16
 61.27     625.00      25.00
 61.37     614.94      24.80
 61.47     654.00      25.57
 61.57     680.00      26.08
 61.67     789.00      28.09
 61.77     830.50      28.82
 61.87     971.99      31.18
 61.97    1054.00      32.47
 62.07    1275.00      35.71
 62.17    1358.00      36.85
 62.27    1527.82      39.09
 62.37    1318.00      36.30
 62.47    1308.00      36.17
 62.57    1107.00      33.27
 62.67     998.00      31.59
 62.77     849.00      29.14
 62.87     725.00      26.93
 62.97     662.00      25.73
 63.07     612.01      24.74
 63.17     586.37      24.21
 63.27     576.00      24.00
 63.37     594.67      24.39
 63.47     571.00      23.90
 63.57     581.59      24.12
 63.67     560.00      23.66
 63.77     581.00      24.10
 63.87     619.00      24.88
 63.97     629.00      25.08
 64.07     665.00      25.79
 64.17     661.03      25.71
 64.27     774.00      27.82
 64.37     834.05      28.88
 64.47     885.47      29.76
 64.57     905.00      30.08
 64.67    1042.00      32.28
 64.77    1049.00      32.39
 64.87    1024.00      32.00
 64.97     985.00      31.38
 65.07     813.00      28.51
 65.17     861.00      29.34
 65.27     705.17      26.55
 65.37     755.00      27.48
 65.47     683.00      26.13
 65.57     638.63      25.27
 65.67     625.10      25.00
 65.77     559.00      23.64
 65.87     555.00      23.56
 65.97     530.94      23.04
 66.07     579.93      24.08
 66.17     517.00      22.74
 66.27     562.00      23.71
 66.37     594.00      24.37
 66.47     535.00      23.13
 66.57     534.00      23.11
 66.67     544.20      23.33
 66.77     580.00      24.08
 66.87     545.00      23.35
 66.97     632.54      25.15
 67.07     628.00      25.06
 67.17     654.04      25.57
 67.27     670.00      25.88
 67.37     748.00      27.35
 67.47    1002.00      31.65
 67.57    1114.08      33.38
 67.67    1390.91      37.29
 67.77    1618.30      40.23
 67.87    1830.00      42.78
 67.97    2165.15      46.53
 68.07    2432.95      49.32
 68.17    2452.00      49.52
 68.27    2393.00      48.92
 68.37    2294.00      47.90
 68.47    1984.00      44.54
 68.57    1787.94      42.28
 68.67    1414.22      37.61
 68.77    1211.00      34.80
 68.87     975.00      31.22
 68.97     859.00      29.31
 69.07     757.00      27.51
 69.17     740.00      27.20
 69.27     655.15      25.60
 69.37     583.17      24.15
 69.47     558.74      23.64
 69.57     593.00      24.35
 69.67     540.91      23.26
 69.77     582.54      24.14
 69.87     566.00      23.79
 69.97     601.21      24.52
 70.07     557.73      23.62
 70.17     617.00      24.84
 70.27     578.00      24.04
 70.37     520.00      22.80
 70.47     535.00      23.13
 70.57     542.00      23.28
 70.67     552.12      23.50
 70.77     529.55      23.01
 70.87     591.09      24.31
 70.97     636.70      25.23
 71.07     638.54      25.27
 71.17     713.63      26.71
 71.27     760.00      27.57
 71.37     793.34      28.17
 71.47     934.00      30.56
 71.57    1041.47      32.27
 71.67    1187.00      34.45
 71.77    1530.00      39.12
 71.87    1689.39      41.10
 71.97    1846.00      42.97
 72.07    1852.62      43.04
 72.17    1836.20      42.85
 72.27    1827.00      42.74
 72.37    1748.63      41.82
 72.47    1680.00      40.99
 72.57    1397.50      37.38
 72.67    1328.00      36.44
 72.77    1253.36      35.40
 72.87    1157.81      34.03
 72.97     888.00      29.80
 73.07     897.82      29.96
 73.17     885.75      29.76
 73.27     767.00      27.69
 73.37     670.00      25.88
 73.47     752.31      27.43
 73.57     657.87      25.65
 73.67     593.00      24.35
 73.77     582.31      24.13
 73.87     570.49      23.88
 73.97     543.09      23.30
 74.07     580.00      24.08
 74.17     561.00      23.69
 74.27     552.00      23.49
 74.37     546.79      23.38
 74.47     612.00      24.74
 74.57     595.77      24.41
 74.67     600.00      24.49
 74.77     636.00      25.22
 74.87     604.00      24.58
 74.97     529.36      23.01
 75.07     619.00      24.88
 75.17     598.00      24.45
 75.27     555.57      23.57
 75.37     536.00      23.15
 75.47     552.00      23.49
 75.57     630.00      25.10
 75.67     568.00      23.83
 75.77     573.00      23.94
 75.87     581.00      24.10
 75.97     576.00      24.00
 76.07     598.00      24.45
 76.17     592.00      24.33
 76.27     601.47      24.52
 76.37     677.51      26.03
 76.47     668.00      25.85
 76.57     704.12      26.54
 76.67     721.00      26.85
 76.77     686.00      26.19
 76.87     730.29      27.02
 76.97     643.56      25.37
 77.07     609.00      24.68
 77.17     629.00      25.08
 77.27     558.91      23.64
 77.37     564.00      23.75
 77.47     527.03      22.96
 77.57     574.53      23.97
 77.67     534.00      23.11
 77.77     554.00      23.54
 77.87     487.40      22.08
 77.97     535.00      23.13
 78.07     537.90      23.19
 78.17     534.27      23.11
 78.27     521.76      22.84
 78.37     494.20      22.23
 78.47     534.00      23.11
 78.57     523.00      22.87
 78.67     540.96      23.26
 78.77     494.00      22.23
 78.87     483.31      21.98
 78.97     515.00      22.69
 79.07     550.00      23.45
 79.17     515.00      22.69
 79.27     523.88      22.89
 79.37     513.00      22.65
 79.47     508.00      22.54
 79.57     575.33      23.99
 79.67     500.66      22.38
 79.77     540.00      23.24
 79.87     575.00      23.98
 79.97     531.00      23.04
 80.07     543.00      23.30
 80.17     542.00      23.28
 80.27     539.00      23.22
 80.37     537.00      23.17
 80.47     566.16      23.79
 80.57     618.58      24.87
 80.67     593.19      24.36
 80.77     660.00      25.69
 80.87     659.00      25.67
 80.97     642.00      25.34
 81.07     706.00      26.57
 81.17     687.00      26.21
 81.27     732.28      27.06
 81.37     782.00      27.96
 81.47     712.00      26.68
 81.57     741.00      27.22
 81.67     733.00      27.07
 81.77     673.00      25.94
 81.87     756.00      27.50
 81.97     735.00      27.11
 82.07     717.00      26.78
 82.17     698.00      26.42
 82.27     625.05      25.00
 82.37     594.00      24.37
 82.47     625.54      25.01
 82.57     596.55      24.42
 82.67     550.27      23.46
 82.77     578.00      24.04
 82.87     545.61      23.36
 82.97     531.00      23.04
 83.07     552.00      23.49
 83.17     530.00      23.02
 83.27     493.00      22.20
 83.37     550.00      23.45
 83.47     516.08      22.72
 83.57     519.00      22.78
 83.67     515.00      22.69
 83.77     592.59      24.34
 83.87     587.00      24.23
 83.97     574.00      23.96
 84.07     596.00      24.41
 84.17     602.21      24.54
 84.27     548.00      23.41
 84.37     593.32      24.36
 84.47     567.00      23.81
 84.57     511.47      22.62
 84.67     528.00      22.98
 84.77     494.84      22.24
 84.87     512.00      22.63
 84.97     483.90      22.00
 85.07     500.23      22.37
 85.17     546.90      23.39
 85.27     538.00      23.19
 85.37     521.06      22.83
 85.47     555.83      23.58
 85.57     534.00      23.11
 85.67     494.00      22.23
 85.77     515.00      22.69
 85.87     534.34      23.12
 85.97     518.00      22.76
 86.07     522.00      22.85
 86.17     488.08      22.09
 86.27     490.92      22.16
 86.37     528.00      22.98
 86.47     606.00      24.62
 86.57     553.00      23.52
 86.67     587.00      24.23
 86.77     554.00      23.54
 86.87     578.00      24.04
 86.97     626.10      25.02
 87.07     572.00      23.92
 87.17     584.00      24.17
 87.27     629.75      25.09
 87.37     641.56      25.33
 87.47     643.00      25.36
 87.57     619.00      24.88
 87.67     575.71      23.99
 87.77     618.04      24.86
 87.87     642.93      25.36
 87.97     584.00      24.17
 88.07     566.00      23.79
 88.17     565.08      23.77
 88.27     583.44      24.15
 88.37     582.00      24.12
 88.47     570.00      23.87
 88.57     609.59      24.69
 88.67     532.29      23.07
 88.77     556.00      23.58
 88.87     599.00      24.47
 88.97     568.00      23.83
 89.07     603.00      24.56
 89.17     626.79      25.04
 89.27     533.52      23.10
 89.37     555.60      23.57
 89.47     588.45      24.26
 89.57     630.18      25.10
 89.67     562.00      23.71
 89.77     546.00      23.37
 89.87     594.00      24.37
 89.97     543.00      23.30
 90.07     532.60      23.08
 90.17     534.61      23.12
 90.27     529.00      23.00
 90.37     510.51      22.59
 90.47     577.00      24.02
 90.57     525.00      22.91
 90.67     536.40      23.16
 90.77     478.22      21.87
 90.87     533.02      23.09
 90.97     511.00      22.61
 91.07     510.00      22.58
 91.17     482.00      21.95
 91.27     503.70      22.44
 91.37     523.00      22.87
 91.47     539.29      23.22
 91.57     480.00      21.91
 91.67     480.00      21.91
 91.77     561.76      23.70
 91.87     574.00      23.96
 91.97     540.00      23.24
 92.07     569.29      23.86
 92.17     562.00      23.71
 92.27     584.19      24.17
 92.37     539.00      23.22
 92.47     617.28      24.85
 92.57     606.00      24.62
 92.67     660.00      25.69
 92.77     654.72      25.59
 92.87     710.09      26.65
 92.97     724.22      26.91
 93.07     750.00      27.39
 93.17     715.87      26.76
 93.27     806.11      28.39
 93.37     801.00      28.30
 93.47     814.00      28.53
 93.57     783.73      28.00
 93.67     839.00      28.97
 93.77     818.00      28.60
 93.87     852.00      29.19
 93.97     834.00      28.88
 94.07     852.76      29.20
 94.17     813.28      28.52
 94.27     865.00      29.41
 94.37     914.05      30.23
 94.47     862.00      29.36
 94.57     916.28      30.27
 94.67     896.00      29.93
 94.77     953.56      30.88
 94.87     920.00      30.33
 94.97     970.00      31.14
 95.07     840.47      28.99
 95.17     924.00      30.40
 95.27     827.64      28.77
 95.37     815.00      28.55
 95.47     804.00      28.35
 95.57     709.70      26.64
 95.67     772.00      27.78
 95.77     728.00      26.98
 95.87     756.00      27.50
 95.97     729.77      27.01
 96.07     618.00      24.86
 96.17     653.00      25.55
 96.27     695.88      26.38
 96.37     684.77      26.17
 96.47     771.00      27.77
 96.57     782.70      27.98
 96.67     810.00      28.46
 96.77     870.00      29.50
 96.87     975.13      31.23
 96.97    1078.00      32.83
 97.07    1106.91      33.27
 97.17    1239.00      35.20
 97.27    1281.00      35.79
 97.37    1389.69      37.28
 97.47    1427.00      37.78
 97.57    1406.00      37.50
 97.67    1483.33      38.51
 97.77    1443.00      37.99
 97.87    1429.00      37.80
 97.97    1394.00      37.34
 98.07    1288.28      35.89
 98.17    1280.00      35.78
 98.27    1203.00      34.68
 98.37    1060.00      32.56
 98.47    1054.00      32.47
 98.57     969.63      31.14
 98.67     904.94      30.08
 98.77     827.49      28.77
 98.87     842.00      29.02
 98.97     835.46      28.90
 99.07     745.00      27.29
 99.17     795.00      28.20
 99.27     845.00      29.07
 99.37     877.00      29.61
 99.47     901.05      30.02
 99.57     982.21      31.34
 99.67    1043.00      32.30
 99.77    1167.00      34.16
 99.87    1203.07      34.69
 99.97    1357.00      36.84
100.07    1452.16      38.11
100.17    1575.00      39.69
100.27    1767.00      42.04
100.37    1784.20      42.24
100.47    1997.00      44.69
100.57    1936.74      44.01
100.67    2011.52      44.85
100.77    2146.36      46.33
100.87    2109.00      45.92
100.97    2238.00      47.31
101.07    2019.00      44.93
101.17    1989.00      44.60
101.27    1953.00      44.19
101.37    1903.94      43.63
101.47    1719.00      41.46
101.57    1730.15      41.60
101.67    1545.46      39.31
101.77    1484.00      38.52
101.87    1399.77      37.41
101.97    1390.08      37.28
102.07    1324.93      36.40
102.17    1284.50      35.84
102.27    1253.39      35.40
102.37    1170.00      34.21
102.47    1189.03      34.48
102.57    1075.00      32.79
102.67    1162.29      34.09
102.77    1019.00      31.92
102.87    1033.00      32.14
102.97    1046.00      32.34
103.07     970.00      31.14
103.17     896.00      29.93
103.27     878.00      29.63
103.37     869.00      29.48
103.47     846.00      29.09
103.57     819.00      28.62
103.67     772.00      27.78
103.77     722.00      26.87
103.87     691.00      26.29
103.97     638.23      25.26
104.07     590.67      24.30
104.17     590.00      24.29
104.27     581.00      24.10
104.37     561.00      23.69
104.47     571.35      23.90
104.57     555.00      23.56
104.67     506.19      22.50
104.77     533.00      23.09
104.87     561.00      23.69
104.97     532.68      23.08
105.07     547.47      23.40
105.17     535.00      23.13
105.27     553.00      23.52
105.37     517.00      22.74
105.47     566.00      23.79
105.57     527.00      22.96
105.67     528.37      22.99
105.77     518.00      22.76
105.87     565.00      23.77
105.97     581.08      24.11
106.07     554.00      23.54
106.17     593.00      24.35
106.27     555.00      23.56
106.37     573.00      23.94
106.47     563.00      23.73
106.57     580.70      24.10
106.67     648.85      25.47
106.77     628.00      25.06
106.87     630.00      25.10
106.97     622.68      24.95
107.07     612.00      24.74
107.17     653.00      25.55
107.27     697.00      26.40
107.37     740.68      27.22
107.47     620.00      24.90
107.57     743.53      27.27
107.67     690.09      26.27
107.77     664.02      25.77
107.87     669.00      25.87
107.97     695.50      26.37
108.07     669.00      25.87
108.17     684.00      26.15
108.27     662.83      25.75
108.37     636.38      25.23
108.47     673.00      25.94
108.57     653.00      25.55
108.67     709.84      26.64
108.77     656.38      25.62
108.87     699.05      26.44
108.97     647.00      25.44
109.07     716.00      26.76
109.17     632.73      25.15
109.27     666.00      25.81
109.37     653.00      25.55
109.47     665.00      25.79
109.57     638.00      25.26
109.67     595.00      24.39
109.77     621.00      24.92
109.87     652.00      25.53
109.97     655.00      25.59
110.07     559.85      23.66
110.17     586.00      24.21
110.27     636.00      25.22
110.37     515.88      22.71
110.47     537.00      23.17
110.57     579.06      24.06
110.67     494.76      22.24
110.77     552.30      23.50
110.87     534.28      23.11
110.97     551.00      23.47
111.07     487.94      22.09
111.17     535.00      23.13
111.27     552.00      23.49
111.37     528.79      23.00
111.47     523.96      22.89
111.57     550.00      23.45
111.67     553.00      23.52
111.77     566.00      23.79
111.87     488.00      22.09
111.97     555.00      23.56
112.07     510.00      22.58
112.17     553.00      23.52
112.27     575.00      23.98
112.37     598.00      24.45
112.47     535.44      23.14
112.57     582.00      24.12
112.67     586.77      24.22
112.77     563.00      23.73
112.87     587.00      24.23
112.97     611.00      24.72
113.07     661.00      25.71
113.17     695.00      26.36
113.27     699.00      26.44
113.37     756.54      27.51
113.47     736.12      27.13
113.57     741.00      27.22
113.67     756.00      27.50
113.77     913.62      30.23
113.87     964.00      31.05
113.97     920.00      30.33
114.07     953.68      30.88
114.17    1015.38      31.86
114.27    1077.02      32.82
114.37    1122.00      33.50
114.47    1204.00      34.70
114.57    1325.00      36.40
114.67    1433.00      37.85
114.77    1553.00      39.41
114.87    1681.27      41.00
114.97    1857.00      43.09
115.07    2119.00      46.03
115.17    2301.00      47.97
115.27    2573.00      50.72
115.37    2783.00      52.75
115.47    3034.33      55.08
115.57    3257.15      57.07
115.67    3622.66      60.19
115.77    3986.00      63.13
115.87    4376.00      66.15
115.97    4672.00      68.35
116.07    5135.00      71.66
116.17    5468.00      73.95
116.27    5973.00      77.29
116.37    6343.00      79.64
116.47    6594.00      81.20
116.57    6970.71      83.49
116.67    7027.00      83.83
116.77    7141.00      84.50
116.87    7160.00      84.62
116.97    7090.00      84.20
117.07    6905.00      83.10
117.17    6855.00      82.79
117.27    6420.00      80.12
117.37    6001.00      77.47
117.47    5809.46      76.22
117.57    5194.00      72.07
117.67    5029.55      70.92
117.77    4592.00      67.76
117.87    4256.00      65.24
117.97    3917.00      62.59
118.07    3601.00      60.01
118.17    3044.14      55.17
118.27    2871.00      53.58
118.37    2445.00      49.45
118.47    2102.00      45.85
118.57    1874.00      43.29
118.67    1630.00      40.37
118.77    1509.79      38.86
118.87    1318.00      36.30
118.97    1170.00      34.21
119.07    1014.00      31.84
119.17     956.00      30.92
119.27     925.00      30.41
119.37     858.00      29.29
119.47     765.00      27.66
119.57     778.63      27.90
119.67     681.00      26.10
119.77     635.00      25.20
119.87     658.84      25.67
119.97     621.56      24.93
120.07     669.85      25.88
120.17     584.00      24.17
120.27     641.02      25.32
120.37     663.00      25.75
120.47     576.00      24.00
120.57     595.27      24.40
120.67     572.00      23.92
120.77     593.00      24.35
120.87     552.00      23.49
120.97     561.00      23.69
121.07     602.55      24.55
121.17     575.00      23.98
121.27     569.00      23.85
121.37     520.00      22.80
121.47     548.00      23.41
121.57     603.00      24.56
121.67     598.16      24.46
121.77     564.38      23.76
121.87     552.00      23.49
121.97     626.00      25.02
122.07     619.10      24.88
122.17     571.20      23.90
122.27     608.00      24.66
122.37     593.03      24.35
122.47     577.08      24.02
122.57     635.31      25.21
122.67     571.00      23.90
122.77     655.00      25.59
122.87     591.81      24.33
122.97     660.00      25.69
123.07     621.00      24.92
123.17     664.00      25.77
123.27     680.00      26.08
123.37     688.94      26.25
123.47     686.00      26.19
123.57     615.00      24.80
123.67     633.00      25.16
123.77     667.00      25.83
123.87     602.03      24.54
123.97     662.96      25.75
124.07     605.00      24.60
124.17     625.00      25.00
124.27     606.00      24.62
124.37     609.00      24.68
124.47     619.00      24.88
124.57     618.00      24.86
124.67     611.00      24.72
124.77     606.00      24.62
124.87     628.90      25.08
124.97     627.00      25.04
