  9.97     605.00      24.60
 10.07     530.69      23.04
 10.17     594.00      24.37
 10.27     534.79      23.13
 10.37     607.00      24.64
 10.47     572.00      23.92
 10.57     562.00      23.71
 10.67     623.00      24.96
 10.77     529.00      23.00
 10.87     599.00      24.47
 10.97     570.00      23.87
 11.07     585.00      24.19
 11.17     605.00      24.60
 11.27     612.00      24.74
 11.37     582.77      24.14
 11.47     562.18      23.71
 11.57     597.00      24.43
 11.67     596.00      24.41
 11.77     589.53      24.28
 11.87     573.06      23.94
 11.97     669.00      25.87
 12.07     674.00      25.96
 12.17     678.00      26.04
 12.27     666.00      25.81
 12.37     665.00      25.79
 12.47     627.00      25.04
 12.57     568.21      23.84
 12.67     542.00      23.28
 12.77     522.00      22.85
 12.87     570.00      23.87
 12.97     613.05      24.76
 13.07     606.60      24.63
 13.17     576.92      24.02
 13.27     567.00      23.81
 13.37     584.00      24.17
 13.47     591.00      24.31
 13.57     529.91      23.02
 13.67     535.00      23.13
 13.77     563.00      23.73
 13.87     545.06      23.35
 13.97     561.51      23.70
 14.07     590.00      24.29
 14.17     617.00      24.84
 14.27     560.22      23.67
 14.37     583.00      24.15
 14.47     590.97      24.31
 14.57     598.47      24.46
 14.67     548.00      23.41
 14.77     531.80      23.06
 14.87     517.00      22.74
 14.97     552.43      23.50
 15.07     587.72      24.24
 15.17     560.00      23.66
 15.27     560.00      23.66
 15.37     560.00      23.66
 15.47     601.28      24.52
 15.57     551.47      23.48
 15.67     555.00      23.56
 15.77     519.90      22.80
 15.87     548.00      23.41
 15.97     571.00      23.90
 16.07     570.00      23.87
 16.17     594.00      24.37
 16.27     539.00      23.22
 16.37     562.00      23.71
 16.47     563.00      23.73
 16.57     559.00      23.64
 16.67     507.00      22.52
 16.77     570.14      23.88
 16.87     538.58      23.21
 16.97     552.03      23.50
 17.07     604.00      24.58
 17.17     556.68      23.59
 17.27     584.00      24.17
 17.37     595.01      24.39
 17.47     595.53      24.40
 17.57     583.10      24.15
 17.67     553.00      23.52
 17.77     539.00      23.22
 17.87     559.00      23.64
 17.97     536.00      23.15
 18.07     516.54      22.73
 18.17     551.73      23.49
 18.27     557.00      23.60
 18.37     602.01      24.54
 18.47     597.00      24.43
 18.57     586.35      24.21
 18.67     527.00      22.96
 18.77     545.55      23.36
 18.87     577.00      24.02
 18.97     536.00      23.15
 19.07     544.00      23.32
 19.17     568.38      23.84
 19.27     564.00      23.75
 19.37     544.00      23.32
 19.47     547.74      23.40
 19.57     593.84      24.37
 19.67     572.00      23.92
 19.77     561.00      23.69
 19.87     569.00      23.85
 19.97     508.00      22.54
 20.07     554.48      23.55
 20.17     538.00      23.19
 20.27     592.24      24.34
 20.37     571.00      23.90
 20.47     516.00      22.72
 20.57     545.00      23.35
 20.67     549.00      23.43
 20.77     538.00      23.19
 20.87     547.00      23.39
 20.97     586.52      24.22
 21.07     556.00      23.58
 21.17     514.00      22.67
 21.27     550.00      23.45
 21.37     524.33      22.90
 21.47     514.97      22.69
 21.57     560.24      23.67
 21.67     522.66      22.86
 21.77     577.00      24.02
 21.87     514.00      22.67
 21.97     580.00      24.08
 22.07     506.00      22.49
 22.17     548.00      23.41
 22.27     518.00      22.76
 22.37     529.46      23.01
 22.47     536.00      23.15
 22.57     579.17      24.07
 22.67     572.00      23.92
 22.77     515.00      22.69
 22.87     602.00      24.54
 22.97     585.35      24.19
 23.07     583.00      24.15
 23.17     541.00      23.26
 23.27     539.00      23.22
 23.37     532.79      23.08
 23.47     511.68      22.62
 23.57     575.00      23.98
 23.67     530.00      23.02
 23.77     554.00      23.54
 23.87     570.29      23.88
 23.97     504.29      22.46
 24.07     553.00      23.52
 24.17     587.00      24.23
 24.27     574.07      23.96
 24.37     623.00      24.96
 24.47     617.46      24.85
 24.57     629.16      25.08
 24.67     644.13      25.38
 24.77     615.00      24.80
 24.87     607.56      24.65
 24.97     628.00      25.06
 25.07     584.60      24.18
 25.17     568.00      23.83
 25.27     525.00      22.91
 25.37     578.91      24.06
 25.47     562.00      23.71
 25.57     523.00      22.87
 25.67     569.00      23.85
 25.77     549.00      23.43
 25.87     541.00      23.26
 25.97     530.55      23.03
 26.07     583.00      24.15
 26.17     514.20      22.68
 26.27     552.00      23.49
 26.37     510.00      22.58
 26.47     570.47      23.88
 26.57     562.00      23.71
 26.67     587.00      24.23
 26.77     587.04      24.23
 26.87     540.00      23.24
 26.97     563.00      23.73
 27.07     528.00      22.98
 27.17     510.11      22.59
 27.27     549.00      23.43
 27.37     576.00      24.00
 27.47     558.00      23.62
 27.57     586.72      24.22
 27.67     546.00      23.37
 27.77     555.00      23.56
 27.87     602.00      24.54
 27.97     698.00      26.42
 28.07     782.00      27.96
 28.17     888.00      29.80
 28.27     973.86      31.21
 28.37     902.00      30.03
 28.47     774.00      27.82
 28.57     709.00      26.63
 28.67     713.00      26.70
 28.77     785.73      28.03
 28.87     773.00      27.80
 28.97     734.00      27.09
 29.07     747.00      27.33
 29.17     692.00      26.31
 29.27     601.00      24.52
 29.37     601.00      24.52
 29.47     550.51      23.46
 29.57     564.41      23.76
 29.67     616.00      24.82
 29.77     560.00      23.66
 29.87     547.44      23.40
 29.97     568.00      23.83
 30.07     567.91      23.83
 30.17     579.00      24.06
 30.27     584.00      24.17
 30.37     563.81      23.74
 30.47     578.00      24.04
 30.57     528.00      22.98
 30.67     606.10      24.62
 30.77     552.09      23.50
 30.87     587.80      24.24
 30.97     607.25      24.64
 31.07     607.00      24.64
 31.17     613.00      24.76
 31.27     558.00      23.62
 31.37     537.00      23.17
 31.47     516.55      22.73
 31.57     550.00      23.45
 31.67     546.12      23.37
 31.77     568.00      23.83
 31.87     525.00      22.91
 31.97     484.68      22.02
 32.07     562.00      23.71
 32.17     563.00      23.73
 32.27     536.00      23.15
 32.37     563.00      23.73
 32.47     556.00      23.58
 32.57     523.00      22.87
 32.67     537.89      23.19
 32.77     524.00      22.89
 32.87     553.00      23.52
 32.97     575.00      23.98
 33.07     559.00      23.64
 33.17     579.79      24.08
 33.27     553.51      23.53
 33.37     546.96      23.39
 33.47     541.00      23.26
 33.57     617.00      24.84
 33.67     626.00      25.02
 33.77     705.00      26.55
 33.87     876.00      29.60
 33.97    1069.00      32.70
 34.07    1033.74      32.15
 34.17    1034.88      32.17
 34.27     847.10      29.10
 34.37     744.00      27.28
 34.47     687.03      26.21
 34.57     597.00      24.43
 34.67     561.00      23.69
 34.77     502.02      22.41
 34.87     530.00      23.02
 34.97     564.00      23.75
 35.07     548.00      23.41
 35.17     542.26      23.29
 35.27     524.00      22.89
 35.37     545.12      23.35
 35.47     556.00      23.58
 35.57     517.00      22.74
 35.67     511.16      22.61
 35.77     490.00      22.14
 35.87     567.00      23.81
 35.97     491.00      22.16
 36.07     538.98      23.22
 36.17     515.90      22.71
 36.27     540.13      23.24
 36.37     516.00      22.72
 36.47     432.00      20.78
 36.57     523.05      22.87
 36.67     472.00      21.73
 36.77     556.74      23.60
 36.87     488.12      22.09
 36.97     487.00      22.07
 37.07     526.64      22.95
 37.17     546.00      23.37
 37.27     520.00      22.80
 37.37     552.64      23.51
 37.47     511.00      22.61
 37.57     526.00      22.93
 37.67     544.00      23.32
 37.77     489.53      22.13
 37.87     484.44      22.01
 37.97     485.00      22.02
 38.07     540.41      23.25
 38.17     514.00      22.67
 38.27     539.56      23.23
 38.37     504.00      22.45
 38.47     531.00      23.04
 38.57     511.98      22.63
 38.67     511.88      22.62
 38.77     492.66      22.20
 38.87     503.00      22.43
 38.97     517.89      22.76
 39.07     507.00      22.52
 39.17     512.00      22.63
 39.27     514.00      22.67
 39.37     500.00      22.36
 39.47     497.00      22.29
 39.57     475.00      21.79
 39.67     514.00      22.67
 39.77     531.20      23.05
 39.87     527.00      22.96
 39.97     466.28      21.59
 40.07     533.41      23.10
 40.17     483.61      21.99
 40.27     483.00      21.98
 40.37     504.00      22.45
 40.47     499.54      22.35
 40.57     477.55      21.85
 40.67     476.00      21.82
 40.77     481.00      21.93
 40.87     463.24      21.52
 40.97     447.00      21.14
 41.07     541.25      23.26
 41.17     461.00      21.47
 41.27     499.00      22.34
 41.37     465.00      21.56
 41.47     493.00      22.20
 41.57     492.00      22.18
 41.67     522.17      22.85
 41.77     485.00      22.02
 41.87     473.32      21.76
 41.97     457.00      21.38
 42.07     518.00      22.76
 42.17     543.14      23.31
 42.27     508.88      22.56
 42.37     547.00      23.39
 42.47     600.00      24.49
 42.57     652.60      25.55
 42.67     589.00      24.27
 42.77     667.40      25.83
 42.87     574.96      23.98
 42.97     570.49      23.88
 43.07     562.00      23.71
 43.17     554.35      23.54
 43.27     549.59      23.44
 43.37     520.22      22.81
 43.47     540.00      23.24
 43.57     501.00      22.38
 43.67     498.00      22.32
 43.77     523.00      22.87
 43.87     500.00      22.36
 43.97     515.00      22.69
 44.07     496.00      22.27
 44.17     504.00      22.45
 44.27     536.35      23.16
 44.37     461.89      21.49
 44.47     508.00      22.54
 44.57     502.00      22.41
 44.67     496.00      22.27
 44.77     471.00      21.70
 44.87     510.00      22.58
 44.97     494.00      22.23
 45.07     467.72      21.63
 45.17     542.36      23.29
 45.27     498.00      22.32
 45.37     467.68      21.63
 45.47     534.85      23.13
 45.57     502.00      22.41
 45.67     478.00      21.86
 45.77     485.00      22.02
 45.87     502.00      22.41
 45.97     467.00      21.61
 46.07     510.05      22.58
 46.17     474.00      21.77
 46.27     510.00      22.58
 46.37     496.00      22.27
 46.47     502.00      22.41
 46.57     518.00      22.76
 46.67     521.11      22.83
 46.77     543.00      23.30
 46.87     485.83      22.04
 46.97     478.33      21.87
 47.07     487.31      22.08
 47.17     517.00      22.74
 47.27     506.00      22.49
 47.37     490.00      22.14
 47.47     522.68      22.86
 47.57     524.00      22.89
 47.67     572.00      23.92
 47.77     568.00      23.83
 47.87     572.23      23.92
 47.97     586.00      24.21
 48.07     599.00      24.47
 48.17     573.00      23.94
 48.27     561.13      23.69
 48.37     549.00      23.43
 48.47     523.02      22.87
 48.57     496.00      22.27
 48.67     492.26      22.19
 48.77     493.83      22.22
 48.87     582.94      24.14
 48.97     565.35      23.78
 49.07     551.00      23.47
 49.17     615.72      24.81
 49.27     621.00      24.92
 49.37     639.00      25.28
 49.47     632.00      25.14
 49.57     699.00      26.44
 49.67     894.00      29.90
 49.77    1151.60      33.94
 49.87    1449.94      38.08
 49.97    1888.39      43.46
 50.07    2190.39      46.80
 50.17    2519.00      50.19
 50.27    2565.93      50.65
 50.37    2233.00      47.25
 50.47    1850.00      43.01
 50.57    1407.00      37.51
 50.67    1120.67      33.48
 50.77     897.00      29.95
 50.87     685.00      26.17
 50.97     699.00      26.44
 51.07     640.00      25.30
 51.17     630.00      25.10
 51.27     616.00      24.82
 51.37     583.00      24.15
 51.47     546.00      23.37
 51.57     569.00      23.85
 51.67     555.00      23.56
 51.77     572.00      23.92
 51.87     578.00      24.04
 51.97     503.62      22.44
 52.07     525.65      22.93
 52.17     548.88      23.43
 52.27     555.00      23.56
 52.37     566.00      23.79
 52.47     578.00      24.04
 52.57     557.00      23.60
 52.67     527.27      22.96
 52.77     586.00      24.21
 52.87     607.80      24.65
 52.97     731.32      27.04
 53.07     747.37      27.34
 53.17     884.26      29.74
 53.27    1028.00      32.06
 53.37    1150.01      33.91
 53.47    1209.00      34.77
 53.57    1170.49      34.21
 53.67    1088.00      32.98
 53.77    1017.00      31.89
 53.87     896.00      29.93
 53.97     748.00      27.35
 54.07     686.00      26.19
 54.17     624.00      24.98
 54.27     565.60      23.78
 54.37     608.00      24.66
 54.47     508.56      22.55
 54.57     586.00      24.21
 54.67     508.00      22.54
 54.77     602.00      24.54
 54.87     590.00      24.29
 54.97     556.00      23.58
 55.07     603.00      24.56
 55.17     583.00      24.15
 55.27     514.00      22.67
 55.37     578.00      24.04
 55.47     570.00      23.87
 55.57     563.00      23.73
 55.67     570.00      23.87
 55.77     590.00      24.29
 55.87     562.00      23.71
 55.97     637.00      25.24
 56.07     678.77      26.05
 56.17     744.28      27.28
 56.27     914.00      30.23
 56.37    1085.91      32.95
 56.47    1381.60      37.17
 56.57    1790.00      42.31
 56.67    2142.52      46.29
 56.77    2450.00      49.50
 56.87    2576.00      50.75
 56.97    2501.00      50.01
 57.07    2388.00      48.87
 57.17    2041.00      45.18
 57.27    1626.39      40.33
 57.37    1326.00      36.41
 57.47    1039.50      32.24
 57.57     886.00      29.77
 57.67     754.50      27.47
 57.77     654.24      25.58
 57.87     672.00      25.92
 57.97     668.58      25.86
 58.07     669.00      25.87
 58.17     710.00      26.65
 58.27     814.99      28.55
 58.37     853.00      29.21
 58.47     916.00      30.27
 58.57    1116.00      33.41
 58.67    1171.66      34.23
 58.77    1351.00      36.76
 58.87    1426.00      37.76
 58.97    1425.67      37.76
 59.07    1467.93      38.31
 59.17    1434.68      37.88
 59.27    1408.13      37.53
 59.37    1268.62      35.62
 59.47    1310.00      36.19
 59.57    1198.00      34.61
 59.67    1077.00      32.82
 59.77    1230.00      35.07
 59.87    1238.30      35.19
 59.97    1291.78      35.94
 60.07    1446.00      38.03
 60.17    1568.00      39.60
 60.27    1600.71      40.01
 60.37    1489.00      38.59
 60.47    1331.38      36.49
 60.57    1248.00      35.33
 60.67    1070.00      32.71
 60.77     902.54      30.04
 60.87     806.00      28.39
 60.97     659.00      25.67
 61.07     627.00      25.04
 61.17     608.86      24.68
 61.27     659.00      25.67
 61.37     633.00      25.16
 61.47     718.00      26.80
 61.57     803.68      28.35
 61.67     833.00      28.86
 61.77    1032.33      32.13
 61.87    1100.31      33.17
 61.97    1214.00      34.84
 62.07    1296.00      36.00
 62.17    1388.71      37.27
 62.27    1458.16      38.19
 62.37    1224.00      34.99
 62.47    1189.00      34.48
 62.57    1027.00      32.05
 62.67     875.00      29.58
 62.77     811.54      28.49
 62.87     715.00      26.74
 62.97     635.62      25.21
 63.07     611.38      24.73
 63.17     570.93      23.89
 63.27     584.00      24.17
 63.37     572.00      23.92
 63.47     593.72      24.37
 63.57     578.00      24.04
 63.67     527.41      22.97
 63.77     627.00      25.04
 63.87     627.00      25.04
 63.97     681.52      26.11
 64.07     726.00      26.94
 64.17     768.00      27.71
 64.27     833.00      28.86
 64.37     893.00      29.88
 64.47     945.62      30.75
 64.57    1069.00      32.70
 64.67     992.05      31.50
 64.77     986.00      31.40
 64.87    1001.00      31.64
 64.97     933.42      30.55
 65.07     842.00      29.02
 65.17     749.15      27.37
 65.27     715.60      26.75
 65.37     669.00      25.87
 65.47     646.00      25.42
 65.57     628.00      25.06
 65.67     591.00      24.31
 65.77     631.55      25.13
 65.87     567.00      23.81
 65.97     566.80      23.81
 66.07     552.97      23.52
 66.17     563.00      23.73
 66.27     531.07      23.05
 66.37     526.00      22.93
 66.47     594.81      24.39
 66.57     574.28      23.96
 66.67     569.00      23.85
 66.77     563.00      23.73
 66.87     590.00      24.29
 66.97     598.00      24.45
 67.07     605.00      24.60
 67.17     691.00      26.29
 67.27     740.54      27.21
 67.37     889.00      29.82
 67.47    1072.00      32.74
 67.57    1250.00      35.36
 67.67    1506.00      38.81
 67.77    1750.61      41.84
 67.87    2091.00      45.73
 67.97    2336.77      48.34
 68.07    2478.00      49.78
 68.17    2395.00      48.94
 68.27    2237.00      47.30
 68.37    2055.00      45.33
 68.47    1753.64      41.88
 68.57    1480.12      38.47
 68.67    1268.00      35.61
 68.77     997.00      31.58
 68.87     918.21      30.30
 68.97     790.00      28.11
 69.07     705.00      26.55
 69.17     685.04      26.17
 69.27     661.96      25.73
 69.37     585.29      24.19
 69.47     562.00      23.71
 69.57     557.00      23.60
 69.67     544.18      23.33
 69.77     639.00      25.28
 69.87     591.00      24.31
 69.97     543.00      23.30
 70.07     604.00      24.58
 70.17     531.09      23.05
 70.27     578.00      24.04
 70.37     621.00      24.92
 70.47     524.74      22.91
 70.57     594.00      24.37
 70.67     600.00      24.49
 70.77     580.00      24.08
 70.87     605.00      24.60
 70.97     594.00      24.37
 71.07     667.00      25.83
 71.17     725.00      26.93
 71.27     804.00      28.35
 71.37     891.26      29.85
 71.47    1038.57      32.23
 71.57    1259.49      35.49
 71.67    1436.00      37.89
 71.77    1606.58      40.08
 71.87    1807.03      42.51
 71.97    1855.00      43.07
 72.07    1860.76      43.14
 72.17    1880.00      43.36
 72.27    1797.00      42.39
 72.37    1519.03      38.97
 72.47    1447.62      38.05
 72.57    1274.00      35.69
 72.67    1116.00      33.41
 72.77     961.00      31.00
 72.87     890.76      29.85
 72.97     923.99      30.40
 73.07     796.00      28.21
 73.17     767.31      27.70
 73.27     658.00      25.65
 73.37     715.08      26.74
 73.47     585.00      24.19
 73.57     607.00      24.64
 73.67     660.26      25.70
 73.77     580.17      24.09
 73.87     603.00      24.56
 73.97     551.28      23.48
 74.07     615.00      24.80
 74.17     594.00      24.37
 74.27     594.00      24.37
 74.37     601.52      24.53
 74.47     563.30      23.73
 74.57     635.00      25.20
 74.67     527.83      22.97
 74.77     618.62      24.87
 74.87     590.00      24.29
 74.97     585.63      24.20
 75.07     582.98      24.14
 75.17     558.71      23.64
 75.27     572.00      23.92
 75.37     547.98      23.41
 75.47     575.00      23.98
 75.57     628.00      25.06
 75.67     549.62      23.44
 75.77     563.00      23.73
 75.87     587.00      24.23
 75.97     575.00      23.98
 76.07     670.00      25.88
 76.17     611.90      24.74
 76.27     634.34      25.19
 76.37     732.88      27.07
 76.47     734.00      27.09
 76.57     704.99      26.55
 76.67     711.00      26.66
 76.77     710.00      26.65
 76.87     725.00      26.93
 76.97     675.58      25.99
 77.07     656.00      25.61
 77.17     533.00      23.09
 77.27     587.00      24.23
 77.37     570.00      23.87
 77.47     580.00      24.08
 77.57     582.00      24.12
 77.67     546.00      23.37
 77.77     572.86      23.93
 77.87     570.53      23.89
 77.97     548.00      23.41
 78.07     501.00      22.38
 78.17     483.00      21.98
 78.27     568.00      23.83
 78.37     491.11      22.16
 78.47     566.04      23.79
 78.57     515.00      22.69
 78.67     570.81      23.89
 78.77     536.00      23.15
 78.87     482.00      21.95
 78.97     520.00      22.80
 79.07     561.80      23.70
 79.17     548.00      23.41
 79.27     525.60      22.93
 79.37     524.00      22.89
 79.47     538.74      23.21
 79.57     528.00      22.98
 79.67     537.00      23.17
 79.77     511.95      22.63
 79.87     526.00      22.93
 79.97     577.59      24.03
 80.07     555.00      23.56
 80.17     594.00      24.37
 80.27     541.74      23.28
 80.37     553.00      23.52
 80.47     566.00      23.79
 80.57     563.00      23.73
 80.67     595.88      24.41
 80.77     656.00      25.61
 80.87     650.00      25.50
 80.97     727.00      26.96
 81.07     750.07      27.39
 81.17     746.00      27.31
 81.27     803.00      28.34
 81.37     771.29      27.77
 81.47     736.00      27.13
 81.57     755.56      27.49
 81.67     718.00      26.80
 81.77     735.47      27.12
 81.87     698.00      26.42
 81.97     687.00      26.21
 82.07     692.00      26.31
 82.17     699.42      26.45
 82.27     613.00      24.76
 82.37     594.00      24.37
 82.47     634.00      25.18
 82.57     586.62      24.22
 82.67     590.00      24.29
 82.77     532.98      23.09
 82.87     550.56      23.46
 82.97     553.34      23.52
 83.07     590.46      24.30
 83.17     532.00      23.07
 83.27     559.87      23.66
 83.37     528.43      22.99
 83.47     547.00      23.39
 83.57     592.00      24.33
 83.67     574.00      23.96
 83.77     528.00      22.98
 83.87     614.26      24.78
 83.97     546.13      23.37
 84.07     617.71      24.85
 84.17     576.00      24.00
 84.27     573.00      23.94
 84.37     608.00      24.66
 84.47     582.00      24.12
 84.57     548.00      23.41
 84.67     511.00      22.61
 84.77     552.00      23.49
 84.87     575.57      23.99
 84.97     538.00      23.19
 85.07     517.00      22.74
 85.17     533.00      23.09
 85.27     538.00      23.19
 85.37     547.00      23.39
 85.47     547.00      23.39
 85.57     539.00      23.22
 85.67     560.00      23.66
 85.77     552.00      23.49
 85.87     537.65      23.19
 85.97     516.00      22.72
 86.07     512.10      22.63
 86.17     513.19      22.65
 86.27     523.60      22.88
 86.37     550.00      23.45
 86.47     595.26      24.40
 86.57     535.83      23.15
 86.67     574.25      23.96
 86.77     587.37      24.24
 86.87     569.00      23.85
 86.97     632.53      25.15
 87.07     638.00      25.26
 87.17     612.00      24.74
 87.27     635.00      25.20
 87.37     662.00      25.73
 87.47     646.00      25.42
 87.57     671.00      25.90
 87.67     670.94      25.90
 87.77     634.13      25.18
 87.87     676.00      26.00
 87.97     627.00      25.04
 88.07     608.00      24.66
 88.17     586.00      24.21
 88.27     555.00      23.56
 88.37     623.00      24.96
 88.47     529.71      23.02
 88.57     605.38      24.60
 88.67     601.00      24.52
 88.77     541.83      23.28
 88.87     606.88      24.63
 88.97     576.84      24.02
 89.07     641.00      25.32
 89.17     615.00      24.80
 89.27     561.00      23.69
 89.37     636.00      25.22
 89.47     650.44      25.50
 89.57     543.00      23.30
 89.67     560.00      23.66
 89.77     582.00      24.12
 89.87     601.68      24.53
 89.97     544.00      23.32
 90.07     532.00      23.07
 90.17     564.00      23.75
 90.27     533.00      23.09
 90.37     509.00      22.56
 90.47     563.46      23.74
 90.57     530.00      23.02
 90.67     528.00      22.98
 90.77     562.33      23.71
 90.87     509.00      22.56
 90.97     526.00      22.93
 91.07     530.00      23.02
 91.17     488.43      22.10
 91.27     504.80      22.47
 91.37     526.91      22.95
 91.47     531.00      23.04
 91.57     567.34      23.82
 91.67     569.52      23.86
 91.77     532.00      23.07
 91.87     583.99      24.17
 91.97     540.00      23.24
 92.07     521.00      22.83
 92.17     592.89      24.35
 92.27     636.70      25.23
 92.37     590.00      24.29
 92.47     589.00      24.27
 92.57     661.00      25.71
 92.67     701.28      26.48
 92.77     701.00      26.48
 92.87     749.27      27.37
 92.97     721.00      26.85
 93.07     751.00      27.40
 93.17     709.00      26.63
 93.27     807.08      28.41
 93.37     797.00      28.23
 93.47     775.00      27.84
 93.57     817.00      28.58
 93.67     793.00      28.16
 93.77     831.00      28.83
 93.87     859.00      29.31
 93.97     842.85      29.03
 94.07     859.00      29.31
 94.17     899.21      29.99
 94.27     911.46      30.19
 94.37     935.00      30.58
 94.47     908.00      30.13
 94.57     955.00      30.90
 94.67     878.92      29.65
 94.77     900.00      30.00
 94.87     970.00      31.14
 94.97     886.00      29.77
 95.07     862.39      29.37
 95.17     877.00      29.61
 95.27     833.54      28.87
 95.37     824.00      28.71
 95.47     783.00      27.98
 95.57     777.00      27.87
 95.67     742.72      27.25
 95.77     740.00      27.20
 95.87     690.84      26.28
 95.97     684.00      26.15
 96.07     650.32      25.50
 96.17     712.00      26.68
 96.27     734.00      27.09
 96.37     783.88      28.00
 96.47     792.00      28.14
 96.57     956.00      30.92
 96.67     978.00      31.27
 96.77    1011.00      31.80
 96.87    1101.75      33.19
 96.97    1178.05      34.32
 97.07    1247.00      35.31
 97.17    1305.72      36.13
 97.27    1347.48      36.71
 97.37    1435.79      37.89
 97.47    1480.00      38.47
 97.57    1457.54      38.18
 97.67    1454.00      38.13
 97.77    1391.00      37.30
 97.87    1376.00      37.09
 97.97    1254.00      35.41
 98.07    1280.00      35.78
 98.17    1114.43      33.38
 98.27    1082.00      32.89
 98.37     999.11      31.61
 98.47     919.00      30.32
 98.57     801.00      28.30
 98.67     887.00      29.78
 98.77     789.00      28.09
 98.87     831.00      28.83
 98.97     785.00      28.02
 99.07     807.00      28.41
 99.17     831.00      28.83
 99.27     918.48      30.31
 99.37     892.76      29.88
 99.47     943.00      30.71
 99.57    1131.00      33.63
 99.67    1153.62      33.97
 99.77    1305.00      36.12
 99.87    1390.00      37.28
 99.97    1483.00      38.51
100.07    1614.45      40.18
100.17    1741.00      41.73
100.27    1881.00      43.37
100.37    1833.16      42.82
100.47    2029.00      45.04
100.57    2085.82      45.67
100.67    2103.00      45.86
100.77    2106.00      45.89
100.87    2137.00      46.23
100.97    2063.00      45.42
101.07    1905.00      43.65
101.17    1890.00      43.47
101.27    1727.00      41.56
101.37    1641.00      40.51
101.47    1666.00      40.82
101.57    1508.00      38.83
101.67    1428.42      37.79
101.77    1337.00      36.57
101.87    1251.00      35.37
101.97    1288.64      35.90
102.07    1214.00      34.84
102.17    1157.00      34.01
102.27    1139.75      33.76
102.37    1077.00      32.82
102.47    1105.00      33.24
102.57    1106.00      33.26
102.67    1023.39      31.99
102.77    1081.77      32.89
102.87    1045.46      32.33
102.97     933.00      30.55
103.07     909.00      30.15
103.17     841.00      29.00
103.27     834.00      28.88
103.37     852.92      29.20
103.47     734.00      27.09
103.57     692.00      26.31
103.67     746.00      27.31
103.77     718.00      26.80
103.87     622.04      24.94
103.97     590.00      24.29
104.07     617.00      24.84
104.17     638.00      25.26
104.27     526.88      22.95
104.37     542.45      23.29
104.47     557.00      23.60
104.57     529.07      23.00
104.67     542.00      23.28
104.77     551.69      23.49
104.87     523.87      22.89
104.97     516.98      22.74
105.07     572.74      23.93
105.17     524.00      22.89
105.27     557.12      23.60
105.37     581.00      24.10
105.47     515.42      22.70
105.57     586.19      24.21
105.67     537.00      23.17
105.77     586.00      24.21
105.87     551.00      23.47
105.97     568.00      23.83
106.07     577.00      24.02
106.17     546.00      23.37
106.27     629.18      25.08
106.37     589.00      24.27
106.47     594.00      24.37
106.57     678.70      26.05
106.67     597.33      24.44
106.77     634.00      25.18
106.87     668.00      25.85
106.97     672.71      25.94
107.07     695.00      26.36
107.17     733.98      27.09
107.27     756.00      27.50
107.37     694.00      26.34
107.47     739.00      27.18
107.57     687.65      26.22
107.67     690.00      26.27
107.77     681.00      26.10
107.87     717.16      26.78
107.97     712.00      26.68
108.07     689.00      26.25
108.17     792.00      28.14
108.27     718.68      26.81
108.37     672.00      25.92
108.47     658.00      25.65
108.57     695.00      26.36
108.67     747.88      27.35
108.77     706.26      26.58
108.87     680.00      26.08
108.97     653.00      25.55
109.07     712.90      26.70
109.17     668.09      25.85
109.27     648.00      25.46
109.37     607.00      24.64
109.47     643.44      25.37
109.57     659.00      25.67
109.67     653.00      25.55
109.77     600.00      24.49
109.87     619.00      24.88
109.97     639.00      25.28
110.07     612.00      24.74
110.17     556.00      23.58
110.27     618.00      24.86
110.37     567.00      23.81
110.47     587.00      24.23
110.57     564.00      23.75
110.67     501.86      22.40
110.77     499.10      22.34
110.87     571.00      23.90
110.97     542.00      23.28
111.07     563.00      23.73
111.17     571.33      23.90
111.27     526.00      22.93
111.37     524.00      22.89
111.47     500.19      22.36
111.57     553.00      23.52
111.67     568.00      23.83
111.77     534.15      23.11
111.87     550.00      23.45
111.97     585.26      24.19
112.07     557.96      23.62
112.17     566.98      23.81
112.27     615.00      24.80
112.37     572.00      23.92
112.47     614.94      24.80
112.57     574.00      23.96
112.67     656.50      25.62
112.77     588.00      24.25
112.87     601.53      24.53
112.97     614.00      24.78
113.07     642.92      25.36
113.17     664.00      25.77
113.27     727.00      26.96
113.37     753.25      27.45
113.47     780.00      27.93
113.57     747.00      27.33
113.67     802.00      28.32
113.77     797.00      28.23
113.87     860.62      29.34
113.97     962.41      31.02
114.07    1017.17      31.89
114.17    1037.00      32.20
114.27    1085.00      32.94
114.37    1201.00      34.66
114.47    1206.19      34.73
114.57    1463.00      38.25
114.67    1532.00      39.14
114.77    1653.00      40.66
114.87    1961.00      44.28
114.97    1957.78      44.25
115.07    2269.12      47.64
115.17    2513.00      50.13
115.27    2802.00      52.93
115.37    3099.00      55.67
115.47    3424.00      58.51
115.57    3745.00      61.20
115.67    4111.00      64.12
115.77    4578.00      67.66
115.87    4830.00      69.50
115.97    5145.00      71.73
116.07    5594.00      74.79
116.17    6067.72      77.90
116.27    6302.00      79.39
116.37    6658.18      81.60
116.47    6648.70      81.54
116.57    6762.14      82.23
116.67    6984.57      83.57
116.77    6872.59      82.90
116.87    6715.87      81.95
116.97    6551.00      80.94
117.07    6247.00      79.04
117.17    5921.28      76.95
117.27    5631.00      75.04
117.37    5195.00      72.08
117.47    4800.00      69.28
117.57    4503.41      67.11
117.67    4153.26      64.45
117.77    3891.00      62.38
117.87    3552.00      59.60
117.97    3225.68      56.80
118.07    2921.00      54.05
118.17    2588.38      50.88
118.27    2274.18      47.69
118.37    1949.00      44.15
118.47    1836.42      42.85
118.57    1507.00      38.82
118.67    1389.47      37.28
118.77    1338.00      36.58
118.87    1140.00      33.76
118.97    1031.00      32.11
119.07     949.71      30.82
119.17     894.62      29.91
119.27     828.00      28.77
119.37     843.66      29.05
119.47     765.47      27.67
119.57     687.05      26.21
119.67     640.20      25.30
119.77     675.00      25.98
119.87     610.15      24.70
119.97     634.00      25.18
120.07     607.00      24.64
120.17     596.25      24.42
120.27     561.00      23.69
120.37     589.00      24.27
120.47     558.00      23.62
120.57     541.00      23.26
120.67     585.00      24.19
120.77     608.81      24.67
120.87     604.07      24.58
120.97     571.00      23.90
121.07     560.46      23.67
121.17     576.00      24.00
121.27     626.95      25.04
121.37     596.00      24.41
121.47     588.00      24.25
121.57     565.22      23.77
121.67     586.00      24.21
121.77     603.53      24.57
121.87     617.00      24.84
121.97     599.52      24.49
122.07     629.00      25.08
122.17     632.00      25.14
122.27     630.00      25.10
122.37     590.00      24.29
122.47     620.87      24.92
122.57     634.00      25.18
122.67     624.56      24.99
122.77     671.38      25.91
122.87     628.00      25.06
122.97     632.00      25.14
123.07     657.00      25.63
123.17     623.92      24.98
123.27     648.00      25.46
123.37     680.08      26.08
123.47     623.00      24.96
123.57     645.00      25.40
123.67     601.34      24.52
123.77     671.08      25.91
123.87     642.00      25.34
123.97     597.98      24.45
124.07     574.94      23.98
124.17     597.00      24.43
124.27     594.00      24.37
124.37     612.13      24.74
124.47     612.00      24.74
124.57     584.00      24.17
124.67     573.54      23.95
124.77     577.00      24.02
124.87     639.00      25.28
124.97     593.00      24.35
