  9.97     632.00      25.14
 10.07     610.00      24.70
 10.17     599.00      24.47
 10.27     573.80      23.95
 10.37     535.48      23.14
 10.47     593.00      24.35
 10.57     563.63      23.74
 10.67     567.00      23.81
 10.77     584.00      24.17
 10.87     583.00      24.15
 10.97     588.00      24.25
 11.07     565.35      23.78
 11.17     608.93      24.68
 11.27     571.12      23.90
 11.37     614.00      24.78
 11.47     557.00      23.60
 11.57     593.00      24.35
 11.67     623.00      24.96
 11.77     591.00      24.31
 11.87     622.00      24.94
 11.97     640.22      25.30
 12.07     700.00      26.46
 12.17     673.40      25.95
 12.27     682.33      26.12
 12.37     641.22      25.32
 12.47     601.00      24.52
 12.57     561.63      23.70
 12.67     574.00      23.96
 12.77     576.28      24.01
 12.87     606.65      24.63
 12.97     575.59      23.99
 13.07     530.48      23.03
 13.17     547.29      23.39
 13.27     607.00      24.64
 13.37     533.00      23.09
 13.47     512.00      22.63
 13.57     538.00      23.19
 13.67     611.64      24.73
 13.77     581.82      24.12
 13.87     588.00      24.25
 13.97     522.00      22.85
 14.07     571.00      23.90
 14.17     550.00      23.45
 14.27     577.00      24.02
 14.37     568.55      23.84
 14.47     577.88      24.04
 14.57     533.00      23.09
 14.67     546.56      23.38
 14.77     543.00      23.30
 14.87     532.00      23.07
 14.97     527.00      22.96
 15.07     561.00      23.69
 15.17     603.00      24.56
 15.27     615.35      24.81
 15.37     601.00      24.52
 15.47     607.00      24.64
 15.57     564.00      23.75
 15.67     534.91      23.13
 15.77     562.00      23.71
 15.87     601.67      24.53
 15.97     507.00      22.52
 16.07     564.41      23.76
 16.17     572.00      23.92
 16.27     593.00      24.35
 16.37     577.00      24.02
 16.47     589.00      24.27
 16.57     538.00      23.19
 16.67     569.00      23.85
 16.77     526.00      22.93
 16.87     557.00      23.60
 16.97     539.00      23.22
 17.07     517.00      22.74
 17.17     562.00      23.71
 17.27     540.00      23.24
 17.37     547.00      23.39
 17.47     499.00      22.34
 17.57     552.00      23.49
 17.67     576.00      24.00
 17.77     602.00      24.54
 17.87     504.00      22.45
 17.97     592.00      24.33
 18.07     575.00      23.98
 18.17     577.00      24.02
 18.27     520.00      22.80
 18.37     578.70      24.06
 18.47     587.00      24.23
 18.57     556.00      23.58
 18.67     547.00      23.39
 18.77     525.89      22.93
 18.87     559.00      23.64
 18.97     561.00      23.69
 19.07     578.00      24.04
 19.17     603.53      24.57
 19.27     597.00      24.43
 19.37     550.40      23.46
 19.47     545.00      23.35
 19.57     593.50      24.36
 19.67     566.00      23.79
 19.77     533.00      23.09
 19.87     533.00      23.09
 19.97     573.00      23.94
 20.07     545.64      23.36
 20.17     534.00      23.11
 20.27     544.00      23.32
 20.37     606.28      24.62
 20.47     566.72      23.81
 20.57     537.52      23.18
 20.67     574.00      23.96
 20.77     529.00      23.00
 20.87     541.00      23.26
 20.97     557.00      23.60
 21.07     571.00      23.90
 21.17     595.00      24.39
 21.27     528.00      22.98
 21.37     560.00      23.66
 21.47     561.00      23.69
 21.57     585.92      24.21
 21.67     571.53      23.91
 21.77     579.00      24.06
 21.87     578.00      24.04
 21.97     543.00      23.30
 22.07     552.00      23.49
 22.17     544.70      23.34
 22.27     570.80      23.89
 22.37     569.00      23.85
 22.47     505.74      22.49
 22.57     557.00      23.60
 22.67     581.00      24.10
 22.77     540.37      23.25
 22.87     555.00      23.56
 22.97     498.00      22.32
 23.07     592.28      24.34
 23.17     484.00      22.00
 23.27     594.00      24.37
 23.37     537.00      23.17
 23.47     550.00      23.45
 23.57     528.92      23.00
 23.67     552.13      23.50
 23.77     574.00      23.96
 23.87     544.00      23.32
 23.97     578.62      24.05
 24.07     587.00      24.23
 24.17     568.00      23.83
 24.27     564.21      23.75
 24.37     572.00      23.92
 24.47     572.00      23.92
 24.57     618.00      24.86
 24.67     650.00      25.50
 24.77     580.00      24.08
 24.87     634.00      25.18
 24.97     643.00      25.36
 25.07     593.00      24.35
 25.17     579.00      24.06
 25.27     549.00      23.43
 25.37     558.00      23.62
 25.47     544.58      23.34
 25.57     514.60      22.68
 25.67     584.06      24.17
 25.77     553.00      23.52
 25.87     536.87      23.17
 25.97     552.10      23.50
 26.07     574.00      23.96
 26.17     536.00      23.15
 26.27     569.88      23.87
 26.37     527.20      22.96
 26.47     530.00      23.02
 26.57     496.52      22.28
 26.67     556.00      23.58
 26.77     557.08      23.60
 26.87     560.67      23.68
 26.97     518.20      22.76
 27.07     553.00      23.52
 27.17     508.79      22.56
 27.27     573.69      23.95
 27.37     535.00      23.13
 27.47     547.12      23.39
 27.57     563.07      23.73
 27.67     578.00      24.04
 27.77     585.29      24.19
 27.87     628.00      25.06
 27.97     680.00      26.08
 28.07     775.76      27.85
 28.17     883.32      29.72
 28.27     969.00      31.13
 28.37     929.00      30.48
 28.47     766.76      27.69
 28.57     680.00      26.08
 28.67     692.04      26.31
 28.77     722.00      26.87
 28.87     813.00      28.51
 28.97     844.23      29.06
 29.07     790.00      28.11
 29.17     681.00      26.10
 29.27     653.25      25.56
 29.37     616.75      24.83
 29.47     649.00      25.48
 29.57     541.55      23.27
 29.67     620.00      24.90
 29.77     578.87      24.06
 29.87     539.00      23.22
 29.97     604.00      24.58
 30.07     558.00      23.62
 30.17     556.00      23.58
 30.27     561.00      23.69
 30.37     582.00      24.12
 30.47     541.94      23.28
 30.57     560.85      23.68
 30.67     585.78      24.20
 30.77     594.00      24.37
 30.87     615.00      24.80
 30.97     634.00      25.18
 31.07     571.56      23.91
 31.17     590.00      24.29
 31.27     548.00      23.41
 31.37     499.00      22.34
 31.47     504.25      22.46
 31.57     586.00      24.21
 31.67     559.00      23.64
 31.77     506.18      22.50
 31.87     496.50      22.28
 31.97     535.00      23.13
 32.07     518.00      22.76
 32.17     556.13      23.58
 32.27     535.00      23.13
 32.37     552.00      23.49
 32.47     563.00      23.73
 32.57     550.00      23.45
 32.67     511.56      22.62
 32.77     546.30      23.37
 32.87     563.00      23.73
 32.97     553.00      23.52
 33.07     548.00      23.41
 33.17     569.82      23.87
 33.27     522.00      22.85
 33.37     589.00      24.27
 33.47     565.00      23.77
 33.57     624.00      24.98
 33.67     663.00      25.75
 33.77     709.00      26.63
 33.87     839.32      28.97
 33.97    1026.00      32.03
 34.07    1110.18      33.32
 34.17    1057.00      32.51
 34.27     858.53      29.30
 34.37     822.05      28.67
 34.47     643.00      25.36
 34.57     568.00      23.83
 34.67     575.50      23.99
 34.77     582.00      24.12
 34.87     519.00      22.78
 34.97     523.00      22.87
 35.07     528.00      22.98
 35.17     525.00      22.91
 35.27     502.00      22.41
 35.37     545.06      23.35
 35.47     500.00      22.36
 35.57     474.00      21.77
 35.67     501.00      22.38
 35.77     478.53      21.88
 35.87     512.56      22.64
 35.97     508.00      22.54
 36.07     503.00      22.43
 36.17     536.00      23.15
 36.27     496.00      22.27
 36.37     504.88      22.47
 36.47     473.08      21.75
 36.57     514.98      22.69
 36.67     533.00      23.09
 36.77     493.54      22.22
 36.87     495.00      22.25
 36.97     518.78      22.78
 37.07     477.60      21.85
 37.17     495.00      22.25
 37.27     506.00      22.49
 37.37     508.00      22.54
 37.47     553.99      23.54
 37.57     534.00      23.11
 37.67     514.00      22.67
 37.77     529.00      23.00
 37.87     559.59      23.66
 37.97     525.00      22.91
 38.07     531.00      23.04
 38.17     549.16      23.43
 38.27     502.00      22.41
 38.37     502.00      22.41
 38.47     500.65      22.38
 38.57     508.00      22.54
 38.67     478.00      21.86
 38.77     478.43      21.87
 38.87     521.00      22.83
 38.97     502.00      22.41
 39.07     516.35      22.72
 39.17     524.65      22.91
 39.27     468.00      21.63
 39.37     506.27      22.50
 39.47     436.00      20.88
 39.57     528.13      22.98
 39.67     470.00      21.68
 39.77     469.98      21.68
 39.87     512.87      22.65
 39.97     491.00      22.16
 40.07     488.00      22.09
 40.17     517.05      22.74
 40.27     523.00      22.87
 40.37     466.00      21.59
 40.47     520.75      22.82
 40.57     512.00      22.63
 40.67     527.00      22.96
 40.77     542.59      23.29
 40.87     460.00      21.45
 40.97     521.00      22.83
 41.07     485.44      22.03
 41.17     456.00      21.35
 41.27     471.00      21.70
 41.37     502.18      22.41
 41.47     477.12      21.84
 41.57     540.86      23.26
 41.67     496.32      22.28
 41.77     471.00      21.70
 41.87     490.00      22.14
 41.97     513.46      22.66
 42.07     531.00      23.04
 42.17     533.00      23.09
 42.27     571.02      23.90
 42.37     548.00      23.41
 42.47     539.00      23.22
 42.57     622.22      24.94
 42.67     608.81      24.67
 42.77     625.13      25.00
 42.87     533.00      23.09
 42.97     554.00      23.54
 43.07     508.95      22.56
 43.17     449.00      21.19
 43.27     475.32      21.80
 43.37     514.00      22.67
 43.47     483.00      21.98
 43.57     521.57      22.84
 43.67     524.31      22.90
 43.77     481.00      21.93
 43.87     517.33      22.74
 43.97     533.00      23.09
 44.07     497.00      22.29
 44.17     455.00      21.33
 44.27     488.00      22.09
 44.37     478.78      21.88
 44.47     507.00      22.52
 44.57     531.00      23.04
 44.67     518.00      22.76
 44.77     500.00      22.36
 44.87     522.00      22.85
 44.97     488.93      22.11
 45.07     516.00      22.72
 45.17     543.00      23.30
 45.27     502.09      22.41
 45.37     483.09      21.98
 45.47     483.00      21.98
 45.57     464.40      21.55
 45.67     479.38      21.89
 45.77     476.00      21.82
 45.87     520.00      22.80
 45.97     507.00      22.52
 46.07     460.00      21.45
 46.17     471.89      21.72
 46.27     515.13      22.70
 46.37     516.00      22.72
 46.47     488.00      22.09
 46.57     497.00      22.29
 46.67     538.00      23.19
 46.77     458.62      21.42
 46.87     488.00      22.09
 46.97     514.00      22.67
 47.07     572.00      23.92
 47.17     509.00      22.56
 47.27     542.77      23.30
 47.37     506.00      22.49
 47.47     545.00      23.35
 47.57     559.00      23.64
 47.67     592.00      24.33
 47.77     585.00      24.19
 47.87     564.00      23.75
 47.97     561.00      23.69
 48.07     620.00      24.90
 48.17     582.00      24.12
 48.27     545.00      23.35
 48.37     506.97      22.52
 48.47     572.80      23.93
 48.57     515.00      22.69
 48.67     524.00      22.89
 48.77     549.00      23.43
 48.87     565.00      23.77
 48.97     552.00      23.49
 49.07     555.97      23.58
 49.17     626.52      25.03
 49.27     638.00      25.26
 49.37     641.00      25.32
 49.47     677.55      26.03
 49.57     762.00      27.60
 49.67     900.00      30.00
 49.77    1130.00      33.62
 49.87    1398.39      37.40
 49.97    1809.00      42.53
 50.07    2147.32      46.34
 50.17    2454.70      49.54
 50.27    2547.00      50.47
 50.37    2373.00      48.71
 50.47    1988.12      44.59
 50.57    1571.00      39.64
 50.67    1163.81      34.11
 50.77     943.49      30.72
 50.87     722.00      26.87
 50.97     644.00      25.38
 51.07     618.00      24.86
 51.17     623.00      24.96
 51.27     594.00      24.37
 51.37     611.00      24.72
 51.47     585.00      24.19
 51.57     580.06      24.08
 51.67     542.00      23.28
 51.77     503.84      22.45
 51.87     569.00      23.85
 51.97     509.98      22.58
 52.07     553.00      23.52
 52.17     536.00      23.15
 52.27     564.00      23.75
 52.37     525.00      22.91
 52.47     547.00      23.39
 52.57     561.00      23.69
 52.67     523.00      22.87
 52.77     608.94      24.68
 52.87     563.92      23.75
 52.97     671.86      25.92
 53.07     771.00      27.77
 53.17     896.00      29.93
 53.27    1033.81      32.15
 53.37    1071.00      32.73
 53.47    1170.00      34.21
 53.57    1228.00      35.04
 53.67    1206.60      34.74
 53.77    1013.00      31.83
 53.87     848.00      29.12
 53.97     756.00      27.50
 54.07     674.00      25.96
 54.17     643.00      25.36
 54.27     557.69      23.62
 54.37     600.00      24.49
 54.47     557.00      23.60
 54.57     607.00      24.64
 54.67     514.00      22.67
 54.77     568.00      23.83
 54.87     548.45      23.42
 54.97     536.44      23.16
 55.07     494.84      22.24
 55.17     574.04      23.96
 55.27     552.00      23.49
 55.37     569.00      23.85
 55.47     561.75      23.70
 55.57     539.26      23.22
 55.67     519.36      22.79
 55.77     547.00      23.39
 55.87     582.53      24.14
 55.97     651.00      25.51
 56.07     625.00      25.00
 56.17     753.75      27.45
 56.27     811.00      28.48
 56.37     994.00      31.53
 56.47    1299.37      36.05
 56.57    1743.29      41.75
 56.67    1991.00      44.62
 56.77    2328.00      48.25
 56.87    2657.00      51.55
 56.97    2672.00      51.69
 57.07    2439.00      49.39
 57.17    2253.00      47.47
 57.27    1807.52      42.51
 57.37    1391.00      37.30
 57.47    1125.00      33.54
 57.57     889.00      29.82
 57.67     722.40      26.88
 57.77     749.16      27.37
 57.87     713.00      26.70
 57.97     691.87      26.30
 58.07     701.27      26.48
 58.17     720.00      26.83
 58.27     775.00      27.84
 58.37     790.00      28.11
 58.47    1010.77      31.79
 58.57    1143.00      33.81
 58.67    1260.76      35.51
 58.77    1376.00      37.09
 58.87    1546.00      39.32
 58.97    1636.00      40.45
 59.07    1663.00      40.78
 59.17    1592.00      39.90
 59.27    1499.16      38.72
 59.37    1383.89      37.20
 59.47    1247.86      35.33
 59.57    1184.00      34.41
 59.67    1158.00      34.03
 59.77    1153.55      33.96
 59.87    1231.00      35.09
 59.97    1260.36      35.50
 60.07    1418.59      37.66
 60.17    1491.30      38.62
 60.27    1583.00      39.79
 60.37    1585.40      39.82
 60.47    1446.00      38.03
 60.57    1306.00      36.14
 60.67    1129.24      33.60
 60.77     983.00      31.35
 60.87     824.00      28.71
 60.97     763.00      27.62
 61.07     694.32      26.35
 61.17     629.00      25.08
 61.27     600.00      24.49
 61.37     611.66      24.73
 61.47     673.65      25.95
 61.57     722.00      26.87
 61.67     840.26      28.99
 61.77     985.63      31.39
 61.87    1061.93      32.59
 61.97    1196.49      34.59
 62.07    1365.00      36.95
 62.17    1393.26      37.33
 62.27    1505.05      38.79
 62.37    1452.15      38.11
 62.47    1314.00      36.25
 62.57    1073.00      32.76
 62.67     920.00      30.33
 62.77     811.00      28.48
 62.87     664.00      25.77
 62.97     641.00      25.32
 63.07     596.09      24.41
 63.17     584.00      24.17
 63.27     570.00      23.87
 63.37     577.00      24.02
 63.47     621.00      24.92
 63.57     588.00      24.25
 63.67     558.00      23.62
 63.77     602.39      24.54
 63.87     556.59      23.59
 63.97     580.19      24.09
 64.07     711.00      26.66
 64.17     724.61      26.92
 64.27     818.00      28.60
 64.37     866.00      29.43
 64.47     963.00      31.03
 64.57    1027.99      32.06
 64.67     970.56      31.15
 64.77    1005.94      31.72
 64.87     946.73      30.77
 64.97     955.00      30.90
 65.07     847.00      29.10
 65.17     833.18      28.86
 65.27     756.00      27.50
 65.37     691.35      26.29
 65.47     652.73      25.55
 65.57     592.00      24.33
 65.67     571.69      23.91
 65.77     581.00      24.10
 65.87     541.00      23.26
 65.97     572.00      23.92
 66.07     527.46      22.97
 66.17     550.30      23.46
 66.27     525.00      22.91
 66.37     525.23      22.92
 66.47     516.93      22.74
 66.57     515.84      22.71
 66.67     577.00      24.02
 66.77     588.77      24.26
 66.87     559.00      23.64
 66.97     541.00      23.26
 67.07     620.12      24.90
 67.17     637.00      25.24
 67.27     739.00      27.18
 67.37     841.00      29.00
 67.47    1000.00      31.62
 67.57    1180.00      34.35
 67.67    1426.00      37.76
 67.77    1698.00      41.21
 67.87    1954.00      44.20
 67.97    2150.00      46.37
 68.07    2347.00      48.45
 68.17    2438.00      49.38
 68.27    2250.00      47.43
 68.37    2088.12      45.70
 68.47    1875.00      43.30
 68.57    1662.16      40.77
 68.67    1349.91      36.74
 68.77    1117.00      33.42
 68.87     859.00      29.31
 68.97     802.00      28.32
 69.07     710.43      26.65
 69.17     665.28      25.79
 69.27     656.00      25.61
 69.37     610.00      24.70
 69.47     594.00      24.37
 69.57     568.00      23.83
 69.67     531.02      23.04
 69.77     572.00      23.92
 69.87     576.87      24.02
 69.97     605.00      24.60
 70.07     540.08      23.24
 70.17     577.53      24.03
 70.27     565.00      23.77
 70.37     586.00      24.21
 70.47     538.21      23.20
 70.57     550.00      23.45
 70.67     548.00      23.41
 70.77     550.00      23.45
 70.87     563.50      23.74
 70.97     615.34      24.81
 71.07     660.00      25.69
 71.17     681.00      26.10
 71.27     753.00      27.44
 71.37     856.00      29.26
 71.47     992.00      31.50
 71.57    1149.25      33.90
 71.67    1420.88      37.69
 71.77    1560.00      39.50
 71.87    1704.20      41.28
 71.97    1854.00      43.06
 72.07    1885.00      43.42
 72.17    1951.23      44.17
 72.27    1860.00      43.13
 72.37    1726.00      41.55
 72.47    1481.00      38.48
 72.57    1439.00      37.93
 72.67    1267.00      35.59
 72.77    1076.00      32.80
 72.87    1051.00      32.42
 72.97     903.00      30.05
 73.07     843.00      29.03
 73.17     783.00      27.98
 73.27     756.00      27.50
 73.37     691.00      26.29
 73.47     672.00      25.92
 73.57     557.00      23.60
 73.67     606.00      24.62
 73.77     591.00      24.31
 73.87     609.00      24.68
 73.97     570.13      23.88
 74.07     601.00      24.52
 74.17     589.00      24.27
 74.27     561.00      23.69
 74.37     524.64      22.90
 74.47     617.00      24.84
 74.57     664.00      25.77
 74.67     629.00      25.08
 74.77     545.71      23.36
 74.87     603.24      24.56
 74.97     631.00      25.12
 75.07     572.00      23.92
 75.17     600.00      24.49
 75.27     512.23      22.63
 75.37     578.00      24.04
 75.47     559.00      23.64
 75.57     545.00      23.35
 75.67     583.39      24.15
 75.77     553.00      23.52
 75.87     561.00      23.69
 75.97     584.00      24.17
 76.07     619.00      24.88
 76.17     610.00      24.70
 76.27     610.00      24.70
 76.37     706.00      26.57
 76.47     707.72      26.60
 76.57     675.00      25.98
 76.67     716.00      26.76
 76.77     732.22      27.06
 76.87     694.00      26.34
 76.97     625.00      25.00
 77.07     698.00      26.42
 77.17     576.00      24.00
 77.27     545.00      23.35
 77.37     618.00      24.86
 77.47     562.63      23.72
 77.57     514.00      22.67
 77.67     517.00      22.74
 77.77     532.00      23.07
 77.87     561.44      23.69
 77.97     555.92      23.58
 78.07     506.00      22.49
 78.17     522.00      22.85
 78.27     481.91      21.95
 78.37     540.00      23.24
 78.47     513.08      22.65
 78.57     508.08      22.54
 78.67     537.00      23.17
 78.77     529.00      23.00
 78.87     573.00      23.94
 78.97     498.00      22.32
 79.07     562.31      23.71
 79.17     511.00      22.61
 79.27     503.00      22.43
 79.37     516.00      22.72
 79.47     513.00      22.65
 79.57     567.98      23.83
 79.67     535.86      23.15
 79.77     536.00      23.15
 79.87     543.00      23.30
 79.97     558.66      23.64
 80.07     567.76      23.83
 80.17     591.77      24.33
 80.27     531.87      23.06
 80.37     558.34      23.63
 80.47     593.57      24.36
 80.57     612.00      24.74
 80.67     579.08      24.06
 80.77     642.00      25.34
 80.87     620.91      24.92
 80.97     714.00      26.72
 81.07     719.01      26.81
 81.17     728.00      26.98
 81.27     698.77      26.43
 81.37     762.55      27.61
 81.47     732.00      27.06
 81.57     735.00      27.11
 81.67     803.00      28.34
 81.77     727.00      26.96
 81.87     716.00      26.76
 81.97     741.22      27.23
 82.07     717.69      26.79
 82.17     651.10      25.52
 82.27     601.66      24.53
 82.37     638.00      25.26
 82.47     617.00      24.84
 82.57     618.95      24.88
 82.67     566.00      23.79
 82.77     555.31      23.57
 82.87     500.00      22.36
 82.97     526.00      22.93
 83.07     546.00      23.37
 83.17     547.00      23.39
 83.27     516.00      22.72
 83.37     527.93      22.98
 83.47     537.70      23.19
 83.57     540.00      23.24
 83.67     544.74      23.34
 83.77     548.81      23.43
 83.87     552.58      23.51
 83.97     618.00      24.86
 84.07     571.98      23.92
 84.17     585.82      24.20
 84.27     590.00      24.29
 84.37     606.72      24.63
 84.47     571.00      23.90
 84.57     536.00      23.15
 84.67     521.00      22.83
 84.77     511.00      22.61
 84.87     525.89      22.93
 84.97     552.00      23.49
 85.07     570.03      23.88
 85.17     507.00      22.52
 85.27     554.00      23.54
 85.37     556.33      23.59
 85.47     554.10      23.54
 85.57     563.13      23.73
 85.67     531.48      23.05
 85.77     519.00      22.78
 85.87     564.00      23.75
 85.97     551.94      23.49
 86.07     492.00      22.18
 86.17     508.10      22.54
 86.27     548.00      23.41
 86.37     531.69      23.06
 86.47     537.00      23.17
 86.57     577.00      24.02
 86.67     596.96      24.43
 86.77     533.00      23.09
 86.87     610.00      24.70
 86.97     622.26      24.95
 87.07     653.00      25.55
 87.17     579.00      24.06
 87.27     688.00      26.23
 87.37     661.52      25.72
 87.47     638.00      25.26
 87.57     663.12      25.75
 87.67     670.00      25.88
 87.77     635.00      25.20
 87.87     607.97      24.66
 87.97     618.00      24.86
 88.07     629.38      25.09
 88.17     617.00      24.84
 88.27     578.00      24.04
 88.37     543.51      23.31
 88.47     564.00      23.75
 88.57     576.00      24.00
 88.67     543.03      23.30
 88.77     569.00      23.85
 88.87     558.00      23.62
 88.97     572.87      23.93
 89.07     564.14      23.75
 89.17     611.00      24.72
 89.27     555.19      23.56
 89.37     596.00      24.41
 89.47     582.00      24.12
 89.57     572.89      23.94
 89.67     614.00      24.78
 89.77     579.03      24.06
 89.87     544.00      23.32
 89.97     522.00      22.85
 90.07     554.00      23.54
 90.17     542.00      23.28
 90.27     509.00      22.56
 90.37     567.78      23.83
 90.47     528.10      22.98
 90.57     561.00      23.69
 90.67     487.00      22.07
 90.77     530.00      23.02
 90.87     516.00      22.72
 90.97     523.00      22.87
 91.07     505.00      22.47
 91.17     537.00      23.17
 91.27     520.00      22.80
 91.37     555.85      23.58
 91.47     502.19      22.41
 91.57     525.00      22.91
 91.67     531.00      23.04
 91.77     522.00      22.85
 91.87     544.73      23.34
 91.97     520.00      22.80
 92.07     541.00      23.26
 92.17     564.28      23.75
 92.27     597.00      24.43
 92.37     588.00      24.25
 92.47     626.24      25.02
 92.57     618.00      24.86
 92.67     599.00      24.47
 92.77     633.50      25.17
 92.87     653.00      25.55
 92.97     763.00      27.62
 93.07     712.20      26.69
 93.17     772.00      27.78
 93.27     785.00      28.02
 93.37     835.00      28.90
 93.47     822.00      28.67
 93.57     777.84      27.89
 93.67     822.00      28.67
 93.77     816.00      28.57
 93.87     863.00      29.38
 93.97     839.00      28.97
 94.07     823.00      28.69
 94.17     905.00      30.08
 94.27     877.50      29.62
 94.37     857.00      29.27
 94.47     887.00      29.78
 94.57     853.29      29.21
 94.67     853.50      29.21
 94.77     901.00      30.02
 94.87     863.85      29.39
 94.97     936.02      30.59
 95.07     914.09      30.23
 95.17     865.00      29.41
 95.27     831.00      28.83
 95.37     829.63      28.80
 95.47     742.00      27.24
 95.57     758.86      27.55
 95.67     770.73      27.76
 95.77     694.00      26.34
 95.87     668.00      25.85
 95.97     717.40      26.78
 96.07     670.00      25.88
 96.17     691.34      26.29
 96.27     673.00      25.94
 96.37     735.00      27.11
 96.47     753.00      27.44
 96.57     813.64      28.52
 96.67     924.26      30.40
 96.77     904.00      30.07
 96.87    1014.71      31.85
 96.97    1151.00      33.93
 97.07    1189.00      34.48
 97.17    1300.82      36.07
 97.27    1266.00      35.58
 97.37    1401.00      37.43
 97.47    1388.00      37.26
 97.57    1480.00      38.47
 97.67    1423.00      37.72
 97.77    1358.00      36.85
 97.87    1438.00      37.92
 97.97    1353.00      36.78
 98.07    1229.00      35.06
 98.17    1212.33      34.82
 98.27    1082.19      32.90
 98.37    1013.00      31.83
 98.47     989.00      31.45
 98.57     979.00      31.29
 98.67     896.29      29.94
 98.77     850.00      29.15
 98.87     791.00      28.12
 98.97     782.82      27.98
 99.07     767.78      27.71
 99.17     865.62      29.42
 99.27     882.00      29.70
 99.37     892.00      29.87
 99.47     960.35      30.99
 99.57    1008.00      31.75
 99.67    1081.88      32.89
 99.77    1180.43      34.36
 99.87    1261.00      35.51
 99.97    1460.00      38.21
100.07    1596.00      39.95
100.17    1759.00      41.94
100.27    1828.33      42.76
100.37    1929.64      43.93
100.47    1965.00      44.33
100.57    1935.08      43.99
100.67    2035.00      45.11
100.77    2141.92      46.28
100.87    2156.00      46.43
100.97    2112.00      45.96
101.07    2005.00      44.78
101.17    1990.00      44.61
101.27    1869.00      43.23
101.37    1845.00      42.95
101.47    1710.00      41.35
101.57    1670.91      40.88
101.67    1519.00      38.97
101.77    1426.17      37.76
101.87    1368.00      36.99
101.97    1257.85      35.47
102.07    1244.00      35.27
102.17    1122.00      33.50
102.27    1145.00      33.84
102.37    1191.00      34.51
102.47    1088.76      33.00
102.57    1111.00      33.33
102.67    1103.62      33.22
102.77    1042.00      32.28
102.87    1001.00      31.64
102.97     986.30      31.41
103.07     948.00      30.79
103.17     898.66      29.98
103.27     835.00      28.90
103.37     795.97      28.21
103.47     781.00      27.95
103.57     726.26      26.95
103.67     761.00      27.59
103.77     692.00      26.31
103.87     635.03      25.20
103.97     662.38      25.74
104.07     588.00      24.25
104.17     550.56      23.46
104.27     616.95      24.84
104.37     600.00      24.49
104.47     567.00      23.81
104.57     527.00      22.96
104.67     570.15      23.88
104.77     563.46      23.74
104.87     559.00      23.64
104.97     556.00      23.58
105.07     565.00      23.77
105.17     556.94      23.60
105.27     539.00      23.22
105.37     559.26      23.65
105.47     513.05      22.65
105.57     563.00      23.73
105.67     567.00      23.81
105.77     536.00      23.15
105.87     585.00      24.19
105.97     580.40      24.09
106.07     593.00      24.35
106.17     538.27      23.20
106.27     581.00      24.10
106.37     600.00      24.49
106.47     637.13      25.24
106.57     591.00      24.31
106.67     560.00      23.66
106.77     626.00      25.02
106.87     587.00      24.23
106.97     703.90      26.53
107.07     738.00      27.17
107.17     676.00      26.00
107.27     633.00      25.16
107.37     711.50      26.67
107.47     748.23      27.35
107.57     734.50      27.10
107.67     698.68      26.43
107.77     624.00      24.98
107.87     691.79      26.30
107.97     645.56      25.41
108.07     667.00      25.83
108.17     664.00      25.77
108.27     708.51      26.62
108.37     681.00      26.10
108.47     665.00      25.79
108.57     659.00      25.67
108.67     650.17      25.50
108.77     683.00      26.13
108.87     702.00      26.50
108.97     658.05      25.65
109.07     676.00      26.00
109.17     681.00      26.10
109.27     641.12      25.32
109.37     643.00      25.36
109.47     633.00      25.16
109.57     618.00      24.86
109.67     661.66      25.72
109.77     610.00      24.70
109.87     646.46      25.43
109.97     609.64      24.69
110.07     556.72      23.59
110.17     584.96      24.19
110.27     574.00      23.96
110.37     535.16      23.13
110.47     596.00      24.41
110.57     562.00      23.71
110.67     579.23      24.07
110.77     567.94      23.83
110.87     538.00      23.19
110.97     541.00      23.26
111.07     560.00      23.66
111.17     552.90      23.51
111.27     574.35      23.97
111.37     533.97      23.11
111.47     556.00      23.58
111.57     559.58      23.66
111.67     557.90      23.62
111.77     590.00      24.29
111.87     518.00      22.76
111.97     582.00      24.12
112.07     517.46      22.75
112.17     529.76      23.02
112.27     605.00      24.60
112.37     550.56      23.46
112.47     571.00      23.90
112.57     576.00      24.00
112.67     568.63      23.85
112.77     652.00      25.53
112.87     662.00      25.73
112.97     685.00      26.17
113.07     679.00      26.06
113.17     700.00      26.46
113.27     697.00      26.40
113.37     748.00      27.35
113.47     789.00      28.09
113.57     783.31      27.99
113.67     846.00      29.09
113.77     945.00      30.74
113.87     971.00      31.16
113.97     993.00      31.51
114.07    1028.00      32.06
114.17    1129.00      33.60
114.27    1087.66      32.98
114.37    1210.66      34.79
114.47    1301.00      36.07
114.57    1334.49      36.53
114.67    1587.00      39.84
114.77    1600.90      40.01
114.87    1842.00      42.92
114.97    1995.00      44.67
115.07    2230.00      47.22
115.17    2462.03      49.62
115.27    2630.41      51.29
115.37    2891.00      53.77
115.47    3254.52      57.05
115.57    3604.00      60.03
115.67    3871.00      62.22
115.77    4417.00      66.46
115.87    4549.00      67.45
115.97    4957.00      70.41
116.07    5571.76      74.64
116.17    5784.00      76.05
116.27    6085.00      78.01
116.37    6379.74      79.87
116.47    6730.49      82.04
116.57    6905.67      83.10
116.67    6926.28      83.22
116.77    7101.00      84.27
116.87    6912.00      83.14
116.97    6955.00      83.40
117.07    6920.00      83.19
117.17    6580.00      81.12
117.27    6050.00      77.78
117.37    5915.01      76.91
117.47    5363.00      73.23
117.57    4992.00      70.65
117.67    4408.00      66.39
117.77    4324.00      65.76
117.87    3979.00      63.08
117.97    3552.00      59.60
118.07    3185.00      56.44
118.17    2816.00      53.07
118.27    2534.00      50.34
118.37    2109.00      45.92
118.47    1864.41      43.18
118.57    1737.00      41.68
118.67    1549.37      39.36
118.77    1316.47      36.28
118.87    1195.00      34.57
118.97    1114.00      33.38
119.07    1021.20      31.96
119.17     940.37      30.67
119.27     867.00      29.44
119.37     784.70      28.01
119.47     738.43      27.17
119.57     707.56      26.60
119.67     720.00      26.83
119.77     707.59      26.60
119.87     669.17      25.87
119.97     667.32      25.83
120.07     661.53      25.72
120.17     572.90      23.94
120.27     588.00      24.25
120.37     562.43      23.72
120.47     571.00      23.90
120.57     557.48      23.61
120.67     569.00      23.85
120.77     589.89      24.29
120.87     579.48      24.07
120.97     546.00      23.37
121.07     557.00      23.60
121.17     578.25      24.05
121.27     577.00      24.02
121.37     599.40      24.48
121.47     581.96      24.12
121.57     539.55      23.23
121.67     549.00      23.43
121.77     547.00      23.39
121.87     577.88      24.04
121.97     582.00      24.12
122.07     622.00      24.94
122.17     607.40      24.65
122.27     621.00      24.92
122.37     615.00      24.80
122.47     609.00      24.68
122.57     676.00      26.00
122.67     658.00      25.65
122.77     603.00      24.56
122.87     679.58      26.07
122.97     595.99      24.41
123.07     649.23      25.48
123.17     641.18      25.32
123.27     656.00      25.61
123.37     672.37      25.93
123.47     633.00      25.16
123.57     640.00      25.30
123.67     647.52      25.45
123.77     621.00      24.92
123.87     639.94      25.30
123.97     589.00      24.27
124.07     674.00      25.96
124.17     625.00      25.00
124.27     592.02      24.33
124.37     592.00      24.33
124.47     612.00      24.74
124.57     577.00      24.02
124.67     572.00      23.92
124.77     558.00      23.62
124.87     612.00      24.74
124.97     572.45      23.93
