  9.97     600.00      24.49
 10.07     603.00      24.56
 10.17     548.01      23.41
 10.27     601.09      24.52
 10.37     571.00      23.90
 10.47     604.00      24.58
 10.57     613.00      24.76
 10.67     599.00      24.47
 10.77     616.27      24.82
 10.87     597.00      24.43
 10.97     597.00      24.43
 11.07     597.00      24.43
 11.17     537.25      23.18
 11.27     583.88      24.16
 11.37     603.08      24.56
 11.47     595.57      24.40
 11.57     566.00      23.79
 11.67     627.00      25.04
 11.77     595.22      24.40
 11.87     637.00      25.24
 11.97     653.00      25.55
 12.07     627.54      25.05
 12.17     684.35      26.16
 12.27     654.00      25.57
 12.37     634.00      25.18
 12.47     586.00      24.21
 12.57     626.00      25.02
 12.67     591.00      24.31
 12.77     582.94      24.14
 12.87     558.00      23.62
 12.97     575.10      23.98
 13.07     611.00      24.72
 13.17     565.00      23.77
 13.27     556.04      23.58
 13.37     567.00      23.81
 13.47     524.00      22.89
 13.57     558.00      23.62
 13.67     604.29      24.58
 13.77     569.00      23.85
 13.87     562.00      23.71
 13.97     537.30      23.18
 14.07     603.00      24.56
 14.17     561.00      23.69
 14.27     587.00      24.23
 14.37     575.17      23.98
 14.47     549.99      23.45
 14.57     540.00      23.24
 14.67     553.88      23.53
 14.77     559.00      23.64
 14.87     562.00      23.71
 14.97     581.00      24.10
 15.07     582.06      24.13
 15.17     544.52      23.33
 15.27     588.00      24.25
 15.37     509.00      22.56
 15.47     541.00      23.26
 15.57     611.77      24.73
 15.67     567.00      23.81
 15.77     569.00      23.85
 15.87     565.00      23.77
 15.97     536.00      23.15
 16.07     540.00      23.24
 16.17     549.00      23.43
 16.27     599.46      24.48
 16.37     538.80      23.21
 16.47     528.00      22.98
 16.57     578.14      24.04
 16.67     539.00      23.22
 16.77     560.00      23.66
 16.87     572.01      23.92
 16.97     564.00      23.75
 17.07     588.19      24.25
 17.17     593.98      24.37
 17.27     519.58      22.79
 17.37     592.89      24.35
 17.47     572.00      23.92
 17.57     572.83      23.93
 17.67     542.00      23.28
 17.77     539.42      23.23
 17.87     526.00      22.93
 17.97     553.00      23.52
 18.07     590.13      24.29
 18.17     600.00      24.49
 18.27     514.00      22.67
 18.37     573.00      23.94
 18.47     541.00      23.26
 18.57     534.99      23.13
 18.67     583.00      24.15
 18.77     595.00      24.39
 18.87     545.00      23.35
 18.97     541.00      23.26
 19.07     515.21      22.70
 19.17     561.27      23.69
 19.27     515.31      22.70
 19.37     559.00      23.64
 19.47     559.00      23.64
 19.57     546.00      23.37
 19.67     521.00      22.83
 19.77     576.00      24.00
 19.87     539.00      23.22
 19.97     544.00      23.32
 20.07     547.00      23.39
 20.17     545.40      23.35
 20.27     535.00      23.13
 20.37     564.00      23.75
 20.47     599.00      24.47
 20.57     515.51      22.70
 20.67     591.24      24.32
 20.77     528.00      22.98
 20.87     526.00      22.93
 20.97     541.00      23.26
 21.07     549.12      23.43
 21.17     540.00      23.24
 21.27     511.86      22.62
 21.37     560.00      23.66
 21.47     566.48      23.80
 21.57     582.20      24.13
 21.67     526.57      22.95
 21.77     573.00      23.94
 21.87     573.72      23.95
 21.97     567.64      23.83
 22.07     574.00      23.96
 22.17     577.24      24.03
 22.27     512.38      22.64
 22.37     580.00      24.08
 22.47     569.00      23.85
 22.57     538.00      23.19
 22.67     526.00      22.93
 22.77     587.12      24.23
 22.87     576.00      24.00
 22.97     546.53      23.38
 23.07     524.00      22.89
 23.17     530.00      23.02
 23.27     562.00      23.71
 23.37     574.72      23.97
 23.47     587.99      24.25
 23.57     539.00      23.22
 23.67     546.99      23.39
 23.77     543.00      23.30
 23.87     553.04      23.52
 23.97     565.00      23.77
 24.07     550.00      23.45
 24.17     515.00      22.69
 24.27     544.00      23.32
 24.37     549.00      23.43
 24.47     620.57      24.91
 24.57     566.00      23.79
 24.67     585.00      24.19
 24.77     616.80      24.84
 24.87     659.70      25.68
 24.97     626.00      25.02
 25.07     632.20      25.14
 25.17     589.00      24.27
 25.27     575.72      23.99
 25.37     536.00      23.15
 25.47     549.00      23.43
 25.57     567.00      23.81
 25.67     564.00      23.75
 25.77     548.64      23.42
 25.87     552.26      23.50
 25.97     595.00      24.39
 26.07     555.00      23.56
 26.17     547.59      23.40
 26.27     585.00      24.19
 26.37     496.10      22.27
 26.47     531.00      23.04
 26.57     499.66      22.35
 26.67     523.00      22.87
 26.77     590.00      24.29
 26.87     498.94      22.34
 26.97     563.00      23.73
 27.07     532.00      23.07
 27.17     573.00      23.94
 27.27     541.00      23.26
 27.37     512.89      22.65
 27.47     580.00      24.08
 27.57     580.14      24.09
 27.67     520.73      22.82
 27.77     568.60      23.85
 27.87     603.00      24.56
 27.97     607.57      24.65
 28.07     704.00      26.53
 28.17     886.00      29.77
 28.27     982.00      31.34
 28.37     929.00      30.48
 28.47     818.00      28.60
 28.57     718.35      26.80
 28.67     679.00      26.06
 28.77     728.00      26.98
 28.87     848.46      29.13
 28.97     795.00      28.20
 29.07     750.48      27.39
 29.17     649.00      25.48
 29.27     620.95      24.92
 29.37     604.00      24.58
 29.47     606.00      24.62
 29.57     590.03      24.29
 29.67     586.06      24.21
 29.77     578.00      24.04
 29.87     549.00      23.43
 29.97     585.94      24.21
 30.07     535.65      23.14
 30.17     595.00      24.39
 30.27     568.00      23.83
 30.37     568.00      23.83
 30.47     565.00      23.77
 30.57     583.10      24.15
 30.67     603.00      24.56
 30.77     617.00      24.84
 30.87     619.00      24.88
 30.97     561.53      23.70
 31.07     546.00      23.37
 31.17     560.00      23.66
 31.27     589.28      24.28
 31.37     553.00      23.52
 31.47     520.76      22.82
 31.57     553.00      23.52
 31.67     521.59      22.84
 31.77     539.00      23.22
 31.87     540.75      23.25
 31.97     562.04      23.71
 32.07     544.00      23.32
 32.17     524.61      22.90
 32.27     520.65      22.82
 32.37     566.00      23.79
 32.47     490.00      22.14
 32.57     508.00      22.54
 32.67     537.00      23.17
 32.77     550.00      23.45
 32.87     511.00      22.61
 32.97     532.99      23.09
 33.07     572.00      23.92
 33.17     564.00      23.75
 33.27     505.00      22.47
 33.37     502.60      22.42
 33.47     562.00      23.71
 33.57     611.89      24.74
 33.67     665.10      25.79
 33.77     760.55      27.58
 33.87     876.00      29.60
 33.97     910.94      30.18
 34.07    1073.59      32.77
 34.17    1024.24      32.00
 34.27     897.00      29.95
 34.37     775.00      27.84
 34.47     638.00      25.26
 34.57     609.00      24.68
 34.67     566.00      23.79
 34.77     590.65      24.30
 34.87     540.00      23.24
 34.97     560.00      23.66
 35.07     563.00      23.73
 35.17     483.00      21.98
 35.27     528.00      22.98
 35.37     493.00      22.20
 35.47     529.00      23.00
 35.57     549.00      23.43
 35.67     533.88      23.11
 35.77     505.00      22.47
 35.87     542.00      23.28
 35.97     518.00      22.76
 36.07     539.00      23.22
 36.17     536.39      23.16
 36.27     504.00      22.45
 36.37     524.00      22.89
 36.47     485.00      22.02
 36.57     535.00      23.13
 36.67     534.00      23.11
 36.77     481.00      21.93
 36.87     481.00      21.93
 36.97     519.00      22.78
 37.07     543.00      23.30
 37.17     495.00      22.25
 37.27     546.00      23.37
 37.37     551.00      23.47
 37.47     522.00      22.85
 37.57     498.00      22.32
 37.67     525.28      22.92
 37.77     558.00      23.62
 37.87     510.00      22.58
 37.97     493.00      22.20
 38.07     484.00      22.00
 38.17     493.00      22.20
 38.27     506.00      22.49
 38.37     548.35      23.42
 38.47     493.74      22.22
 38.57     453.00      21.28
 38.67     523.00      22.87
 38.77     506.84      22.51
 38.87     559.00      23.64
 38.97     517.00      22.74
 39.07     480.00      21.91
 39.17     469.00      21.66
 39.27     499.00      22.34
 39.37     520.00      22.80
 39.47     553.00      23.52
 39.57     557.00      23.60
 39.67     508.00      22.54
 39.77     525.00      22.91
 39.87     545.00      23.35
 39.97     479.00      21.89
 40.07     480.09      21.91
 40.17     493.60      22.22
 40.27     547.31      23.39
 40.37     495.00      22.25
 40.47     472.00      21.73
 40.57     501.45      22.39
 40.67     523.10      22.87
 40.77     453.00      21.28
 40.87     514.46      22.68
 40.97     527.15      22.96
 41.07     504.00      22.45
 41.17     493.00      22.20
 41.27     535.94      23.15
 41.37     497.81      22.31
 41.47     521.00      22.83
 41.57     506.32      22.50
 41.67     531.05      23.04
 41.77     501.00      22.38
 41.87     474.74      21.79
 41.97     513.88      22.67
 42.07     485.45      22.03
 42.17     517.00      22.74
 42.27     563.00      23.73
 42.37     544.77      23.34
 42.47     549.00      23.43
 42.57     606.52      24.63
 42.67     659.90      25.69
 42.77     578.00      24.04
 42.87     588.00      24.25
 42.97     551.00      23.47
 43.07     541.00      23.26
 43.17     527.00      22.96
 43.27     543.00      23.30
 43.37     553.19      23.52
 43.47     529.00      23.00
 43.57     475.00      21.79
 43.67     476.00      21.82
 43.77     500.00      22.36
 43.87     516.00      22.72
 43.97     500.00      22.36
 44.07     482.00      21.95
 44.17     509.00      22.56
 44.27     492.00      22.18
 44.37     472.64      21.74
 44.47     499.00      22.34
 44.57     477.98      21.86
 44.67     467.00      21.61
 44.77     529.00      23.00
 44.87     492.00      22.18
 44.97     501.00      22.38
 45.07     505.00      22.47
 45.17     477.24      21.85
 45.27     499.00      22.34
 45.37     524.00      22.89
 45.47     517.00      22.74
 45.57     483.00      21.98
 45.67     504.00      22.45
 45.77     512.00      22.63
 45.87     481.00      21.93
 45.97     474.00      21.77
 46.07     501.00      22.38
 46.17     501.02      22.38
 46.27     531.44      23.05
 46.37     515.00      22.69
 46.47     484.00      22.00
 46.57     516.78      22.73
 46.67     512.00      22.63
 46.77     460.59      21.46
 46.87     519.00      22.78
 46.97     476.00      21.82
 47.07     552.00      23.49
 47.17     515.00      22.69
 47.27     537.66      23.19
 47.37     515.00      22.69
 47.47     547.53      23.40
 47.57     529.00      23.00
 47.67     537.00      23.17
 47.77     560.29      23.67
 47.87     587.00      24.23
 47.97     625.00      25.00
 48.07     565.00      23.77
 48.17     533.00      23.09
 48.27     526.19      22.94
 48.37     535.86      23.15
 48.47     511.00      22.61
 48.57     551.00      23.47
 48.67     558.00      23.62
 48.77     553.00      23.52
 48.87     539.11      23.22
 48.97     527.00      22.96
 49.07     511.93      22.63
 49.17     557.00      23.60
 49.27     613.00      24.76
 49.37     543.85      23.32
 49.47     587.00      24.23
 49.57     770.00      27.75
 49.67     786.54      28.05
 49.77     996.42      31.57
 49.87    1358.00      36.85
 49.97    1634.77      40.43
 50.07    2135.00      46.21
 50.17    2345.00      48.43
 50.27    2383.00      48.82
 50.37    2187.00      46.77
 50.47    1885.00      43.42
 50.57    1524.00      39.04
 50.67    1113.03      33.36
 50.77     848.21      29.12
 50.87     777.00      27.87
 50.97     641.13      25.32
 51.07     638.00      25.26
 51.17     603.00      24.56
 51.27     566.30      23.80
 51.37     541.41      23.27
 51.47     584.00      24.17
 51.57     550.00      23.45
 51.67     572.00      23.92
 51.77     551.32      23.48
 51.87     582.00      24.12
 51.97     539.00      23.22
 52.07     545.31      23.35
 52.17     543.00      23.30
 52.27     528.00      22.98
 52.37     561.00      23.69
 52.47     590.00      24.29
 52.57     539.41      23.23
 52.67     583.12      24.15
 52.77     612.27      24.74
 52.87     676.00      26.00
 52.97     723.70      26.90
 53.07     755.10      27.48
 53.17     891.70      29.86
 53.27    1011.76      31.81
 53.37    1127.00      33.57
 53.47    1179.61      34.35
 53.57    1249.02      35.34
 53.67    1133.00      33.66
 53.77     976.02      31.24
 53.87     883.00      29.72
 53.97     799.00      28.27
 54.07     656.00      25.61
 54.17     651.00      25.51
 54.27     563.00      23.73
 54.37     612.00      24.74
 54.47     611.00      24.72
 54.57     528.00      22.98
 54.67     583.00      24.15
 54.77     600.00      24.49
 54.87     562.00      23.71
 54.97     542.00      23.28
 55.07     643.00      25.36
 55.17     571.88      23.91
 55.27     575.00      23.98
 55.37     580.78      24.10
 55.47     524.75      22.91
 55.57     540.28      23.24
 55.67     583.29      24.15
 55.77     617.00      24.84
 55.87     607.22      24.64
 55.97     623.00      24.96
 56.07     660.84      25.71
 56.17     765.00      27.66
 56.27     874.63      29.57
 56.37    1070.00      32.71
 56.47    1350.00      36.74
 56.57    1668.00      40.84
 56.67    2032.00      45.08
 56.77    2454.13      49.54
 56.87    2551.34      50.51
 56.97    2505.24      50.05
 57.07    2372.01      48.70
 57.17    2142.00      46.28
 57.27    1762.99      41.99
 57.37    1477.55      38.44
 57.47    1087.87      32.98
 57.57     928.00      30.46
 57.67     810.00      28.46
 57.77     707.00      26.59
 57.87     666.83      25.82
 57.97     683.00      26.13
 58.07     672.38      25.93
 58.17     706.00      26.57
 58.27     754.00      27.46
 58.37     785.91      28.03
 58.47     870.00      29.50
 58.57     968.00      31.11
 58.67    1131.63      33.64
 58.77    1131.00      33.63
 58.87    1220.00      34.93
 58.97    1270.07      35.64
 59.07    1289.86      35.91
 59.17    1325.04      36.40
 59.27    1288.08      35.89
 59.37    1257.86      35.47
 59.47    1265.00      35.57
 59.57    1087.05      32.97
 59.67    1109.00      33.30
 59.77    1190.00      34.50
 59.87    1138.62      33.74
 59.97    1250.78      35.37
 60.07    1427.00      37.78
 60.17    1548.00      39.34
 60.27    1600.04      40.00
 60.37    1519.00      38.97
 60.47    1430.00      37.82
 60.57    1213.00      34.83
 60.67    1099.00      33.15
 60.77     937.98      30.63
 60.87     838.59      28.96
 60.97     748.00      27.35
 61.07     723.00      26.89
 61.17     641.69      25.33
 61.27     630.53      25.11
 61.37     697.38      26.41
 61.47     656.00      25.61
 61.57     739.82      27.20
 61.67     790.40      28.11
 61.77     918.00      30.30
 61.87    1125.85      33.55
 61.97    1239.93      35.21
 62.07    1372.98      37.05
 62.17    1381.43      37.17
 62.27    1384.21      37.20
 62.37    1253.00      35.40
 62.47    1272.00      35.67
 62.57    1025.00      32.02
 62.67    1013.18      31.83
 62.77     796.46      28.22
 62.87     691.00      26.29
 62.97     674.00      25.96
 63.07     618.00      24.86
 63.17     573.00      23.94
 63.27     556.00      23.58
 63.37     530.86      23.04
 63.47     557.00      23.60
 63.57     574.00      23.96
 63.67     584.00      24.17
 63.77     549.87      23.45
 63.87     639.00      25.28
 63.97     673.00      25.94
 64.07     665.00      25.79
 64.17     782.00      27.96
 64.27     839.00      28.97
 64.37     881.79      29.69
 64.47     911.95      30.20
 64.57     945.88      30.76
 64.67    1007.00      31.73
 64.77    1058.03      32.53
 64.87     994.00      31.53
 64.97     943.00      30.71
 65.07     830.32      28.82
 65.17     797.00      28.23
 65.27     745.00      27.29
 65.37     663.00      25.75
 65.47     641.00      25.32
 65.57     647.00      25.44
 65.67     631.00      25.12
 65.77     568.00      23.83
 65.87     587.96      24.25
 65.97     598.16      24.46
 66.07     527.00      22.96
 66.17     537.00      23.17
 66.27     576.00      24.00
 66.37     586.00      24.21
 66.47     562.59      23.72
 66.57     605.90      24.61
 66.67     558.00      23.62
 66.77     556.00      23.58
 66.87     577.19      24.02
 66.97     571.00      23.90
 67.07     598.00      24.45
 67.17     702.00      26.50
 67.27     764.00      27.64
 67.37     874.46      29.57
 67.47    1033.94      32.15
 67.57    1269.32      35.63
 67.67    1490.00      38.60
 67.77    1734.99      41.65
 67.87    1986.00      44.56
 67.97    2168.00      46.56
 68.07    2326.00      48.23
 68.17    2384.19      48.83
 68.27    2270.03      47.64
 68.37    2113.00      45.97
 68.47    1979.00      44.49
 68.57    1589.00      39.86
 68.67    1330.21      36.47
 68.77    1133.00      33.66
 68.87     975.00      31.22
 68.97     830.18      28.81
 69.07     744.00      27.28
 69.17     706.41      26.58
 69.27     663.00      25.75
 69.37     639.00      25.28
 69.47     564.00      23.75
 69.57     595.49      24.40
 69.67     608.77      24.67
 69.77     548.00      23.41
 69.87     602.00      24.54
 69.97     556.00      23.58
 70.07     549.00      23.43
 70.17     558.66      23.64
 70.27     606.00      24.62
 70.37     588.00      24.25
 70.47     590.00      24.29
 70.57     545.00      23.35
 70.67     544.80      23.34
 70.77     616.12      24.82
 70.87     601.77      24.53
 70.97     641.00      25.32
 71.07     643.00      25.36
 71.17     730.00      27.02
 71.27     850.00      29.15
 71.37     904.00      30.07
 71.47    1057.00      32.51
 71.57    1208.22      34.76
 71.67    1462.30      38.24
 71.77    1528.00      39.09
 71.87    1691.00      41.12
 71.97    1881.00      43.37
 72.07    1923.00      43.85
 72.17    1894.00      43.52
 72.27    1807.00      42.51
 72.37    1663.00      40.78
 72.47    1513.57      38.90
 72.57    1337.00      36.57
 72.67    1153.86      33.97
 72.77    1015.84      31.87
 72.87     973.38      31.20
 72.97     815.00      28.55
 73.07     757.00      27.51
 73.17     708.79      26.62
 73.27     666.16      25.81
 73.37     666.00      25.81
 73.47     680.59      26.09
 73.57     587.46      24.24
 73.67     601.64      24.53
 73.77     615.00      24.80
 73.87     580.00      24.08
 73.97     623.00      24.96
 74.07     583.00      24.15
 74.17     574.00      23.96
 74.27     593.00      24.35
 74.37     584.00      24.17
 74.47     609.00      24.68
 74.57     627.00      25.04
 74.67     602.00      24.54
 74.77     654.00      25.57
 74.87     628.00      25.06
 74.97     670.00      25.88
 75.07     611.00      24.72
 75.17     641.00      25.32
 75.27     594.00      24.37
 75.37     588.00      24.25
 75.47     561.00      23.69
 75.57     570.52      23.89
 75.67     548.00      23.41
 75.77     526.00      22.93
 75.87     634.00      25.18
 75.97     651.00      25.51
 76.07     639.00      25.28
 76.17     630.00      25.10
 76.27     685.00      26.17
 76.37     671.00      25.90
 76.47     643.00      25.36
 76.57     699.59      26.45
 76.67     655.52      25.60
 76.77     706.00      26.57
 76.87     701.21      26.48
 76.97     673.59      25.95
 77.07     604.00      24.58
 77.17     615.00      24.80
 77.27     594.16      24.38
 77.37     558.91      23.64
 77.47     544.57      23.34
 77.57     521.00      22.83
 77.67     553.00      23.52
 77.77     526.34      22.94
 77.87     483.00      21.98
 77.97     506.00      22.49
 78.07     523.00      22.87
 78.17     516.38      22.72
 78.27     488.85      22.11
 78.37     522.00      22.85
 78.47     544.00      23.32
 78.57     514.00      22.67
 78.67     494.00      22.23
 78.77     558.00      23.62
 78.87     507.00      22.52
 78.97     532.00      23.07
 79.07     502.00      22.41
 79.17     505.59      22.49
 79.27     514.00      22.67
 79.37     528.03      22.98
 79.47     507.00      22.52
 79.57     547.00      23.39
 79.67     574.00      23.96
 79.77     547.00      23.39
 79.87     526.00      22.93
 79.97     520.00      22.80
 80.07     539.00      23.22
 80.17     532.59      23.08
 80.27     545.68      23.36
 80.37     606.39      24.63
 80.47     582.84      24.14
 80.57     571.00      23.90
 80.67     592.00      24.33
 80.77     612.48      24.75
 80.87     641.00      25.32
 80.97     739.21      27.19
 81.07     707.00      26.59
 81.17     737.00      27.15
 81.27     766.00      27.68
 81.37     762.00      27.60
 81.47     698.13      26.42
 81.57     766.00      27.68
 81.67     770.88      27.76
 81.77     738.55      27.18
 81.87     676.00      26.00
 81.97     696.00      26.38
 82.07     713.00      26.70
 82.17     619.00      24.88
 82.27     670.00      25.88
 82.37     648.00      25.46
 82.47     622.00      24.94
 82.57     621.00      24.92
 82.67     597.00      24.43
 82.77     607.63      24.65
 82.87     525.00      22.91
 82.97     573.53      23.95
 83.07     556.15      23.58
 83.17     556.31      23.59
 83.27     564.00      23.75
 83.37     502.00      22.41
 83.47     549.00      23.43
 83.57     561.00      23.69
 83.67     609.68      24.69
 83.77     581.63      24.12
 83.87     612.00      24.74
 83.97     558.00      23.62
 84.07     530.39      23.03
 84.17     550.00      23.45
 84.27     532.00      23.07
 84.37     599.00      24.47
 84.47     585.13      24.19
 84.57     516.89      22.74
 84.67     588.88      24.27
 84.77     551.00      23.47
 84.87     503.00      22.43
 84.97     529.00      23.00
 85.07     499.00      22.34
 85.17     557.55      23.61
 85.27     548.00      23.41
 85.37     548.40      23.42
 85.47     515.00      22.69
 85.57     522.00      22.85
 85.67     539.00      23.22
 85.77     492.00      22.18
 85.87     518.00      22.76
 85.97     496.00      22.27
 86.07     487.72      22.08
 86.17     498.00      22.32
 86.27     525.98      22.93
 86.37     532.08      23.07
 86.47     581.70      24.12
 86.57     587.60      24.24
 86.67     602.00      24.54
 86.77     530.93      23.04
 86.87     552.25      23.50
 86.97     614.00      24.78
 87.07     639.00      25.28
 87.17     654.00      25.57
 87.27     586.00      24.21
 87.37     656.00      25.61
 87.47     652.00      25.53
 87.57     645.00      25.40
 87.67     618.00      24.86
 87.77     596.00      24.41
 87.87     643.69      25.37
 87.97     631.21      25.12
 88.07     599.00      24.47
 88.17     594.00      24.37
 88.27     604.00      24.58
 88.37     594.00      24.37
 88.47     606.75      24.63
 88.57     552.00      23.49
 88.67     551.00      23.47
 88.77     637.00      25.24
 88.87     570.00      23.87
 88.97     610.19      24.70
 89.07     613.00      24.76
 89.17     597.00      24.43
 89.27     618.00      24.86
 89.37     633.74      25.17
 89.47     611.00      24.72
 89.57     558.13      23.62
 89.67     557.34      23.61
 89.77     599.48      24.48
 89.87     551.00      23.47
 89.97     528.00      22.98
 90.07     537.00      23.17
 90.17     567.27      23.82
 90.27     518.00      22.76
 90.37     501.00      22.38
 90.47     520.00      22.80
 90.57     512.00      22.63
 90.67     549.00      23.43
 90.77     524.42      22.90
 90.87     473.00      21.75
 90.97     526.00      22.93
 91.07     552.29      23.50
 91.17     505.49      22.48
 91.27     522.00      22.85
 91.37     476.00      21.82
 91.47     496.00      22.27
 91.57     558.00      23.62
 91.67     565.00      23.77
 91.77     548.89      23.43
 91.87     519.00      22.78
 91.97     573.00      23.94
 92.07     520.37      22.81
 92.17     531.49      23.05
 92.27     577.00      24.02
 92.37     625.06      25.00
 92.47     648.10      25.46
 92.57     628.00      25.06
 92.67     672.00      25.92
 92.77     668.00      25.85
 92.87     677.14      26.02
 92.97     742.67      27.25
 93.07     734.00      27.09
 93.17     761.00      27.59
 93.27     780.51      27.94
 93.37     772.00      27.78
 93.47     738.00      27.17
 93.57     774.80      27.84
 93.67     818.27      28.61
 93.77     770.67      27.76
 93.87     808.58      28.44
 93.97     816.17      28.57
 94.07     820.00      28.64
 94.17     860.95      29.34
 94.27     809.46      28.45
 94.37     881.00      29.68
 94.47     831.00      28.83
 94.57     937.00      30.61
 94.67     833.29      28.87
 94.77     904.07      30.07
 94.87     905.00      30.08
 94.97     915.00      30.25
 95.07     891.00      29.85
 95.17     869.00      29.48
 95.27     852.00      29.19
 95.37     838.00      28.95
 95.47     801.00      28.30
 95.57     832.00      28.84
 95.67     720.41      26.84
 95.77     696.00      26.38
 95.87     690.14      26.27
 95.97     738.00      27.17
 96.07     678.74      26.05
 96.17     695.00      26.36
 96.27     699.24      26.44
 96.37     785.00      28.02
 96.47     812.00      28.50
 96.57     804.02      28.36
 96.67     906.00      30.10
 96.77    1025.53      32.02
 96.87    1052.39      32.44
 96.97    1065.00      32.63
 97.07    1212.55      34.82
 97.17    1225.00      35.00
 97.27    1369.14      37.00
 97.37    1346.00      36.69
 97.47    1403.00      37.46
 97.57    1478.00      38.44
 97.67    1402.53      37.45
 97.77    1390.00      37.28
 97.87    1397.00      37.38
 97.97    1372.00      37.04
 98.07    1333.00      36.51
 98.17    1221.00      34.94
 98.27    1148.00      33.88
 98.37    1088.12      32.99
 98.47    1032.31      32.13
 98.57     982.31      31.34
 98.67     880.76      29.68
 98.77     904.46      30.07
 98.87     824.64      28.72
 98.97     815.98      28.57
 99.07     806.93      28.41
 99.17     866.00      29.43
 99.27     893.26      29.89
 99.37     897.00      29.95
 99.47    1016.60      31.88
 99.57    1040.73      32.26
 99.67    1160.00      34.06
 99.77    1294.57      35.98
 99.87    1364.00      36.93
 99.97    1510.71      38.87
100.07    1590.00      39.87
100.17    1670.00      40.87
100.27    1742.00      41.74
100.37    1784.94      42.25
100.47    1921.00      43.83
100.57    1992.00      44.63
100.67    1969.00      44.37
100.77    1940.11      44.05
100.87    2024.69      45.00
100.97    1894.00      43.52
101.07    1957.00      44.24
101.17    1891.00      43.49
101.27    1848.29      42.99
101.37    1702.40      41.26
101.47    1690.00      41.11
101.57    1599.32      39.99
101.67    1423.00      37.72
101.77    1436.00      37.89
101.87    1417.00      37.64
101.97    1266.90      35.59
102.07    1278.00      35.75
102.17    1213.00      34.83
102.27    1180.79      34.36
102.37    1171.29      34.22
102.47    1184.00      34.41
102.57    1178.04      34.32
102.67    1073.00      32.76
102.77    1047.94      32.37
102.87    1068.00      32.68
102.97     944.64      30.74
103.07     959.00      30.97
103.17     916.00      30.27
103.27     898.00      29.97
103.37     809.33      28.45
103.47     752.05      27.42
103.57     835.00      28.90
103.67     714.27      26.73
103.77     741.34      27.23
103.87     658.40      25.66
103.97     595.92      24.41
104.07     644.00      25.38
104.17     628.00      25.06
104.27     578.00      24.04
104.37     604.00      24.58
104.47     581.00      24.10
104.57     597.00      24.43
104.67     574.12      23.96
104.77     563.00      23.73
104.87     532.74      23.08
104.97     577.00      24.02
105.07     510.00      22.58
105.17     560.73      23.68
105.27     541.00      23.26
105.37     513.42      22.66
105.47     507.60      22.53
105.57     502.11      22.41
105.67     563.11      23.73
105.77     501.00      22.38
105.87     569.00      23.85
105.97     554.00      23.54
106.07     527.00      22.96
106.17     611.15      24.72
106.27     607.00      24.64
106.37     598.00      24.45
106.47     624.12      24.98
106.57     615.00      24.80
106.67     611.00      24.72
106.77     611.17      24.72
106.87     628.00      25.06
106.97     642.00      25.34
107.07     660.00      25.69
107.17     646.63      25.43
107.27     715.08      26.74
107.37     640.00      25.30
107.47     672.01      25.92
107.57     698.84      26.44
107.67     659.00      25.67
107.77     740.59      27.21
107.87     695.00      26.36
107.97     654.00      25.57
108.07     632.00      25.14
108.17     683.00      26.13
108.27     712.40      26.69
108.37     651.00      25.51
108.47     729.00      27.00
108.57     685.00      26.17
108.67     681.00      26.10
108.77     693.34      26.33
108.87     655.92      25.61
108.97     680.04      26.08
109.07     678.00      26.04
109.17     699.00      26.44
109.27     669.28      25.87
109.37     670.00      25.88
109.47     627.62      25.05
109.57     657.00      25.63
109.67     667.06      25.83
109.77     615.00      24.80
109.87     635.09      25.20
109.97     591.00      24.31
110.07     611.00      24.72
110.17     615.63      24.81
110.27     557.10      23.60
110.37     562.00      23.71
110.47     581.00      24.10
110.57     591.00      24.31
110.67     559.27      23.65
110.77     587.00      24.23
110.87     544.38      23.33
110.97     553.00      23.52
111.07     538.00      23.19
111.17     564.00      23.75
111.27     513.55      22.66
111.37     513.67      22.66
111.47     545.78      23.36
111.57     505.09      22.47
111.67     503.99      22.45
111.77     543.00      23.30
111.87     529.39      23.01
111.97     559.00      23.64
112.07     582.00      24.12
112.17     577.00      24.02
112.27     573.24      23.94
112.37     574.00      23.96
112.47     535.00      23.13
112.57     628.96      25.08
112.67     586.30      24.21
112.77     609.00      24.68
112.87     605.00      24.60
112.97     643.25      25.36
113.07     640.82      25.31
113.17     597.93      24.45
113.27     623.00      24.96
113.37     651.00      25.51
113.47     689.61      26.26
113.57     666.00      25.81
113.67     717.00      26.78
113.77     710.00      26.65
113.87     771.44      27.77
113.97     823.00      28.69
114.07     914.36      30.24
114.17     970.86      31.16
114.27     948.00      30.79
114.37     960.00      30.98
114.47    1106.00      33.26
114.57    1193.24      34.54
114.67    1415.00      37.62
114.77    1563.00      39.53
114.87    1739.00      41.70
114.97    1787.52      42.28
115.07    2172.00      46.60
115.17    2377.00      48.75
115.27    2656.06      51.54
115.37    2827.74      53.18
115.47    3229.19      56.83
115.57    3498.70      59.15
115.67    4015.00      63.36
115.77    4334.30      65.84
115.87    4633.00      68.07
115.97    5033.00      70.94
116.07    5380.63      73.35
116.17    5759.00      75.89
116.27    6113.00      78.19
116.37    6404.23      80.03
116.47    6363.93      79.77
116.57    6723.00      81.99
116.67    6844.00      82.73
116.77    6861.00      82.83
116.87    6640.00      81.49
116.97    6577.01      81.10
117.07    6373.00      79.83
117.17    6219.25      78.86
117.27    5873.00      76.64
117.37    5556.56      74.54
117.47    5205.00      72.15
117.57    4783.00      69.16
117.67    4595.00      67.79
117.77    4311.73      65.66
117.87    3826.43      61.86
117.97    3622.00      60.18
118.07    3078.00      55.48
118.17    2766.75      52.60
118.27    2369.00      48.67
118.37    2318.48      48.15
118.47    1957.00      44.24
118.57    1796.74      42.39
118.67    1617.00      40.21
118.77    1445.00      38.01
118.87    1263.00      35.54
118.97    1200.71      34.65
119.07    1021.00      31.95
119.17    1026.00      32.03
119.27     890.77      29.85
119.37     835.00      28.90
119.47     799.73      28.28
119.57     705.00      26.55
119.67     717.91      26.79
119.77     715.00      26.74
119.87     704.00      26.53
119.97     700.00      26.46
120.07     644.72      25.39
120.17     598.00      24.45
120.27     598.00      24.45
120.37     568.00      23.83
120.47     598.00      24.45
120.57     586.00      24.21
120.67     605.86      24.61
120.77     596.00      24.41
120.87     543.23      23.31
120.97     565.00      23.77
121.07     542.00      23.28
121.17     606.62      24.63
121.27     560.00      23.66
121.37     626.04      25.02
121.47     610.00      24.70
121.57     617.00      24.84
121.67     578.57      24.05
121.77     571.00      23.90
121.87     640.00      25.30
121.97     571.00      23.90
122.07     582.00      24.12
122.17     621.68      24.93
122.27     615.00      24.80
122.37     602.02      24.54
122.47     621.00      24.92
122.57     661.00      25.71
122.67     637.00      25.24
122.77     649.00      25.48
122.87     630.00      25.10
122.97     623.00      24.96
123.07     628.00      25.06
123.17     623.00      24.96
123.27     626.77      25.04
123.37     635.00      25.20
123.47     611.00      24.72
123.57     628.00      25.06
123.67     600.02      24.50
123.77     631.09      25.12
123.87     634.00      25.18
123.97     581.45      24.11
124.07     606.00      24.62
124.17     590.00      24.29
124.27     624.00      24.98
124.37     612.00      24.74
124.47     641.00      25.32
124.57     590.00      24.29
124.67     591.00      24.31
124.77     572.93      23.94
124.87     619.94      24.90
124.97     586.00      24.21
