  9.97     654.00      25.57
 10.07     661.00      25.71
 10.17     647.00      25.44
 10.27     627.00      25.04
 10.37     686.00      26.19
 10.47     620.57      24.91
 10.57     645.00      25.40
 10.67     732.00      27.06
 10.77     683.35      26.14
 10.87     631.58      25.13
 10.97     639.46      25.29
 11.07     602.50      24.55
 11.17     692.00      26.31
 11.27     671.00      25.90
 11.37     693.87      26.34
 11.47     652.54      25.54
 11.57     694.00      26.34
 11.67     717.00      26.78
 11.77     671.28      25.91
 11.87     727.00      26.96
 11.97     762.00      27.60
 12.07     802.00      28.32
 12.17     799.00      28.27
 12.27     758.00      27.53
 12.37     790.00      28.11
 12.47     788.48      28.08
 12.57     674.21      25.97
 12.67     645.31      25.40
 12.77     628.00      25.06
 12.87     639.89      25.30
 12.97     622.00      24.94
 13.07     611.00      24.72
 13.17     601.00      24.52
 13.27     597.71      24.45
 13.37     691.00      26.29
 13.47     652.00      25.53
 13.57     608.00      24.66
 13.67     676.71      26.01
 13.77     609.00      24.68
 13.87     590.03      24.29
 13.97     620.00      24.90
 14.07     638.00      25.26
 14.17     638.00      25.26
 14.27     639.00      25.28
 14.37     657.00      25.63
 14.47     584.18      24.17
 14.57     631.00      25.12
 14.67     620.34      24.91
 14.77     606.00      24.62
 14.87     585.00      24.19
 14.97     574.00      23.96
 15.07     577.57      24.03
 15.17     596.00      24.41
 15.27     594.00      24.37
 15.37     628.09      25.06
 15.47     603.00      24.56
 15.57     610.00      24.70
 15.67     589.00      24.27
 15.77     612.00      24.74
 15.87     575.00      23.98
 15.97     590.25      24.30
 16.07     618.00      24.86
 16.17     606.00      24.62
 16.27     677.00      26.02
 16.37     581.00      24.10
 16.47     571.30      23.90
 16.57     576.00      24.00
 16.67     657.67      25.65
 16.77     611.00      24.72
 16.87     633.96      25.18
 16.97     592.00      24.33
 17.07     625.31      25.01
 17.17     663.86      25.77
 17.27     594.00      24.37
 17.37     608.00      24.66
 17.47     636.00      25.22
 17.57     593.00      24.35
 17.67     572.95      23.94
 17.77     605.00      24.60
 17.87     592.59      24.34
 17.97     595.00      24.39
 18.07     622.00      24.94
 18.17     587.00      24.23
 18.27     605.93      24.62
 18.37     609.00      24.68
 18.47     651.10      25.52
 18.57     599.00      24.47
 18.67     569.68      23.87
 18.77     576.78      24.02
 18.87     583.93      24.16
 18.97     599.00      24.47
 19.07     582.30      24.13
 19.17     633.00      25.16
 19.27     567.00      23.81
 19.37     573.00      23.94
 19.47     619.00      24.88
 19.57     645.33      25.40
 19.67     629.25      25.08
 19.77     570.00      23.87
 19.87     594.00      24.37
 19.97     614.00      24.78
 20.07     589.99      24.29
 20.17     557.00      23.60
 20.27     590.00      24.29
 20.37     544.00      23.32
 20.47     603.00      24.56
 20.57     619.00      24.88
 20.67     591.03      24.31
 20.77     608.00      24.66
 20.87     650.69      25.51
 20.97     552.00      23.49
 21.07     543.00      23.30
 21.17     592.00      24.33
 21.27     629.88      25.10
 21.37     555.75      23.57
 21.47     635.85      25.22
 21.57     572.00      23.92
 21.67     590.00      24.29
 21.77     579.00      24.06
 21.87     599.00      24.47
 21.97     626.96      25.04
 22.07     593.00      24.35
 22.17     632.34      25.15
 22.27     621.00      24.92
 22.37     592.00      24.33
 22.47     633.00      25.16
 22.57     619.00      24.88
 22.67     643.00      25.36
 22.77     580.29      24.09
 22.87     570.00      23.87
 22.97     623.00      24.96
 23.07     572.00      23.92
 23.17     610.00      24.70
 23.27     628.00      25.06
 23.37     582.00      24.12
 23.47     592.00      24.33
 23.57     605.58      24.61
 23.67     618.00      24.86
 23.77     615.32      24.81
 23.87     585.00      24.19
 23.97     606.98      24.64
 24.07     603.00      24.56
 24.17     563.61      23.74
 24.27     648.00      25.46
 24.37     599.77      24.49
 24.47     627.00      25.04
 24.57     622.68      24.95
 24.67     684.00      26.15
 24.77     711.00      26.66
 24.87     724.74      26.92
 24.97     730.62      27.03
 25.07     695.38      26.37
 25.17     670.00      25.88
 25.27     625.00      25.00
 25.37     623.00      24.96
 25.47     568.42      23.84
 25.57     658.00      25.65
 25.67     614.36      24.79
 25.77     586.00      24.21
 25.87     587.00      24.23
 25.97     654.00      25.57
 26.07     596.09      24.41
 26.17     621.00      24.92
 26.27     619.70      24.89
 26.37     615.51      24.81
 26.47     644.00      25.38
 26.57     653.98      25.57
 26.67     627.26      25.05
 26.77     576.28      24.01
 26.87     652.72      25.55
 26.97     624.22      24.98
 27.07     696.00      26.38
 27.17     681.50      26.11
 27.27     657.55      25.64
 27.37     722.00      26.87
 27.47     706.00      26.57
 27.57     741.00      27.22
 27.67     722.00      26.87
 27.77     794.00      28.18
 27.87     900.00      30.00
 27.97    1175.27      34.28
 28.07    1551.00      39.38
 28.17    2300.00      47.96
 28.27    3288.00      57.34
 28.37    3935.00      62.73
 28.47    3917.00      62.59
 28.57    3394.71      58.26
 28.67    2630.46      51.29
 28.77    1905.00      43.65
 28.87    1971.00      44.40
 28.97    2264.94      47.59
 29.07    2490.00      49.90
 29.17    2424.00      49.23
 29.27    1938.52      44.03
 29.37    1636.00      40.45
 29.47    1135.13      33.69
 29.57     909.23      30.15
 29.67     911.00      30.18
 29.77     702.49      26.50
 29.87     777.00      27.87
 29.97     701.00      26.48
 30.07     688.00      26.23
 30.17     609.88      24.70
 30.27     704.00      26.53
 30.37     578.79      24.06
 30.47     717.00      26.78
 30.57     578.52      24.05
 30.67     665.34      25.79
 30.77     678.00      26.04
 30.87     637.12      25.24
 30.97     651.29      25.52
 31.07     730.00      27.02
 31.17     735.00      27.11
 31.27     638.97      25.28
 31.37     685.00      26.17
 31.47     622.00      24.94
 31.57     561.76      23.70
 31.67     640.00      25.30
 31.77     605.18      24.60
 31.87     631.00      25.12
 31.97     623.00      24.96
 32.07     596.00      24.41
 32.17     604.00      24.58
 32.27     608.00      24.66
 32.37     604.00      24.58
 32.47     636.00      25.22
 32.57     579.00      24.06
 32.67     627.00      25.04
 32.77     567.23      23.82
 32.87     632.00      25.14
 32.97     629.00      25.08
 33.07     534.04      23.11
 33.17     588.00      24.25
 33.27     598.55      24.47
 33.37     570.00      23.87
 33.47     666.00      25.81
 33.57     582.58      24.14
 33.67     642.00      25.34
 33.77     649.12      25.48
 33.87     759.00      27.55
 33.97     875.00      29.58
 34.07     930.97      30.51
 34.17    1110.53      33.32
 34.27    1085.97      32.95
 34.37    1126.00      33.56
 34.47     904.05      30.07
 34.57     818.00      28.60
 34.67     734.00      27.09
 34.77     650.00      25.50
 34.87     579.20      24.07
 34.97     600.00      24.49
 35.07     622.00      24.94
 35.17     629.00      25.08
 35.27     603.00      24.56
 35.37     585.00      24.19
 35.47     607.17      24.64
 35.57     559.26      23.65
 35.67     581.00      24.10
 35.77     551.00      23.47
 35.87     569.00      23.85
 35.97     597.00      24.43
 36.07     531.00      23.04
 36.17     532.00      23.07
 36.27     517.82      22.76
 36.37     570.30      23.88
 36.47     524.00      22.89
 36.57     517.00      22.74
 36.67     550.48      23.46
 36.77     545.00      23.35
 36.87     528.36      22.99
 36.97     573.00      23.94
 37.07     598.24      24.46
 37.17     563.00      23.73
 37.27     541.00      23.26
 37.37     506.00      22.49
 37.47     564.63      23.76
 37.57     575.00      23.98
 37.67     572.00      23.92
 37.77     578.00      24.04
 37.87     598.54      24.47
 37.97     643.00      25.36
 38.07     604.88      24.59
 38.17     641.42      25.33
 38.27     663.00      25.75
 38.37     638.00      25.26
 38.47     564.00      23.75
 38.57     607.51      24.65
 38.67     632.17      25.14
 38.77     593.00      24.35
 38.87     565.08      23.77
 38.97     544.00      23.32
 39.07     576.00      24.00
 39.17     537.00      23.17
 39.27     596.54      24.42
 39.37     590.97      24.31
 39.47     555.00      23.56
 39.57     567.25      23.82
 39.67     541.49      23.27
 39.77     559.00      23.64
 39.87     550.00      23.45
 39.97     561.00      23.69
 40.07     530.00      23.02
 40.17     582.85      24.14
 40.27     515.00      22.69
 40.37     551.00      23.47
 40.47     544.70      23.34
 40.57     574.00      23.96
 40.67     528.00      22.98
 40.77     593.15      24.35
 40.87     523.61      22.88
 40.97     552.64      23.51
 41.07     514.00      22.67
 41.17     512.00      22.63
 41.27     526.10      22.94
 41.37     492.00      22.18
 41.47     556.00      23.58
 41.57     574.72      23.97
 41.67     574.00      23.96
 41.77     533.00      23.09
 41.87     542.39      23.29
 41.97     544.00      23.32
 42.07     542.00      23.28
 42.17     508.81      22.56
 42.27     547.00      23.39
 42.37     605.09      24.60
 42.47     612.59      24.75
 42.57     579.33      24.07
 42.67     575.07      23.98
 42.77     613.00      24.76
 42.87     665.97      25.81
 42.97     656.00      25.61
 43.07     616.24      24.82
 43.17     590.00      24.29
 43.27     515.00      22.69
 43.37     606.48      24.63
 43.47     550.00      23.45
 43.57     553.00      23.52
 43.67     560.00      23.66
 43.77     548.00      23.41
 43.87     532.00      23.07
 43.97     559.00      23.64
 44.07     553.00      23.52
 44.17     522.82      22.87
 44.27     554.00      23.54
 44.37     557.00      23.60
 44.47     528.00      22.98
 44.57     522.10      22.85
 44.67     586.73      24.22
 44.77     536.00      23.15
 44.87     535.00      23.13
 44.97     506.26      22.50
 45.07     575.00      23.98
 45.17     591.48      24.32
 45.27     604.00      24.58
 45.37     578.34      24.05
 45.47     586.40      24.22
 45.57     583.00      24.15
 45.67     552.00      23.49
 45.77     594.00      24.37
 45.87     578.00      24.04
 45.97     568.00      23.83
 46.07     582.85      24.14
 46.17     547.00      23.39
 46.27     546.00      23.37
 46.37     525.37      22.92
 46.47     515.00      22.69
 46.57     562.00      23.71
 46.67     507.00      22.52
 46.77     574.00      23.96
 46.87     550.25      23.46
 46.97     532.00      23.07
 47.07     523.00      22.87
 47.17     495.00      22.25
 47.27     566.00      23.79
 47.37     572.00      23.92
 47.47     533.57      23.10
 47.57     542.25      23.29
 47.67     581.00      24.10
 47.77     605.81      24.61
 47.87     605.31      24.60
 47.97     608.00      24.66
 48.07     663.00      25.75
 48.17     583.00      24.15
 48.27     689.00      26.25
 48.37     611.00      24.72
 48.47     580.00      24.08
 48.57     627.00      25.04
 48.67     543.00      23.30
 48.77     610.00      24.70
 48.87     621.00      24.92
 48.97     621.45      24.93
 49.07     610.00      24.70
 49.17     580.39      24.09
 49.27     601.00      24.52
 49.37     593.01      24.35
 49.47     602.95      24.55
 49.57     624.00      24.98
 49.67     666.94      25.83
 49.77     760.62      27.58
 49.87     883.10      29.72
 49.97    1078.00      32.83
 50.07    1308.00      36.17
 50.17    1759.00      41.94
 50.27    2272.00      47.67
 50.37    2582.81      50.82
 50.47    2804.00      52.95
 50.57    2620.00      51.19
 50.67    2299.16      47.95
 50.77    1988.78      44.60
 50.87    1438.00      37.92
 50.97    1158.00      34.03
 51.07     905.00      30.08
 51.17     820.00      28.64
 51.27     727.00      26.96
 51.37     738.90      27.18
 51.47     666.00      25.81
 51.57     632.00      25.14
 51.67     680.00      26.08
 51.77     681.62      26.11
 51.87     593.00      24.35
 51.97     634.00      25.18
 52.07     636.00      25.22
 52.17     568.07      23.83
 52.27     604.92      24.60
 52.37     670.00      25.88
 52.47     649.00      25.48
 52.57     599.00      24.47
 52.67     602.00      24.54
 52.77     620.00      24.90
 52.87     620.00      24.90
 52.97     620.46      24.91
 53.07     686.64      26.20
 53.17     696.00      26.38
 53.27     790.00      28.11
 53.37     817.72      28.60
 53.47     993.00      31.51
 53.57    1094.16      33.08
 53.67    1147.50      33.87
 53.77    1221.96      34.96
 53.87    1293.00      35.96
 53.97    1209.00      34.77
 54.07    1137.00      33.72
 54.17     968.00      31.11
 54.27     930.00      30.50
 54.37     806.00      28.39
 54.47     748.00      27.35
 54.57     691.00      26.29
 54.67     666.00      25.81
 54.77     613.46      24.77
 54.87     657.00      25.63
 54.97     594.52      24.38
 55.07     663.00      25.75
 55.17     593.00      24.35
 55.27     610.00      24.70
 55.37     605.00      24.60
 55.47     619.00      24.88
 55.57     611.00      24.72
 55.67     632.00      25.14
 55.77     635.00      25.20
 55.87     655.00      25.59
 55.97     607.84      24.65
 56.07     703.36      26.52
 56.17     676.53      26.01
 56.27     773.30      27.81
 56.37     826.69      28.75
 56.47     929.00      30.48
 56.57    1108.29      33.29
 56.67    1325.16      36.40
 56.77    1560.40      39.50
 56.87    1930.88      43.94
 56.97    2133.52      46.19
 57.07    2518.00      50.18
 57.17    2697.00      51.93
 57.27    2630.00      51.28
 57.37    2474.00      49.74
 57.47    2164.00      46.52
 57.57    1834.36      42.83
 57.67    1407.00      37.51
 57.77    1249.84      35.35
 57.87    1045.57      32.34
 57.97     948.00      30.79
 58.07     835.00      28.90
 58.17     755.00      27.48
 58.27     771.00      27.77
 58.37     699.02      26.44
 58.47     745.00      27.29
 58.57     848.00      29.12
 58.67     830.00      28.81
 58.77     957.83      30.95
 58.87     993.00      31.51
 58.97    1121.00      33.48
 59.07    1203.24      34.69
 59.17    1202.00      34.67
 59.27    1262.00      35.52
 59.37    1253.54      35.41
 59.47    1230.00      35.07
 59.57    1292.00      35.94
 59.67    1220.00      34.93
 59.77    1126.00      33.56
 59.87    1148.00      33.88
 59.97    1089.26      33.00
 60.07    1257.00      35.45
 60.17    1291.00      35.93
 60.27    1328.10      36.44
 60.37    1435.00      37.88
 60.47    1594.00      39.92
 60.57    1634.00      40.42
 60.67    1477.00      38.43
 60.77    1501.00      38.74
 60.87    1419.00      37.67
 60.97    1132.50      33.65
 61.07    1016.46      31.88
 61.17     942.00      30.69
 61.27     864.00      29.39
 61.37     789.00      28.09
 61.47     772.00      27.78
 61.57     795.00      28.20
 61.67     820.00      28.64
 61.77     830.00      28.81
 61.87     828.00      28.77
 61.97     939.00      30.64
 62.07    1128.00      33.59
 62.17    1181.00      34.37
 62.27    1333.00      36.51
 62.37    1453.00      38.12
 62.47    1472.00      38.37
 62.57    1468.00      38.31
 62.67    1471.00      38.35
 62.77    1304.00      36.11
 62.87    1143.00      33.81
 62.97    1065.00      32.63
 63.07    1008.37      31.75
 63.17     818.00      28.60
 63.27     703.00      26.51
 63.37     741.44      27.23
 63.47     668.24      25.85
 63.57     661.90      25.73
 63.67     661.00      25.71
 63.77     640.49      25.31
 63.87     618.00      24.86
 63.97     647.85      25.45
 64.07     713.00      26.70
 64.17     653.96      25.57
 64.27     773.05      27.80
 64.37     806.00      28.39
 64.47     875.00      29.58
 64.57     877.04      29.61
 64.67    1019.00      31.92
 64.77    1096.00      33.11
 64.87    1114.80      33.39
 64.97    1208.00      34.76
 65.07    1294.13      35.97
 65.17    1257.00      35.45
 65.27    1161.00      34.07
 65.37    1154.00      33.97
 65.47    1016.00      31.87
 65.57     943.00      30.71
 65.67     852.11      29.19
 65.77     845.73      29.08
 65.87     772.00      27.78
 65.97     738.00      27.17
 66.07     737.13      27.15
 66.17     651.00      25.51
 66.27     686.00      26.19
 66.37     657.00      25.63
 66.47     675.71      25.99
 66.57     599.00      24.47
 66.67     632.00      25.14
 66.77     631.00      25.12
 66.87     603.65      24.57
 66.97     681.78      26.11
 67.07     622.00      24.94
 67.17     627.00      25.04
 67.27     654.00      25.57
 67.37     724.00      26.91
 67.47     733.00      27.07
 67.57     828.00      28.77
 67.67     964.55      31.06
 67.77    1044.53      32.32
 67.87    1221.41      34.95
 67.97    1380.02      37.15
 68.07    1755.00      41.89
 68.17    1914.00      43.75
 68.27    2168.26      46.56
 68.37    2351.00      48.49
 68.47    2500.00      50.00
 68.57    2431.00      49.31
 68.67    2346.00      48.44
 68.77    2224.54      47.17
 68.87    1891.03      43.49
 68.97    1672.00      40.89
 69.07    1429.00      37.80
 69.17    1213.00      34.83
 69.27    1072.19      32.74
 69.37     888.00      29.80
 69.47     853.00      29.21
 69.57     806.00      28.39
 69.67     770.00      27.75
 69.77     641.55      25.33
 69.87     695.96      26.38
 69.97     683.00      26.13
 70.07     664.00      25.77
 70.17     649.00      25.48
 70.27     645.00      25.40
 70.37     632.00      25.14
 70.47     674.12      25.96
 70.57     627.00      25.04
 70.67     598.44      24.46
 70.77     655.00      25.59
 70.87     614.01      24.78
 70.97     621.00      24.92
 71.07     602.70      24.55
 71.17     687.00      26.21
 71.27     697.00      26.40
 71.37     711.87      26.68
 71.47     772.25      27.79
 71.57     863.00      29.38
 71.67     949.00      30.81
 71.77     986.00      31.40
 71.87    1189.00      34.48
 71.97    1287.89      35.89
 72.07    1426.04      37.76
 72.17    1699.00      41.22
 72.27    1707.00      41.32
 72.37    1932.00      43.95
 72.47    1965.90      44.34
 72.57    1899.00      43.58
 72.67    1788.63      42.29
 72.77    1653.00      40.66
 72.87    1518.04      38.96
 72.97    1431.15      37.83
 73.07    1208.00      34.76
 73.17    1059.00      32.54
 73.27     975.28      31.23
 73.37     879.00      29.65
 73.47     799.00      28.27
 73.57     729.51      27.01
 73.67     633.77      25.17
 73.77     685.04      26.17
 73.87     599.00      24.47
 73.97     667.39      25.83
 74.07     601.00      24.52
 74.17     580.00      24.08
 74.27     623.52      24.97
 74.37     630.00      25.10
 74.47     602.66      24.55
 74.57     635.20      25.20
 74.67     602.00      24.54
 74.77     652.00      25.53
 74.87     656.00      25.61
 74.97     629.14      25.08
 75.07     710.00      26.65
 75.17     648.00      25.46
 75.27     628.89      25.08
 75.37     612.47      24.75
 75.47     674.00      25.96
 75.57     666.00      25.81
 75.67     623.91      24.98
 75.77     650.00      25.50
 75.87     623.00      24.96
 75.97     654.97      25.59
 76.07     571.11      23.90
 76.17     640.00      25.30
 76.27     691.90      26.30
 76.37     695.00      26.36
 76.47     677.00      26.02
 76.57     709.88      26.64
 76.67     787.16      28.06
 76.77     815.00      28.55
 76.87     783.00      27.98
 76.97     857.11      29.28
 77.07     837.00      28.93
 77.17     868.00      29.46
 77.27     846.71      29.10
 77.37     807.00      28.41
 77.47     749.00      27.37
 77.57     732.95      27.07
 77.67     667.00      25.83
 77.77     634.41      25.19
 77.87     606.87      24.63
 77.97     605.00      24.60
 78.07     572.00      23.92
 78.17     593.00      24.35
 78.27     565.51      23.78
 78.37     565.00      23.77
 78.47     530.73      23.04
 78.57     575.00      23.98
 78.67     582.00      24.12
 78.77     579.00      24.06
 78.87     569.00      23.85
 78.97     545.00      23.35
 79.07     586.93      24.23
 79.17     602.26      24.54
 79.27     556.00      23.58
 79.37     525.00      22.91
 79.47     529.09      23.00
 79.57     551.00      23.47
 79.67     570.00      23.87
 79.77     578.82      24.06
 79.87     571.20      23.90
 79.97     536.92      23.17
 80.07     572.00      23.92
 80.17     608.00      24.66
 80.27     593.33      24.36
 80.37     620.00      24.90
 80.47     638.61      25.27
 80.57     647.00      25.44
 80.67     699.00      26.44
 80.77     707.00      26.59
 80.87     748.00      27.35
 80.97     791.00      28.12
 81.07     868.26      29.47
 81.17     872.00      29.53
 81.27     896.38      29.94
 81.37     999.66      31.62
 81.47    1020.63      31.95
 81.57    1025.00      32.02
 81.67    1057.00      32.51
 81.77    1073.00      32.76
 81.87    1081.00      32.88
 81.97    1010.39      31.79
 82.07    1042.00      32.28
 82.17     900.00      30.00
 82.27     843.14      29.04
 82.37     854.00      29.22
 82.47     777.00      27.87
 82.57     831.12      28.83
 82.67     710.14      26.65
 82.77     748.00      27.35
 82.87     724.00      26.91
 82.97     658.00      25.65
 83.07     639.00      25.28
 83.17     616.00      24.82
 83.27     657.00      25.63
 83.37     604.11      24.58
 83.47     603.00      24.56
 83.57     588.11      24.25
 83.67     569.37      23.86
 83.77     547.00      23.39
 83.87     558.00      23.62
 83.97     581.94      24.12
 84.07     576.00      24.00
 84.17     612.00      24.74
 84.27     574.00      23.96
 84.37     593.00      24.35
 84.47     650.64      25.51
 84.57     574.53      23.97
 84.67     649.00      25.48
 84.77     611.96      24.74
 84.87     651.43      25.52
 84.97     556.64      23.59
 85.07     636.00      25.22
 85.17     618.96      24.88
 85.27     528.00      22.98
 85.37     561.00      23.69
 85.47     503.00      22.43
 85.57     606.29      24.62
 85.67     578.92      24.06
 85.77     537.00      23.17
 85.87     585.00      24.19
 85.97     573.00      23.94
 86.07     511.00      22.61
 86.17     593.00      24.35
 86.27     598.64      24.47
 86.37     543.04      23.30
 86.47     587.00      24.23
 86.57     551.50      23.48
 86.67     564.05      23.75
 86.77     567.00      23.81
 86.87     606.00      24.62
 86.97     620.97      24.92
 87.07     625.00      25.00
 87.17     655.31      25.60
 87.27     652.15      25.54
 87.37     630.05      25.10
 87.47     673.27      25.95
 87.57     643.00      25.36
 87.67     724.00      26.91
 87.77     646.00      25.42
 87.87     745.00      27.29
 87.97     672.00      25.92
 88.07     736.00      27.13
 88.17     738.00      27.17
 88.27     653.93      25.57
 88.37     616.00      24.82
 88.47     690.92      26.29
 88.57     622.65      24.95
 88.67     687.00      26.21
 88.77     641.31      25.32
 88.87     575.65      23.99
 88.97     611.00      24.72
 89.07     626.00      25.02
 89.17     594.00      24.37
 89.27     598.78      24.47
 89.37     618.00      24.86
 89.47     599.00      24.47
 89.57     628.00      25.06
 89.67     663.70      25.76
 89.77     608.26      24.66
 89.87     655.00      25.59
 89.97     621.17      24.92
 90.07     656.00      25.61
 90.17     640.24      25.30
 90.27     585.18      24.19
 90.37     558.00      23.62
 90.47     624.13      24.98
 90.57     570.64      23.89
 90.67     563.00      23.73
 90.77     586.00      24.21
 90.87     561.00      23.69
 90.97     585.00      24.19
 91.07     535.00      23.13
 91.17     572.00      23.92
 91.27     533.00      23.09
 91.37     550.80      23.47
 91.47     582.40      24.13
 91.57     516.00      22.72
 91.67     547.00      23.39
 91.77     535.03      23.13
 91.87     536.00      23.15
 91.97     579.00      24.06
 92.07     559.42      23.65
 92.17     533.00      23.09
 92.27     514.99      22.69
 92.37     565.00      23.77
 92.47     599.00      24.47
 92.57     609.00      24.68
 92.67     569.00      23.85
 92.77     595.00      24.39
 92.87     640.00      25.30
 92.97     622.00      24.94
 93.07     611.00      24.72
 93.17     699.00      26.44
 93.27     727.50      26.97
 93.37     686.00      26.19
 93.47     703.00      26.51
 93.57     697.00      26.40
 93.67     731.00      27.04
 93.77     746.57      27.32
 93.87     804.00      28.35
 93.97     856.00      29.26
 94.07     849.00      29.14
 94.17     800.00      28.28
 94.27     829.62      28.80
 94.37     815.80      28.56
 94.47     876.00      29.60
 94.57     872.00      29.53
 94.67     877.00      29.61
 94.77     864.61      29.40
 94.87     921.00      30.35
 94.97     958.99      30.97
 95.07    1002.00      31.65
 95.17     962.00      31.02
 95.27     980.00      31.30
 95.37     964.00      31.05
 95.47     945.05      30.74
 95.57     962.11      31.02
 95.67     930.00      30.50
 95.77     941.00      30.68
 95.87     948.00      30.79
 95.97     850.00      29.15
 96.07     823.00      28.69
 96.17     844.00      29.05
 96.27     830.00      28.81
 96.37     785.00      28.02
 96.47     821.00      28.65
 96.57     797.82      28.25
 96.67     784.10      28.00
 96.77     826.90      28.76
 96.87     799.00      28.27
 96.97     821.11      28.65
 97.07     866.00      29.43
 97.17     942.00      30.69
 97.27    1043.00      32.30
 97.37    1043.00      32.30
 97.47    1069.36      32.70
 97.57    1209.00      34.77
 97.67    1312.85      36.23
 97.77    1279.64      35.77
 97.87    1462.00      38.24
 97.97    1432.00      37.84
 98.07    1565.59      39.57
 98.17    1525.00      39.05
 98.27    1574.00      39.67
 98.37    1563.00      39.53
 98.47    1493.00      38.64
 98.57    1469.75      38.34
 98.67    1451.00      38.09
 98.77    1303.00      36.10
 98.87    1282.15      35.81
 98.97    1157.18      34.02
 99.07    1164.00      34.12
 99.17    1071.76      32.74
 99.27    1057.35      32.52
 99.37    1015.10      31.86
 99.47     966.00      31.08
 99.57     887.29      29.79
 99.67     959.00      30.97
 99.77     960.00      30.98
 99.87     957.00      30.94
 99.97    1117.00      33.42
100.07    1052.00      32.43
100.17    1140.00      33.76
100.27    1221.00      34.94
100.37    1303.00      36.10
100.47    1382.45      37.18
100.57    1529.00      39.10
100.67    1603.00      40.04
100.77    1688.00      41.09
100.87    1764.00      42.00
100.97    1814.00      42.59
101.07    1913.00      43.74
101.17    1905.00      43.65
101.27    1962.00      44.29
101.37    2024.00      44.99
101.47    2111.00      45.95
101.57    2089.00      45.71
101.67    2017.00      44.91
101.77    1955.57      44.22
101.87    1963.87      44.32
101.97    1898.21      43.57
102.07    1864.00      43.17
102.17    1709.20      41.34
102.27    1670.00      40.87
102.37    1556.00      39.45
102.47    1509.00      38.85
102.57    1399.00      37.40
102.67    1361.00      36.89
102.77    1396.35      37.37
102.87    1292.91      35.96
102.97    1327.67      36.44
103.07    1151.00      33.93
103.17    1132.00      33.65
103.27    1203.00      34.68
103.37    1244.72      35.28
103.47    1127.00      33.57
103.57    1026.00      32.03
103.67    1073.00      32.76
103.77    1082.38      32.90
103.87    1049.62      32.40
103.97     930.00      30.50
104.07     872.00      29.53
104.17     884.00      29.73
104.27     795.00      28.20
104.37     791.00      28.12
104.47     785.00      28.02
104.57     687.73      26.22
104.67     654.00      25.57
104.77     644.04      25.38
104.87     691.00      26.29
104.97     641.00      25.32
105.07     628.00      25.06
105.17     633.00      25.16
105.27     615.00      24.80
105.37     632.00      25.14
105.47     606.00      24.62
105.57     551.00      23.47
105.67     602.00      24.54
105.77     547.00      23.39
105.87     589.94      24.29
105.97     611.22      24.72
106.07     566.00      23.79
106.17     538.92      23.21
106.27     560.00      23.66
106.37     558.00      23.62
106.47     562.68      23.72
106.57     566.76      23.81
106.67     601.00      24.52
106.77     606.76      24.63
106.87     607.00      24.64
106.97     623.95      24.98
107.07     630.50      25.11
107.17     665.00      25.79
107.27     651.04      25.52
107.37     679.00      26.06
107.47     720.00      26.83
107.57     701.68      26.49
107.67     740.85      27.22
107.77     764.00      27.64
107.87     737.00      27.15
107.97     765.00      27.66
108.07     715.00      26.74
108.17     766.00      27.68
108.27     697.00      26.40
108.37     690.37      26.27
108.47     784.22      28.00
108.57     723.18      26.89
108.67     722.00      26.87
108.77     732.00      27.06
108.87     695.23      26.37
108.97     708.00      26.61
109.07     768.15      27.72
109.17     703.00      26.51
109.27     761.00      27.59
109.37     702.00      26.50
109.47     745.10      27.30
109.57     726.00      26.94
109.67     723.72      26.90
109.77     712.00      26.68
109.87     765.07      27.66
109.97     690.00      26.27
110.07     766.75      27.69
110.17     666.38      25.81
110.27     707.86      26.61
110.37     723.11      26.89
110.47     670.58      25.90
110.57     658.00      25.65
110.67     629.30      25.09
110.77     622.00      24.94
110.87     661.78      25.73
110.97     583.36      24.15
111.07     625.11      25.00
111.17     653.67      25.57
111.27     604.00      24.58
111.37     601.00      24.52
111.47     556.75      23.60
111.57     568.31      23.84
111.67     577.00      24.02
111.77     611.50      24.73
111.87     611.23      24.72
111.97     579.00      24.06
112.07     604.14      24.58
112.17     596.00      24.41
112.27     561.00      23.69
112.37     535.47      23.14
112.47     550.00      23.45
112.57     543.71      23.32
112.67     594.00      24.37
112.77     574.00      23.96
112.87     606.00      24.62
112.97     567.00      23.81
113.07     630.00      25.10
113.17     563.94      23.75
113.27     601.00      24.52
113.37     578.73      24.06
113.47     637.01      25.24
113.57     582.84      24.14
113.67     613.00      24.76
113.77     605.00      24.60
113.87     628.81      25.08
113.97     665.00      25.79
114.07     628.43      25.07
114.17     676.00      26.00
114.27     653.42      25.56
114.37     741.17      27.22
114.47     685.00      26.17
114.57     702.00      26.50
114.67     811.00      28.48
114.77     831.00      28.83
114.87     840.00      28.98
114.97     891.00      29.85
115.07     975.00      31.22
115.17    1098.95      33.15
115.27    1152.00      33.94
115.37    1274.91      35.71
115.47    1520.68      39.00
115.57    1590.69      39.88
115.67    1797.60      42.40
115.77    2028.00      45.03
115.87    2256.13      47.50
115.97    2612.00      51.11
116.07    2983.00      54.62
116.17    3296.00      57.41
116.27    3530.61      59.42
116.37    3798.19      61.63
116.47    4343.40      65.90
116.57    4696.00      68.53
116.67    5106.00      71.46
116.77    5351.00      73.15
116.87    5703.00      75.52
116.97    6088.00      78.03
117.07    6456.00      80.35
117.17    6730.00      82.04
117.27    6934.05      83.27
117.37    7076.00      84.12
117.47    7273.00      85.28
117.57    7367.30      85.83
117.67    7328.00      85.60
117.77    7197.00      84.84
117.87    7160.05      84.62
117.97    6620.00      81.36
118.07    6396.64      79.98
118.17    6046.00      77.76
118.27    5723.00      75.65
118.37    5360.85      73.22
118.47    5059.00      71.13
118.57    4786.00      69.18
118.67    4290.00      65.50
118.77    3972.55      63.03
118.87    3564.00      59.70
118.97    3234.81      56.88
119.07    2944.00      54.26
119.17    2655.00      51.53
119.27    2461.16      49.61
119.37    2222.00      47.14
119.47    2015.00      44.89
119.57    1813.00      42.58
119.67    1604.00      40.05
119.77    1397.16      37.38
119.87    1268.17      35.61
119.97    1211.00      34.80
120.07    1185.70      34.43
120.17    1111.00      33.33
120.27     995.00      31.54
120.37     940.49      30.67
120.47     923.00      30.38
120.57     877.00      29.61
120.67     764.47      27.65
120.77     761.00      27.59
120.87     722.00      26.87
120.97     718.17      26.80
121.07     760.00      27.57
121.17     737.97      27.17
121.27     663.00      25.75
121.37     700.00      26.46
121.47     701.92      26.49
121.57     634.00      25.18
121.67     667.00      25.83
121.77     642.43      25.35
121.87     661.00      25.71
121.97     678.00      26.04
122.07     628.88      25.08
122.17     642.67      25.35
122.27     658.50      25.66
122.37     615.00      24.80
122.47     710.63      26.66
122.57     630.00      25.10
122.67     647.12      25.44
122.77     679.00      26.06
122.87     653.00      25.55
122.97     674.89      25.98
123.07     694.00      26.34
123.17     686.00      26.19
123.27     647.40      25.44
123.37     695.00      26.36
123.47     722.87      26.89
123.57     677.65      26.03
123.67     720.00      26.83
123.77     695.00      26.36
123.87     645.00      25.40
123.97     675.00      25.98
124.07     694.17      26.35
124.17     709.00      26.63
124.27     756.46      27.50
124.37     755.55      27.49
124.47     744.00      27.28
124.57     696.00      26.38
124.67     732.00      27.06
124.77     719.00      26.81
124.87     701.00      26.48
124.97     702.00      26.50
