  9.97     612.00      24.74
 10.07     590.00      24.29
 10.17     601.00      24.52
 10.27     581.25      24.11
 10.37     610.00      24.70
 10.47     523.52      22.88
 10.57     598.00      24.45
 10.67     606.00      24.62
 10.77     597.38      24.44
 10.87     570.00      23.87
 10.97     570.00      23.87
 11.07     540.97      23.26
 11.17     570.00      23.87
 11.27     572.00      23.92
 11.37     556.22      23.58
 11.47     591.00      24.31
 11.57     576.00      24.00
 11.67     604.00      24.58
 11.77     608.00      24.66
 11.87     657.00      25.63
 11.97     653.90      25.57
 12.07     632.00      25.14
 12.17     727.08      26.96
 12.27     655.00      25.59
 12.37     619.00      24.88
 12.47     602.00      24.54
 12.57     606.00      24.62
 12.67     609.00      24.68
 12.77     550.00      23.45
 12.87     500.00      22.36
 12.97     586.00      24.21
 13.07     532.00      23.07
 13.17     547.00      23.39
 13.27     526.00      22.93
 13.37     602.52      24.55
 13.47     589.00      24.27
 13.57     556.00      23.58
 13.67     598.00      24.45
 13.77     605.29      24.60
 13.87     538.69      23.21
 13.97     531.00      23.04
 14.07     575.73      23.99
 14.17     500.00      22.36
 14.27     557.00      23.60
 14.37     565.10      23.77
 14.47     594.00      24.37
 14.57     603.00      24.56
 14.67     538.91      23.21
 14.77     554.00      23.54
 14.87     557.00      23.60
 14.97     586.20      24.21
 15.07     526.05      22.94
 15.17     549.00      23.43
 15.27     537.73      23.19
 15.37     584.00      24.17
 15.47     564.00      23.75
 15.57     588.60      24.26
 15.67     567.00      23.81
 15.77     539.00      23.22
 15.87     540.00      23.24
 15.97     599.30      24.48
 16.07     556.00      23.58
 16.17     496.00      22.27
 16.27     581.00      24.10
 16.37     601.00      24.52
 16.47     573.00      23.94
 16.57     554.12      23.54
 16.67     574.00      23.96
 16.77     539.00      23.22
 16.87     544.64      23.34
 16.97     583.00      24.15
 17.07     574.00      23.96
 17.17     549.00      23.43
 17.27     555.00      23.56
 17.37     534.00      23.11
 17.47     605.31      24.60
 17.57     533.00      23.09
 17.67     578.00      24.04
 17.77     597.34      24.44
 17.87     590.00      24.29
 17.97     563.24      23.73
 18.07     555.00      23.56
 18.17     553.00      23.52
 18.27     555.00      23.56
 18.37     524.95      22.91
 18.47     547.00      23.39
 18.57     558.38      23.63
 18.67     555.00      23.56
 18.77     563.00      23.73
 18.87     586.39      24.22
 18.97     573.61      23.95
 19.07     546.00      23.37
 19.17     529.00      23.00
 19.27     525.00      22.91
 19.37     565.00      23.77
 19.47     541.00      23.26
 19.57     575.00      23.98
 19.67     564.00      23.75
 19.77     586.00      24.21
 19.87     524.09      22.89
 19.97     541.00      23.26
 20.07     551.24      23.48
 20.17     556.00      23.58
 20.27     558.00      23.62
 20.37     528.00      22.98
 20.47     521.00      22.83
 20.57     526.00      22.93
 20.67     519.00      22.78
 20.77     553.67      23.53
 20.87     516.41      22.72
 20.97     602.00      24.54
 21.07     521.34      22.83
 21.17     519.00      22.78
 21.27     515.15      22.70
 21.37     588.71      24.26
 21.47     517.00      22.74
 21.57     538.00      23.19
 21.67     541.10      23.26
 21.77     527.00      22.96
 21.87     553.00      23.52
 21.97     574.16      23.96
 22.07     543.00      23.30
 22.17     539.35      23.22
 22.27     509.05      22.56
 22.37     534.00      23.11
 22.47     556.00      23.58
 22.57     564.00      23.75
 22.67     575.35      23.99
 22.77     550.00      23.45
 22.87     562.00      23.71
 22.97     573.83      23.95
 23.07     564.00      23.75
 23.17     549.00      23.43
 23.27     506.17      22.50
 23.37     582.00      24.12
 23.47     585.00      24.19
 23.57     533.66      23.10
 23.67     555.00      23.56
 23.77     567.66      23.83
 23.87     551.00      23.47
 23.97     558.00      23.62
 24.07     556.00      23.58
 24.17     533.00      23.09
 24.27     577.00      24.02
 24.37     611.00      24.72
 24.47     553.21      23.52
 24.57     619.00      24.88
 24.67     613.00      24.76
 24.77     629.37      25.09
 24.87     623.00      24.96
 24.97     642.05      25.34
 25.07     570.00      23.87
 25.17     613.00      24.76
 25.27     571.00      23.90
 25.37     572.00      23.92
 25.47     520.96      22.82
 25.57     558.00      23.62
 25.67     574.00      23.96
 25.77     567.11      23.81
 25.87     535.71      23.15
 25.97     585.00      24.19
 26.07     503.31      22.43
 26.17     523.00      22.87
 26.27     592.00      24.33
 26.37     540.00      23.24
 26.47     543.19      23.31
 26.57     534.78      23.13
 26.67     558.00      23.62
 26.77     498.52      22.33
 26.87     551.45      23.48
 26.97     581.00      24.10
 27.07     503.60      22.44
 27.17     568.00      23.83
 27.27     578.00      24.04
 27.37     597.00      24.43
 27.47     541.00      23.26
 27.57     584.00      24.17
 27.67     544.39      23.33
 27.77     591.00      24.31
 27.87     598.00      24.45
 27.97     675.00      25.98
 28.07     739.00      27.18
 28.17     916.38      30.27
 28.27     982.00      31.34
 28.37     945.00      30.74
 28.47     778.10      27.89
 28.57     659.00      25.67
 28.67     694.00      26.34
 28.77     740.00      27.20
 28.87     770.00      27.75
 28.97     852.00      29.19
 29.07     800.00      28.28
 29.17     697.86      26.42
 29.27     661.38      25.72
 29.37     624.00      24.98
 29.47     604.00      24.58
 29.57     583.00      24.15
 29.67     606.00      24.62
 29.77     594.00      24.37
 29.87     574.62      23.97
 29.97     559.51      23.65
 30.07     580.00      24.08
 30.17     598.00      24.45
 30.27     591.00      24.31
 30.37     584.02      24.17
 30.47     538.73      23.21
 30.57     541.00      23.26
 30.67     561.00      23.69
 30.77     588.00      24.25
 30.87     576.00      24.00
 30.97     581.00      24.10
 31.07     597.00      24.43
 31.17     569.00      23.85
 31.27     538.16      23.20
 31.37     584.00      24.17
 31.47     531.00      23.04
 31.57     546.00      23.37
 31.67     533.71      23.10
 31.77     533.00      23.09
 31.87     489.04      22.11
 31.97     523.00      22.87
 32.07     554.00      23.54
 32.17     565.76      23.79
 32.27     514.78      22.69
 32.37     492.80      22.20
 32.47     533.97      23.11
 32.57     539.75      23.23
 32.67     526.00      22.93
 32.77     533.00      23.09
 32.87     558.26      23.63
 32.97     533.84      23.10
 33.07     527.67      22.97
 33.17     568.88      23.85
 33.27     582.93      24.14
 33.37     556.58      23.59
 33.47     574.00      23.96
 33.57     563.00      23.73
 33.67     602.00      24.54
 33.77     726.00      26.94
 33.87     797.77      28.24
 33.97     937.00      30.61
 34.07    1110.00      33.32
 34.17    1041.49      32.27
 34.27     982.36      31.34
 34.37     739.00      27.18
 34.47     722.86      26.89
 34.57     582.00      24.12
 34.67     558.44      23.63
 34.77     591.20      24.31
 34.87     549.00      23.43
 34.97     564.15      23.75
 35.07     558.76      23.64
 35.17     495.00      22.25
 35.27     520.00      22.80
 35.37     519.00      22.78
 35.47     494.68      22.24
 35.57     512.00      22.63
 35.67     538.00      23.19
 35.77     521.00      22.83
 35.87     489.00      22.11
 35.97     554.00      23.54
 36.07     514.00      22.67
 36.17     488.21      22.10
 36.27     528.00      22.98
 36.37     464.00      21.54
 36.47     476.00      21.82
 36.57     530.00      23.02
 36.67     498.00      22.32
 36.77     543.00      23.30
 36.87     483.00      21.98
 36.97     484.00      22.00
 37.07     506.00      22.49
 37.17     536.25      23.16
 37.27     484.74      22.02
 37.37     546.72      23.38
 37.47     552.00      23.49
 37.57     515.74      22.71
 37.67     501.27      22.39
 37.77     505.76      22.49
 37.87     494.19      22.23
 37.97     517.00      22.74
 38.07     538.00      23.19
 38.17     512.00      22.63
 38.27     496.80      22.29
 38.37     517.49      22.75
 38.47     533.00      23.09
 38.57     508.05      22.54
 38.67     540.00      23.24
 38.77     494.00      22.23
 38.87     496.70      22.29
 38.97     531.44      23.05
 39.07     465.00      21.56
 39.17     456.00      21.35
 39.27     527.00      22.96
 39.37     532.73      23.08
 39.47     486.90      22.07
 39.57     473.00      21.75
 39.67     473.00      21.75
 39.77     500.00      22.36
 39.87     527.89      22.98
 39.97     494.00      22.23
 40.07     543.96      23.32
 40.17     513.00      22.65
 40.27     506.00      22.49
 40.37     469.00      21.66
 40.47     518.00      22.76
 40.57     455.00      21.33
 40.67     517.26      22.74
 40.77     545.85      23.36
 40.87     536.31      23.16
 40.97     474.90      21.79
 41.07     502.00      22.41
 41.17     501.00      22.38
 41.27     544.45      23.33
 41.37     493.00      22.20
 41.47     504.00      22.45
 41.57     497.00      22.29
 41.67     502.00      22.41
 41.77     504.00      22.45
 41.87     463.00      21.52
 41.97     522.00      22.85
 42.07     502.00      22.41
 42.17     520.63      22.82
 42.27     486.90      22.07
 42.37     538.00      23.19
 42.47     592.92      24.35
 42.57     591.00      24.31
 42.67     603.00      24.56
 42.77     634.19      25.18
 42.87     591.00      24.31
 42.97     542.00      23.28
 43.07     535.00      23.13
 43.17     500.26      22.37
 43.27     530.40      23.03
 43.37     505.00      22.47
 43.47     508.00      22.54
 43.57     481.00      21.93
 43.67     502.00      22.41
 43.77     432.00      20.78
 43.87     485.18      22.03
 43.97     499.00      22.34
 44.07     470.56      21.69
 44.17     516.96      22.74
 44.27     517.00      22.74
 44.37     492.00      22.18
 44.47     505.57      22.48
 44.57     532.00      23.07
 44.67     521.00      22.83
 44.77     507.00      22.52
 44.87     505.00      22.47
 44.97     519.33      22.79
 45.07     528.00      22.98
 45.17     519.05      22.78
 45.27     492.09      22.18
 45.37     483.63      21.99
 45.47     560.00      23.66
 45.57     483.49      21.99
 45.67     536.23      23.16
 45.77     545.36      23.35
 45.87     487.00      22.07
 45.97     520.00      22.80
 46.07     541.42      23.27
 46.17     505.23      22.48
 46.27     523.00      22.87
 46.37     489.03      22.11
 46.47     489.35      22.12
 46.57     512.45      22.64
 46.67     489.19      22.12
 46.77     501.00      22.38
 46.87     523.00      22.87
 46.97     481.61      21.95
 47.07     464.73      21.56
 47.17     478.00      21.86
 47.27     535.00      23.13
 47.37     475.00      21.79
 47.47     537.17      23.18
 47.57     524.97      22.91
 47.67     565.00      23.77
 47.77     558.66      23.64
 47.87     627.00      25.04
 47.97     603.00      24.56
 48.07     565.00      23.77
 48.17     586.10      24.21
 48.27     541.00      23.26
 48.37     558.00      23.62
 48.47     565.00      23.77
 48.57     553.00      23.52
 48.67     513.00      22.65
 48.77     509.00      22.56
 48.87     557.00      23.60
 48.97     545.00      23.35
 49.07     537.00      23.17
 49.17     560.00      23.66
 49.27     588.00      24.25
 49.37     640.31      25.30
 49.47     725.60      26.94
 49.57     708.47      26.62
 49.67     887.00      29.78
 49.77    1005.80      31.71
 49.87    1292.00      35.94
 49.97    1686.81      41.07
 50.07    2032.06      45.08
 50.17    2526.00      50.26
 50.27    2455.00      49.55
 50.37    2446.00      49.46
 50.47    2093.00      45.75
 50.57    1675.62      40.93
 50.67    1301.34      36.07
 50.77     919.00      30.32
 50.87     724.00      26.91
 50.97     664.00      25.77
 51.07     668.00      25.85
 51.17     581.00      24.10
 51.27     574.52      23.97
 51.37     578.00      24.04
 51.47     625.00      25.00
 51.57     511.40      22.61
 51.67     581.00      24.10
 51.77     546.81      23.38
 51.87     554.00      23.54
 51.97     575.00      23.98
 52.07     539.01      23.22
 52.17     511.00      22.61
 52.27     503.67      22.44
 52.37     538.00      23.19
 52.47     491.26      22.16
 52.57     539.72      23.23
 52.67     587.07      24.23
 52.77     625.00      25.00
 52.87     656.00      25.61
 52.97     647.00      25.44
 53.07     665.04      25.79
 53.17     781.64      27.96
 53.27     975.00      31.22
 53.37    1045.00      32.33
 53.47    1145.00      33.84
 53.57    1157.52      34.02
 53.67    1167.00      34.16
 53.77    1083.67      32.92
 53.87     939.00      30.64
 53.97     831.26      28.83
 54.07     736.00      27.13
 54.17     617.00      24.84
 54.27     564.25      23.75
 54.37     609.00      24.68
 54.47     526.79      22.95
 54.57     570.59      23.89
 54.67     523.14      22.87
 54.77     529.00      23.00
 54.87     524.00      22.89
 54.97     522.00      22.85
 55.07     533.00      23.09
 55.17     560.00      23.66
 55.27     556.00      23.58
 55.37     535.93      23.15
 55.47     512.00      22.63
 55.57     558.00      23.62
 55.67     545.00      23.35
 55.77     529.63      23.01
 55.87     563.78      23.74
 55.97     605.00      24.60
 56.07     597.00      24.43
 56.17     692.00      26.31
 56.27     753.28      27.45
 56.37     923.41      30.39
 56.47    1187.00      34.45
 56.57    1517.58      38.96
 56.67    1971.00      44.40
 56.77    2278.00      47.73
 56.87    2549.00      50.49
 56.97    2755.00      52.49
 57.07    2516.00      50.16
 57.17    2272.00      47.67
 57.27    1863.00      43.16
 57.37    1551.54      39.39
 57.47    1184.63      34.42
 57.57     966.00      31.08
 57.67     814.00      28.53
 57.77     701.69      26.49
 57.87     723.00      26.89
 57.97     666.00      25.81
 58.07     617.00      24.84
 58.17     658.00      25.65
 58.27     721.00      26.85
 58.37     821.00      28.65
 58.47     888.00      29.80
 58.57    1022.00      31.97
 58.67    1155.00      33.99
 58.77    1326.00      36.41
 58.87    1411.78      37.57
 58.97    1572.00      39.65
 59.07    1697.00      41.19
 59.17    1612.93      40.16
 59.27    1567.00      39.59
 59.37    1436.93      37.91
 59.47    1272.68      35.67
 59.57    1212.00      34.81
 59.67    1101.00      33.18
 59.77    1123.00      33.51
 59.87    1234.00      35.13
 59.97    1268.00      35.61
 60.07    1401.00      37.43
 60.17    1437.70      37.92
 60.27    1602.00      40.02
 60.37    1577.00      39.71
 60.47    1419.22      37.67
 60.57    1326.00      36.41
 60.67    1163.00      34.10
 60.77     967.00      31.10
 60.87     867.37      29.45
 60.97     783.46      27.99
 61.07     676.00      26.00
 61.17     623.76      24.98
 61.27     676.00      26.00
 61.37     652.08      25.54
 61.47     664.00      25.77
 61.57     731.00      27.04
 61.67     752.00      27.42
 61.77     890.00      29.83
 61.87     995.79      31.56
 61.97    1232.36      35.11
 62.07    1314.00      36.25
 62.17    1431.29      37.83
 62.27    1428.00      37.79
 62.37    1352.00      36.77
 62.47    1251.00      35.37
 62.57    1150.00      33.91
 62.67     974.00      31.21
 62.77     781.00      27.95
 62.87     734.00      27.09
 62.97     711.59      26.68
 63.07     654.55      25.58
 63.17     608.00      24.66
 63.27     537.00      23.17
 63.37     577.00      24.02
 63.47     566.00      23.79
 63.57     587.00      24.23
 63.67     579.25      24.07
 63.77     612.57      24.75
 63.87     595.03      24.39
 63.97     610.00      24.70
 64.07     645.01      25.40
 64.17     689.00      26.25
 64.27     796.00      28.21
 64.37     886.00      29.77
 64.47     885.07      29.75
 64.57    1023.00      31.98
 64.67    1053.00      32.45
 64.77    1014.21      31.85
 64.87     948.48      30.80
 64.97     943.00      30.71
 65.07     901.00      30.02
 65.17     871.00      29.51
 65.27     703.38      26.52
 65.37     677.00      26.02
 65.47     709.00      26.63
 65.57     651.25      25.52
 65.67     627.00      25.04
 65.77     539.00      23.22
 65.87     538.82      23.21
 65.97     589.77      24.29
 66.07     577.60      24.03
 66.17     555.01      23.56
 66.27     543.00      23.30
 66.37     489.00      22.11
 66.47     520.00      22.80
 66.57     525.00      22.91
 66.67     573.00      23.94
 66.77     570.00      23.87
 66.87     602.00      24.54
 66.97     604.00      24.58
 67.07     592.45      24.34
 67.17     621.93      24.94
 67.27     701.00      26.48
 67.37     729.53      27.01
 67.47     903.00      30.05
 67.57    1133.00      33.66
 67.67    1360.10      36.88
 67.77    1608.00      40.10
 67.87    1906.00      43.66
 67.97    2137.34      46.23
 68.07    2431.00      49.31
 68.17    2389.78      48.89
 68.27    2335.00      48.32
 68.37    2209.00      47.00
 68.47    1907.29      43.67
 68.57    1727.51      41.56
 68.67    1426.00      37.76
 68.77    1216.00      34.87
 68.87     903.00      30.05
 68.97     819.44      28.63
 69.07     698.00      26.42
 69.17     712.48      26.69
 69.27     613.00      24.76
 69.37     585.00      24.19
 69.47     582.00      24.12
 69.57     591.44      24.32
 69.67     566.00      23.79
 69.77     588.00      24.25
 69.87     578.00      24.04
 69.97     593.00      24.35
 70.07     527.00      22.96
 70.17     544.00      23.32
 70.27     595.47      24.40
 70.37     564.91      23.77
 70.47     553.38      23.52
 70.57     561.08      23.69
 70.67     539.00      23.22
 70.77     604.38      24.58
 70.87     585.00      24.19
 70.97     619.95      24.90
 71.07     667.75      25.84
 71.17     673.66      25.96
 71.27     772.48      27.79
 71.37     845.77      29.08
 71.47     980.00      31.30
 71.57    1133.46      33.67
 71.67    1287.00      35.87
 71.77    1539.33      39.23
 71.87    1607.00      40.09
 71.97    1862.00      43.15
 72.07    1911.66      43.72
 72.17    1844.17      42.94
 72.27    1909.42      43.70
 72.37    1825.27      42.72
 72.47    1665.58      40.81
 72.57    1392.14      37.31
 72.67    1364.00      36.93
 72.77    1191.00      34.51
 72.87    1119.99      33.47
 72.97    1043.87      32.31
 73.07     854.00      29.22
 73.17     803.00      28.34
 73.27     765.15      27.66
 73.37     690.00      26.27
 73.47     672.01      25.92
 73.57     673.35      25.95
 73.67     657.00      25.63
 73.77     584.00      24.17
 73.87     622.62      24.95
 73.97     572.00      23.92
 74.07     553.00      23.52
 74.17     610.00      24.70
 74.27     565.00      23.77
 74.37     599.00      24.47
 74.47     629.00      25.08
 74.57     620.00      24.90
 74.67     573.33      23.94
 74.77     612.00      24.74
 74.87     595.00      24.39
 74.97     574.77      23.97
 75.07     573.14      23.94
 75.17     579.55      24.07
 75.27     524.11      22.89
 75.37     589.97      24.29
 75.47     565.00      23.77
 75.57     555.00      23.56
 75.67     587.70      24.24
 75.77     556.00      23.58
 75.87     567.65      23.83
 75.97     560.00      23.66
 76.07     630.00      25.10
 76.17     652.00      25.53
 76.27     616.67      24.83
 76.37     634.82      25.20
 76.47     726.01      26.94
 76.57     685.51      26.18
 76.67     725.00      26.93
 76.77     715.00      26.74
 76.87     688.00      26.23
 76.97     702.75      26.51
 77.07     641.00      25.32
 77.17     576.00      24.00
 77.27     575.00      23.98
 77.37     534.01      23.11
 77.47     517.00      22.74
 77.57     500.84      22.38
 77.67     579.70      24.08
 77.77     514.00      22.67
 77.87     533.00      23.09
 77.97     543.00      23.30
 78.07     534.00      23.11
 78.17     477.68      21.86
 78.27     553.09      23.52
 78.37     518.00      22.76
 78.47     527.00      22.96
 78.57     525.00      22.91
 78.67     571.00      23.90
 78.77     519.23      22.79
 78.87     479.58      21.90
 78.97     492.53      22.19
 79.07     535.38      23.14
 79.17     543.38      23.31
 79.27     545.00      23.35
 79.37     515.00      22.69
 79.47     519.62      22.80
 79.57     520.00      22.80
 79.67     515.00      22.69
 79.77     500.00      22.36
 79.87     506.28      22.50
 79.97     524.00      22.89
 80.07     560.56      23.68
 80.17     582.77      24.14
 80.27     530.83      23.04
 80.37     557.00      23.60
 80.47     558.00      23.62
 80.57     592.55      24.34
 80.67     573.00      23.94
 80.77     560.00      23.66
 80.87     666.56      25.82
 80.97     656.00      25.61
 81.07     720.00      26.83
 81.17     726.00      26.94
 81.27     704.00      26.53
 81.37     692.17      26.31
 81.47     796.80      28.23
 81.57     760.00      27.57
 81.67     757.00      27.51
 81.77     675.64      25.99
 81.87     753.00      27.44
 81.97     689.00      26.25
 82.07     714.00      26.72
 82.17     691.75      26.30
 82.27     629.00      25.08
 82.37     625.00      25.00
 82.47     609.27      24.68
 82.57     601.00      24.52
 82.67     578.74      24.06
 82.77     561.00      23.69
 82.87     595.00      24.39
 82.97     510.00      22.58
 83.07     588.24      24.25
 83.17     529.00      23.00
 83.27     562.00      23.71
 83.37     524.00      22.89
 83.47     522.00      22.85
 83.57     511.00      22.61
 83.67     530.44      23.03
 83.77     513.00      22.65
 83.87     587.00      24.23
 83.97     613.00      24.76
 84.07     572.92      23.94
 84.17     530.00      23.02
 84.27     581.90      24.12
 84.37     581.30      24.11
 84.47     599.77      24.49
 84.57     573.00      23.94
 84.67     556.00      23.58
 84.77     544.00      23.32
 84.87     505.00      22.47
 84.97     509.00      22.56
 85.07     515.00      22.69
 85.17     498.00      22.32
 85.27     485.61      22.04
 85.37     488.00      22.09
 85.47     512.00      22.63
 85.57     521.00      22.83
 85.67     505.00      22.47
 85.77     526.00      22.93
 85.87     460.00      21.45
 85.97     478.00      21.86
 86.07     496.00      22.27
 86.17     532.36      23.07
 86.27     529.00      23.00
 86.37     525.00      22.91
 86.47     551.69      23.49
 86.57     527.00      22.96
 86.67     530.00      23.02
 86.77     550.00      23.45
 86.87     582.00      24.12
 86.97     611.00      24.72
 87.07     620.00      24.90
 87.17     549.14      23.43
 87.27     614.07      24.78
 87.37     672.00      25.92
 87.47     571.12      23.90
 87.57     576.46      24.01
 87.67     604.99      24.60
 87.77     623.00      24.96
 87.87     582.00      24.12
 87.97     640.00      25.30
 88.07     643.00      25.36
 88.17     626.00      25.02
 88.27     554.97      23.56
 88.37     575.76      23.99
 88.47     572.00      23.92
 88.57     534.00      23.11
 88.67     540.03      23.24
 88.77     560.22      23.67
 88.87     601.00      24.52
 88.97     567.00      23.81
 89.07     606.04      24.62
 89.17     577.00      24.02
 89.27     584.00      24.17
 89.37     584.97      24.19
 89.47     664.00      25.77
 89.57     573.00      23.94
 89.67     607.51      24.65
 89.77     566.00      23.79
 89.87     595.00      24.39
 89.97     579.00      24.06
 90.07     529.85      23.02
 90.17     539.00      23.22
 90.27     533.00      23.09
 90.37     529.00      23.00
 90.47     506.00      22.49
 90.57     538.81      23.21
 90.67     519.00      22.78
 90.77     534.00      23.11
 90.87     516.00      22.72
 90.97     517.00      22.74
 91.07     515.00      22.69
 91.17     557.08      23.60
 91.27     485.00      22.02
 91.37     510.00      22.58
 91.47     492.00      22.18
 91.57     546.00      23.37
 91.67     517.00      22.74
 91.77     481.00      21.93
 91.87     493.68      22.22
 91.97     547.33      23.40
 92.07     525.00      22.91
 92.17     529.00      23.00
 92.27     562.00      23.71
 92.37     558.00      23.62
 92.47     556.95      23.60
 92.57     593.00      24.35
 92.67     650.00      25.50
 92.77     628.82      25.08
 92.87     641.49      25.33
 92.97     719.00      26.81
 93.07     733.00      27.07
 93.17     739.00      27.18
 93.27     777.91      27.89
 93.37     821.00      28.65
 93.47     738.01      27.17
 93.57     843.00      29.03
 93.67     810.00      28.46
 93.77     798.00      28.25
 93.87     800.00      28.28
 93.97     775.32      27.84
 94.07     861.69      29.35
 94.17     819.00      28.62
 94.27     867.00      29.44
 94.37     891.63      29.86
 94.47     868.19      29.47
 94.57     873.00      29.55
 94.67     914.00      30.23
 94.77     946.91      30.77
 94.87     948.86      30.80
 94.97     922.71      30.38
 95.07     912.79      30.21
 95.17     906.00      30.10
 95.27     880.00      29.66
 95.37     859.00      29.31
 95.47     779.00      27.91
 95.57     733.42      27.08
 95.67     766.00      27.68
 95.77     735.21      27.11
 95.87     646.00      25.42
 95.97     667.00      25.83
 96.07     651.64      25.53
 96.17     638.18      25.26
 96.27     688.00      26.23
 96.37     704.00      26.53
 96.47     744.90      27.29
 96.57     774.03      27.82
 96.67     794.15      28.18
 96.77     837.19      28.93
 96.87     941.00      30.68
 96.97    1062.00      32.59
 97.07    1109.70      33.31
 97.17    1214.00      34.84
 97.27    1288.85      35.90
 97.37    1339.00      36.59
 97.47    1377.00      37.11
 97.57    1452.00      38.11
 97.67    1502.00      38.76
 97.77    1476.28      38.42
 97.87    1339.11      36.59
 97.97    1374.00      37.07
 98.07    1318.00      36.30
 98.17    1248.32      35.33
 98.27    1178.52      34.33
 98.37    1089.77      33.01
 98.47    1020.00      31.94
 98.57    1004.35      31.69
 98.67     926.00      30.43
 98.77     880.00      29.66
 98.87     842.00      29.02
 98.97     791.00      28.12
 99.07     800.00      28.28
 99.17     835.00      28.90
 99.27     878.16      29.63
 99.37     818.44      28.61
 99.47     860.81      29.34
 99.57     999.00      31.61
 99.67    1084.00      32.92
 99.77    1198.89      34.62
 99.87    1263.00      35.54
 99.97    1428.19      37.79
100.07    1489.00      38.59
100.17    1546.78      39.33
100.27    1742.00      41.74
100.37    1857.59      43.10
100.47    1918.00      43.79
100.57    2074.55      45.55
100.67    2024.00      44.99
100.77    2029.00      45.04
100.87    2152.00      46.39
100.97    2164.00      46.52
101.07    2125.00      46.10
101.17    2073.00      45.53
101.27    1872.00      43.27
101.37    1893.00      43.51
101.47    1797.00      42.39
101.57    1688.58      41.09
101.67    1612.00      40.15
101.77    1453.00      38.12
101.87    1383.00      37.19
101.97    1370.00      37.01
102.07    1303.00      36.10
102.17    1249.79      35.35
102.27    1186.00      34.44
102.37    1132.00      33.65
102.47    1120.00      33.47
102.57    1076.30      32.81
102.67    1092.00      33.05
102.77    1004.00      31.69
102.87     994.95      31.54
102.97    1017.00      31.89
103.07     921.00      30.35
103.17     922.00      30.36
103.27     905.57      30.09
103.37     851.00      29.17
103.47     812.00      28.50
103.57     765.22      27.66
103.67     739.15      27.19
103.77     718.00      26.80
103.87     680.00      26.08
103.97     627.00      25.04
104.07     614.00      24.78
104.17     554.66      23.55
104.27     623.00      24.96
104.37     557.23      23.61
104.47     556.00      23.58
104.57     534.98      23.13
104.67     529.00      23.00
104.77     501.48      22.39
104.87     540.00      23.24
104.97     502.81      22.42
105.07     528.00      22.98
105.17     525.50      22.92
105.27     529.00      23.00
105.37     488.23      22.10
105.47     491.00      22.16
105.57     533.00      23.09
105.67     534.00      23.11
105.77     502.99      22.43
105.87     528.73      22.99
105.97     577.18      24.02
106.07     561.00      23.69
106.17     580.26      24.09
106.27     581.00      24.10
106.37     595.00      24.39
106.47     562.00      23.71
106.57     565.00      23.77
106.67     621.00      24.92
106.77     619.00      24.88
106.87     568.00      23.83
106.97     656.96      25.63
107.07     650.00      25.50
107.17     679.00      26.06
107.27     706.44      26.58
107.37     640.92      25.32
107.47     654.00      25.57
107.57     656.00      25.61
107.67     714.00      26.72
107.77     661.75      25.72
107.87     722.81      26.89
107.97     664.00      25.77
108.07     641.72      25.33
108.17     718.00      26.80
108.27     653.00      25.55
108.37     717.51      26.79
108.47     643.00      25.36
108.57     682.00      26.12
108.67     669.86      25.88
108.77     640.99      25.32
108.87     618.00      24.86
108.97     687.00      26.21
109.07     704.00      26.53
109.17     674.57      25.97
109.27     691.00      26.29
109.37     657.00      25.63
109.47     668.00      25.85
109.57     647.00      25.44
109.67     656.00      25.61
109.77     637.00      25.24
109.87     618.48      24.87
109.97     625.00      25.00
110.07     597.00      24.43
110.17     638.00      25.26
110.27     573.00      23.94
110.37     610.00      24.70
110.47     600.00      24.49
110.57     560.01      23.66
110.67     546.00      23.37
110.77     499.00      22.34
110.87     562.38      23.71
110.97     517.50      22.75
111.07     512.51      22.64
111.17     516.68      22.73
111.27     484.93      22.02
111.37     514.08      22.67
111.47     541.00      23.26
111.57     556.98      23.60
111.67     565.00      23.77
111.77     553.00      23.52
111.87     500.23      22.37
111.97     539.60      23.23
112.07     509.30      22.57
112.17     561.00      23.69
112.27     558.72      23.64
112.37     570.15      23.88
112.47     581.00      24.10
112.57     547.85      23.41
112.67     612.00      24.74
112.77     559.00      23.64
112.87     590.00      24.29
112.97     637.00      25.24
113.07     693.00      26.32
113.17     703.00      26.51
113.27     702.21      26.50
113.37     725.91      26.94
113.47     764.00      27.64
113.57     790.00      28.11
113.67     777.11      27.88
113.77     815.37      28.55
113.87     964.00      31.05
113.97     909.45      30.16
114.07     957.00      30.94
114.17     973.00      31.19
114.27    1101.00      33.18
114.37    1147.60      33.88
114.47    1256.00      35.44
114.57    1315.64      36.27
114.67    1410.93      37.56
114.77    1587.00      39.84
114.87    1676.00      40.94
114.97    1902.00      43.61
115.07    2001.36      44.74
115.17    2295.54      47.91
115.27    2535.00      50.35
115.37    2757.00      52.51
115.47    3094.00      55.62
115.57    3350.00      57.88
115.67    3681.00      60.67
115.77    3982.00      63.10
115.87    4614.57      67.93
115.97    4783.00      69.16
116.07    5440.02      73.76
116.17    5588.00      74.75
116.27    5876.00      76.66
116.37    6293.40      79.33
116.47    6716.22      81.95
116.57    6901.00      83.07
116.67    7031.90      83.86
116.77    7101.83      84.27
116.87    7287.92      85.37
116.97    7028.00      83.83
117.07    6979.00      83.54
117.17    6722.04      81.99
117.27    6573.74      81.08
117.37    6214.00      78.83
117.47    5673.00      75.32
117.57    5234.00      72.35
117.67    4899.00      69.99
117.77    4695.78      68.53
117.87    4301.00      65.58
117.97    3949.00      62.84
118.07    3507.00      59.22
118.17    3236.00      56.89
118.27    2909.00      53.94
118.37    2440.00      49.40
118.47    2190.00      46.80
118.57    1914.00      43.75
118.67    1635.00      40.44
118.77    1378.00      37.12
118.87    1362.57      36.91
118.97    1132.00      33.65
119.07    1052.00      32.43
119.17    1001.00      31.64
119.27     855.00      29.24
119.37     835.00      28.90
119.47     765.00      27.66
119.57     747.63      27.34
119.67     714.26      26.73
119.77     723.99      26.91
119.87     660.75      25.71
119.97     687.24      26.22
120.07     667.83      25.84
120.17     660.53      25.70
120.27     606.00      24.62
120.37     551.73      23.49
120.47     572.00      23.92
120.57     586.71      24.22
120.67     603.59      24.57
120.77     530.00      23.02
120.87     593.96      24.37
120.97     552.46      23.50
121.07     606.00      24.62
121.17     567.09      23.81
121.27     573.00      23.94
121.37     541.45      23.27
121.47     552.02      23.50
121.57     561.00      23.69
121.67     598.00      24.45
121.77     554.00      23.54
121.87     571.12      23.90
121.97     566.00      23.79
122.07     567.60      23.82
122.17     600.00      24.49
122.27     627.32      25.05
122.37     589.00      24.27
122.47     635.29      25.20
122.57     632.00      25.14
122.67     560.00      23.66
122.77     631.00      25.12
122.87     647.00      25.44
122.97     634.73      25.19
123.07     686.00      26.19
123.17     661.16      25.71
123.27     617.00      24.84
123.37     642.00      25.34
123.47     675.12      25.98
123.57     650.00      25.50
123.67     639.76      25.29
123.77     616.49      24.83
123.87     608.00      24.66
123.97     615.00      24.80
124.07     580.00      24.08
124.17     608.00      24.66
124.27     627.00      25.04
124.37     589.26      24.27
124.47     559.00      23.64
124.57     617.00      24.84
124.67     616.00      24.82
124.77     654.00      25.57
124.87     634.00      25.18
124.97     552.54      23.51
