  9.97     606.00      24.62
 10.07     706.00      26.57
 10.17     667.00      25.83
 10.27     617.25      24.84
 10.37     657.00      25.63
 10.47     687.78      26.23
 10.57     667.00      25.83
 10.67     635.32      25.21
 10.77     665.00      25.79
 10.87     638.00      25.26
 10.97     656.00      25.61
 11.07     649.00      25.48
 11.17     675.10      25.98
 11.27     676.60      26.01
 11.37     659.64      25.68
 11.47     575.55      23.99
 11.57     693.09      26.33
 11.67     687.00      26.21
 11.77     700.00      26.46
 11.87     642.66      25.35
 11.97     728.00      26.98
 12.07     788.00      28.07
 12.17     708.00      26.61
 12.27     766.00      27.68
 12.37     783.70      27.99
 12.47     714.00      26.72
 12.57     692.00      26.31
 12.67     652.00      25.53
 12.77     638.00      25.26
 12.87     701.62      26.49
 12.97     628.00      25.06
 13.07     633.00      25.16
 13.17     661.70      25.72
 13.27     580.29      24.09
 13.37     681.35      26.10
 13.47     619.00      24.88
 13.57     688.06      26.23
 13.67     592.00      24.33
 13.77     588.00      24.25
 13.87     622.38      24.95
 13.97     652.28      25.54
 14.07     647.67      25.45
 14.17     614.00      24.78
 14.27     624.00      24.98
 14.37     594.98      24.39
 14.47     581.72      24.12
 14.57     621.00      24.92
 14.67     608.00      24.66
 14.77     598.00      24.45
 14.87     681.00      26.10
 14.97     638.47      25.27
 15.07     581.00      24.10
 15.17     681.50      26.11
 15.27     587.00      24.23
 15.37     626.00      25.02
 15.47     584.14      24.17
 15.57     593.21      24.36
 15.67     648.15      25.46
 15.77     594.00      24.37
 15.87     601.00      24.52
 15.97     634.00      25.18
 16.07     638.00      25.26
 16.17     662.00      25.73
 16.27     677.00      26.02
 16.37     656.00      25.61
 16.47     659.10      25.67
 16.57     623.20      24.96
 16.67     614.00      24.78
 16.77     683.00      26.13
 16.87     648.17      25.46
 16.97     646.00      25.42
 17.07     591.00      24.31
 17.17     600.12      24.50
 17.27     603.00      24.56
 17.37     658.79      25.67
 17.47     608.00      24.66
 17.57     599.32      24.48
 17.67     608.00      24.66
 17.77     572.00      23.92
 17.87     584.64      24.18
 17.97     620.93      24.92
 18.07     596.18      24.42
 18.17     594.00      24.37
 18.27     576.00      24.00
 18.37     638.00      25.26
 18.47     658.65      25.66
 18.57     631.00      25.12
 18.67     604.00      24.58
 18.77     615.00      24.80
 18.87     685.00      26.17
 18.97     631.17      25.12
 19.07     624.00      24.98
 19.17     614.00      24.78
 19.27     659.00      25.67
 19.37     599.00      24.47
 19.47     642.16      25.34
 19.57     681.02      26.10
 19.67     607.00      24.64
 19.77     622.45      24.95
 19.87     634.32      25.19
 19.97     562.00      23.71
 20.07     604.00      24.58
 20.17     613.00      24.76
 20.27     583.54      24.16
 20.37     603.00      24.56
 20.47     567.00      23.81
 20.57     545.00      23.35
 20.67     648.09      25.46
 20.77     590.00      24.29
 20.87     666.04      25.81
 20.97     618.00      24.86
 21.07     621.23      24.92
 21.17     596.48      24.42
 21.27     626.00      25.02
 21.37     607.00      24.64
 21.47     585.00      24.19
 21.57     571.00      23.90
 21.67     634.00      25.18
 21.77     593.86      24.37
 21.87     658.97      25.67
 21.97     642.42      25.35
 22.07     646.00      25.42
 22.17     643.00      25.36
 22.27     574.00      23.96
 22.37     619.00      24.88
 22.47     629.51      25.09
 22.57     615.44      24.81
 22.67     616.00      24.82
 22.77     625.00      25.00
 22.87     588.00      24.25
 22.97     615.00      24.80
 23.07     633.00      25.16
 23.17     595.87      24.41
 23.27     675.00      25.98
 23.37     601.00      24.52
 23.47     616.00      24.82
 23.57     609.00      24.68
 23.67     642.00      25.34
 23.77     632.00      25.14
 23.87     649.18      25.48
 23.97     592.90      24.35
 24.07     594.00      24.37
 24.17     639.88      25.30
 24.27     580.58      24.10
 24.37     616.00      24.82
 24.47     632.00      25.14
 24.57     684.00      26.15
 24.67     716.54      26.77
 24.77     671.82      25.92
 24.87     697.00      26.40
 24.97     731.00      27.04
 25.07     695.00      26.36
 25.17     686.00      26.19
 25.27     685.07      26.17
 25.37     585.39      24.19
 25.47     645.00      25.40
 25.57     689.00      26.25
 25.67     588.90      24.27
 25.77     666.00      25.81
 25.87     675.67      25.99
 25.97     593.97      24.37
 26.07     708.00      26.61
 26.17     638.00      25.26
 26.27     701.00      26.48
 26.37     584.61      24.18
 26.47     672.00      25.92
 26.57     707.00      26.59
 26.67     641.67      25.33
 26.77     612.99      24.76
 26.87     647.00      25.44
 26.97     666.00      25.81
 27.07     647.90      25.45
 27.17     702.00      26.50
 27.27     758.00      27.53
 27.37     667.81      25.84
 27.47     645.36      25.40
 27.57     770.00      27.75
 27.67     699.15      26.44
 27.77     790.00      28.11
 27.87     698.41      26.43
 27.97     927.00      30.45
 28.07     929.60      30.49
 28.17    1140.44      33.77
 28.27    1334.08      36.53
 28.37    1352.00      36.77
 28.47    1372.00      37.04
 28.57    1279.88      35.78
 28.67    1072.00      32.74
 28.77    1102.00      33.20
 28.87    1165.00      34.13
 28.97    1162.00      34.09
 29.07    1187.00      34.45
 29.17    1104.00      33.23
 29.27    1094.00      33.08
 29.37     884.71      29.74
 29.47     902.00      30.03
 29.57     796.00      28.21
 29.67     705.26      26.56
 29.77     622.60      24.95
 29.87     736.00      27.13
 29.97     582.37      24.13
 30.07     568.39      23.84
 30.17     574.77      23.97
 30.27     739.00      27.18
 30.37     573.84      23.96
 30.47     738.00      27.17
 30.57     637.00      25.24
 30.67     597.19      24.44
 30.77     652.00      25.53
 30.87     705.00      26.55
 30.97     725.00      26.93
 31.07     712.75      26.70
 31.17     723.95      26.91
 31.27     693.00      26.32
 31.37     659.34      25.68
 31.47     642.64      25.35
 31.57     639.00      25.28
 31.67     616.00      24.82
 31.77     622.79      24.96
 31.87     546.31      23.37
 31.97     577.00      24.02
 32.07     643.36      25.36
 32.17     615.00      24.80
 32.27     671.00      25.90
 32.37     641.00      25.32
 32.47     636.29      25.22
 32.57     564.98      23.77
 32.67     626.00      25.02
 32.77     609.00      24.68
 32.87     657.00      25.63
 32.97     553.25      23.52
 33.07     590.00      24.29
 33.17     556.08      23.58
 33.27     597.00      24.43
 33.37     641.77      25.33
 33.47     661.03      25.71
 33.57     618.62      24.87
 33.67     687.38      26.22
 33.77     677.00      26.02
 33.87     765.00      27.66
 33.97     899.06      29.98
 34.07     969.00      31.13
 34.17    1040.00      32.25
 34.27    1086.66      32.96
 34.37     943.00      30.71
 34.47     841.00      29.00
 34.57     745.00      27.29
 34.67     694.00      26.34
 34.77     622.00      24.94
 34.87     582.06      24.13
 34.97     641.95      25.34
 35.07     631.00      25.12
 35.17     612.00      24.74
 35.27     605.00      24.60
 35.37     595.66      24.41
 35.47     586.69      24.22
 35.57     551.00      23.47
 35.67     571.00      23.90
 35.77     548.00      23.41
 35.87     541.15      23.26
 35.97     506.00      22.49
 36.07     617.73      24.85
 36.17     540.00      23.24
 36.27     569.00      23.85
 36.37     530.00      23.02
 36.47     576.01      24.00
 36.57     561.00      23.69
 36.67     582.03      24.13
 36.77     542.00      23.28
 36.87     531.31      23.05
 36.97     550.00      23.45
 37.07     582.00      24.12
 37.17     521.00      22.83
 37.27     565.00      23.77
 37.37     570.00      23.87
 37.47     571.00      23.90
 37.57     577.16      24.02
 37.67     584.00      24.17
 37.77     564.00      23.75
 37.87     540.00      23.24
 37.97     572.00      23.92
 38.07     541.00      23.26
 38.17     582.48      24.13
 38.27     634.50      25.19
 38.37     574.00      23.96
 38.47     553.00      23.52
 38.57     518.45      22.77
 38.67     536.97      23.17
 38.77     567.47      23.82
 38.87     507.00      22.52
 38.97     594.09      24.37
 39.07     538.00      23.19
 39.17     559.00      23.64
 39.27     611.45      24.73
 39.37     514.18      22.68
 39.47     566.00      23.79
 39.57     541.00      23.26
 39.67     589.76      24.29
 39.77     546.00      23.37
 39.87     509.00      22.56
 39.97     512.28      22.63
 40.07     546.00      23.37
 40.17     554.00      23.54
 40.27     545.00      23.35
 40.37     541.00      23.26
 40.47     530.96      23.04
 40.57     509.00      22.56
 40.67     512.00      22.63
 40.77     503.00      22.43
 40.87     517.61      22.75
 40.97     539.00      23.22
 41.07     541.00      23.26
 41.17     508.00      22.54
 41.27     493.00      22.20
 41.37     523.00      22.87
 41.47     572.00      23.92
 41.57     572.00      23.92
 41.67     545.36      23.35
 41.77     557.10      23.60
 41.87     525.12      22.92
 41.97     510.00      22.58
 42.07     588.24      24.25
 42.17     570.65      23.89
 42.27     528.00      22.98
 42.37     592.14      24.33
 42.47     589.00      24.27
 42.57     578.00      24.04
 42.67     619.00      24.88
 42.77     619.00      24.88
 42.87     710.94      26.66
 42.97     639.07      25.28
 43.07     642.86      25.35
 43.17     596.00      24.41
 43.27     552.00      23.49
 43.37     563.85      23.75
 43.47     577.57      24.03
 43.57     533.94      23.11
 43.67     565.00      23.77
 43.77     562.52      23.72
 43.87     516.00      22.72
 43.97     584.97      24.19
 44.07     538.00      23.19
 44.17     600.23      24.50
 44.27     535.00      23.13
 44.37     591.00      24.31
 44.47     552.00      23.49
 44.57     582.14      24.13
 44.67     540.37      23.25
 44.77     517.00      22.74
 44.87     571.57      23.91
 44.97     580.00      24.08
 45.07     581.00      24.10
 45.17     554.12      23.54
 45.27     511.00      22.61
 45.37     532.00      23.07
 45.47     490.93      22.16
 45.57     541.00      23.26
 45.67     509.26      22.57
 45.77     562.00      23.71
 45.87     556.00      23.58
 45.97     549.00      23.43
 46.07     530.99      23.04
 46.17     541.00      23.26
 46.27     585.00      24.19
 46.37     510.87      22.60
 46.47     588.73      24.26
 46.57     538.00      23.19
 46.67     582.00      24.12
 46.77     561.00      23.69
 46.87     551.00      23.47
 46.97     511.17      22.61
 47.07     574.59      23.97
 47.17     590.44      24.30
 47.27     562.69      23.72
 47.37     566.00      23.79
 47.47     577.00      24.02
 47.57     579.04      24.06
 47.67     597.00      24.43
 47.77     567.71      23.83
 47.87     570.73      23.89
 47.97     635.00      25.20
 48.07     691.00      26.29
 48.17     645.39      25.40
 48.27     641.00      25.32
 48.37     646.00      25.42
 48.47     644.00      25.38
 48.57     578.00      24.04
 48.67     619.76      24.89
 48.77     556.00      23.58
 48.87     581.00      24.10
 48.97     611.00      24.72
 49.07     580.00      24.08
 49.17     612.00      24.74
 49.27     585.50      24.20
 49.37     577.00      24.02
 49.47     597.89      24.45
 49.57     744.26      27.28
 49.67     764.46      27.65
 49.77     786.00      28.04
 49.87     953.72      30.88
 49.97    1260.48      35.50
 50.07    1347.00      36.70
 50.17    1841.00      42.91
 50.27    2006.21      44.79
 50.37    2379.00      48.77
 50.47    2379.00      48.77
 50.57    2274.00      47.69
 50.67    2027.00      45.02
 50.77    1589.53      39.87
 50.87    1207.00      34.74
 50.97    1069.48      32.70
 51.07     808.00      28.43
 51.17     717.00      26.78
 51.27     717.00      26.78
 51.37     688.67      26.24
 51.47     674.00      25.96
 51.57     731.94      27.05
 51.67     662.00      25.73
 51.77     606.00      24.62
 51.87     579.50      24.07
 51.97     629.67      25.09
 52.07     601.05      24.52
 52.17     596.00      24.41
 52.27     608.92      24.68
 52.37     605.00      24.60
 52.47     600.00      24.49
 52.57     588.00      24.25
 52.67     632.41      25.15
 52.77     607.00      24.64
 52.87     622.00      24.94
 52.97     670.00      25.88
 53.07     651.87      25.53
 53.17     758.00      27.53
 53.27     734.63      27.10
 53.37     913.00      30.22
 53.47     965.20      31.07
 53.57    1131.00      33.63
 53.67    1183.00      34.39
 53.77    1189.56      34.49
 53.87    1245.00      35.28
 53.97    1129.00      33.60
 54.07    1013.00      31.83
 54.17     890.00      29.83
 54.27     853.00      29.21
 54.37     738.29      27.17
 54.47     772.00      27.78
 54.57     670.00      25.88
 54.67     701.16      26.48
 54.77     636.00      25.22
 54.87     560.17      23.67
 54.97     653.00      25.55
 55.07     687.00      26.21
 55.17     636.62      25.23
 55.27     641.00      25.32
 55.37     569.63      23.87
 55.47     640.00      25.30
 55.57     627.00      25.04
 55.67     592.00      24.33
 55.77     645.00      25.40
 55.87     672.00      25.92
 55.97     603.00      24.56
 56.07     700.00      26.46
 56.17     710.00      26.65
 56.27     763.00      27.62
 56.37     838.00      28.95
 56.47     964.37      31.05
 56.57    1076.00      32.80
 56.67    1362.00      36.91
 56.77    1697.19      41.20
 56.87    1894.63      43.53
 56.97    2311.00      48.07
 57.07    2584.99      50.84
 57.17    2653.00      51.51
 57.27    2473.00      49.73
 57.37    2255.00      47.49
 57.47    1862.00      43.15
 57.57    1534.49      39.17
 57.67    1273.00      35.68
 57.77    1077.72      32.83
 57.87     909.00      30.15
 57.97     915.39      30.26
 58.07     814.29      28.54
 58.17     712.00      26.68
 58.27     723.00      26.89
 58.37     798.71      28.26
 58.47     826.00      28.74
 58.57     842.00      29.02
 58.67     817.98      28.60
 58.77     929.00      30.48
 58.87    1019.00      31.92
 58.97    1061.00      32.57
 59.07    1105.00      33.24
 59.17    1118.00      33.44
 59.27    1270.00      35.64
 59.37    1310.04      36.19
 59.47    1265.00      35.57
 59.57    1215.00      34.86
 59.67    1186.99      34.45
 59.77    1179.81      34.35
 59.87    1103.00      33.21
 59.97    1127.75      33.58
 60.07    1341.00      36.62
 60.17    1323.00      36.37
 60.27    1398.00      37.39
 60.37    1573.00      39.66
 60.47    1566.00      39.57
 60.57    1654.00      40.67
 60.67    1559.00      39.48
 60.77    1377.23      37.11
 60.87    1323.00      36.37
 60.97    1177.00      34.31
 61.07    1015.00      31.86
 61.17     874.94      29.58
 61.27     777.00      27.87
 61.37     796.00      28.21
 61.47     803.00      28.34
 61.57     795.53      28.21
 61.67     753.00      27.44
 61.77     823.47      28.70
 61.87     888.00      29.80
 61.97     957.00      30.94
 62.07    1030.85      32.11
 62.17    1193.90      34.55
 62.27    1314.00      36.25
 62.37    1346.00      36.69
 62.47    1368.63      36.99
 62.57    1341.00      36.62
 62.67    1333.76      36.52
 62.77    1187.00      34.45
 62.87    1019.00      31.92
 62.97     909.30      30.15
 63.07     781.00      27.95
 63.17     730.02      27.02
 63.27     696.00      26.38
 63.37     695.00      26.36
 63.47     710.20      26.65
 63.57     654.00      25.57
 63.67     646.00      25.42
 63.77     655.00      25.59
 63.87     665.00      25.79
 63.97     697.39      26.41
 64.07     684.00      26.15
 64.17     723.21      26.89
 64.27     766.00      27.68
 64.37     799.00      28.27
 64.47     894.00      29.90
 64.57     888.65      29.81
 64.67    1035.00      32.17
 64.77     971.01      31.16
 64.87    1064.00      32.62
 64.97    1068.36      32.69
 65.07    1014.20      31.85
 65.17    1049.00      32.39
 65.27    1045.00      32.33
 65.37     972.00      31.18
 65.47     973.00      31.19
 65.57     848.00      29.12
 65.67     811.00      28.48
 65.77     734.72      27.11
 65.87     706.00      26.57
 65.97     657.00      25.63
 66.07     688.00      26.23
 66.17     608.00      24.66
 66.27     692.71      26.32
 66.37     671.50      25.91
 66.47     649.55      25.49
 66.57     638.00      25.26
 66.67     619.20      24.88
 66.77     681.89      26.11
 66.87     648.00      25.46
 66.97     609.66      24.69
 67.07     714.66      26.73
 67.17     672.00      25.92
 67.27     691.00      26.29
 67.37     773.00      27.80
 67.47     771.00      27.77
 67.57     913.00      30.22
 67.67    1023.00      31.98
 67.77    1158.00      34.03
 67.87    1357.00      36.84
 67.97    1550.00      39.37
 68.07    1819.00      42.65
 68.17    2136.00      46.22
 68.27    2262.00      47.56
 68.37    2394.06      48.93
 68.47    2432.73      49.32
 68.57    2321.00      48.18
 68.67    2092.41      45.74
 68.77    2018.99      44.93
 68.87    1805.17      42.49
 68.97    1386.00      37.23
 69.07    1172.00      34.23
 69.17    1117.27      33.43
 69.27     980.00      31.30
 69.37     832.00      28.84
 69.47     759.40      27.56
 69.57     712.55      26.69
 69.67     723.00      26.89
 69.77     688.93      26.25
 69.87     656.62      25.62
 69.97     592.15      24.33
 70.07     640.72      25.31
 70.17     597.00      24.43
 70.27     659.15      25.67
 70.37     639.00      25.28
 70.47     612.00      24.74
 70.57     594.00      24.37
 70.67     652.00      25.53
 70.77     603.73      24.57
 70.87     624.00      24.98
 70.97     623.00      24.96
 71.07     649.00      25.48
 71.17     630.35      25.11
 71.27     709.89      26.64
 71.37     732.56      27.07
 71.47     794.00      28.18
 71.57     882.00      29.70
 71.67     976.00      31.24
 71.77    1080.00      32.86
 71.87    1297.00      36.01
 71.97    1480.82      38.48
 72.07    1607.18      40.09
 72.17    1683.00      41.02
 72.27    1829.00      42.77
 72.37    1971.75      44.40
 72.47    1867.00      43.21
 72.57    1847.33      42.98
 72.67    1626.00      40.32
 72.77    1558.00      39.47
 72.87    1383.00      37.19
 72.97    1222.00      34.96
 73.07    1024.84      32.01
 73.17     998.44      31.60
 73.27     903.00      30.05
 73.37     857.00      29.27
 73.47     727.50      26.97
 73.57     744.92      27.29
 73.67     655.00      25.59
 73.77     597.06      24.43
 73.87     664.00      25.77
 73.97     604.30      24.58
 74.07     609.55      24.69
 74.17     590.00      24.29
 74.27     610.00      24.70
 74.37     623.00      24.96
 74.47     640.00      25.30
 74.57     596.18      24.42
 74.67     618.00      24.86
 74.77     669.00      25.87
 74.87     584.19      24.17
 74.97     701.00      26.48
 75.07     715.00      26.74
 75.17     541.50      23.27
 75.27     658.00      25.65
 75.37     697.00      26.40
 75.47     626.00      25.02
 75.57     615.07      24.80
 75.67     650.00      25.50
 75.77     605.00      24.60
 75.87     573.79      23.95
 75.97     537.23      23.18
 76.07     599.00      24.47
 76.17     595.00      24.39
 76.27     672.67      25.94
 76.37     706.05      26.57
 76.47     715.65      26.75
 76.57     690.54      26.28
 76.67     688.70      26.24
 76.77     751.00      27.40
 76.87     759.00      27.55
 76.97     792.72      28.16
 77.07     748.00      27.35
 77.17     748.82      27.36
 77.27     761.00      27.59
 77.37     766.00      27.68
 77.47     686.21      26.20
 77.57     623.86      24.98
 77.67     605.00      24.60
 77.77     607.00      24.64
 77.87     611.00      24.72
 77.97     613.00      24.76
 78.07     546.66      23.38
 78.17     551.00      23.47
 78.27     553.64      23.53
 78.37     540.00      23.24
 78.47     563.00      23.73
 78.57     573.61      23.95
 78.67     511.23      22.61
 78.77     557.00      23.60
 78.87     518.48      22.77
 78.97     530.00      23.02
 79.07     550.00      23.45
 79.17     587.00      24.23
 79.27     540.00      23.24
 79.37     526.08      22.94
 79.47     575.00      23.98
 79.57     511.11      22.61
 79.67     579.45      24.07
 79.77     558.00      23.62
 79.87     587.47      24.24
 79.97     588.00      24.25
 80.07     544.00      23.32
 80.17     600.00      24.49
 80.27     614.00      24.78
 80.37     605.00      24.60
 80.47     636.94      25.24
 80.57     631.00      25.12
 80.67     626.00      25.02
 80.77     635.00      25.20
 80.87     614.00      24.78
 80.97     683.00      26.13
 81.07     736.00      27.13
 81.17     699.00      26.44
 81.27     758.00      27.53
 81.37     753.00      27.44
 81.47     766.00      27.68
 81.57     766.00      27.68
 81.67     807.00      28.41
 81.77     792.00      28.14
 81.87     845.12      29.07
 81.97     871.00      29.51
 82.07     773.00      27.80
 82.17     748.00      27.35
 82.27     770.00      27.75
 82.37     756.00      27.50
 82.47     697.47      26.41
 82.57     653.00      25.55
 82.67     677.00      26.02
 82.77     668.47      25.85
 82.87     651.00      25.51
 82.97     591.00      24.31
 83.07     587.00      24.23
 83.17     663.75      25.76
 83.27     593.00      24.35
 83.37     538.00      23.19
 83.47     556.00      23.58
 83.57     622.56      24.95
 83.67     591.00      24.31
 83.77     602.00      24.54
 83.87     623.15      24.96
 83.97     582.00      24.12
 84.07     547.18      23.39
 84.17     559.00      23.64
 84.27     561.00      23.69
 84.37     579.00      24.06
 84.47     606.00      24.62
 84.57     609.00      24.68
 84.67     600.00      24.49
 84.77     649.00      25.48
 84.87     566.45      23.80
 84.97     552.00      23.49
 85.07     598.98      24.47
 85.17     582.82      24.14
 85.27     612.26      24.74
 85.37     546.00      23.37
 85.47     555.00      23.56
 85.57     509.00      22.56
 85.67     519.23      22.79
 85.77     598.00      24.45
 85.87     517.00      22.74
 85.97     512.93      22.65
 86.07     588.00      24.25
 86.17     528.44      22.99
 86.27     555.00      23.56
 86.37     555.00      23.56
 86.47     591.00      24.31
 86.57     572.07      23.92
 86.67     611.76      24.73
 86.77     571.00      23.90
 86.87     588.00      24.25
 86.97     582.56      24.14
 87.07     555.00      23.56
 87.17     619.00      24.88
 87.27     623.00      24.96
 87.37     587.00      24.23
 87.47     646.00      25.42
 87.57     637.41      25.25
 87.67     677.00      26.02
 87.77     640.00      25.30
 87.87     705.62      26.56
 87.97     694.00      26.34
 88.07     677.00      26.02
 88.17     682.00      26.12
 88.27     676.00      26.00
 88.37     624.00      24.98
 88.47     686.00      26.19
 88.57     630.69      25.11
 88.67     666.79      25.82
 88.77     593.00      24.35
 88.87     606.23      24.62
 88.97     585.00      24.19
 89.07     626.38      25.03
 89.17     646.00      25.42
 89.27     552.00      23.49
 89.37     610.00      24.70
 89.47     606.00      24.62
 89.57     671.25      25.91
 89.67     624.00      24.98
 89.77     590.00      24.29
 89.87     596.13      24.42
 89.97     631.00      25.12
 90.07     565.00      23.77
 90.17     572.79      23.93
 90.27     632.64      25.15
 90.37     537.00      23.17
 90.47     550.64      23.47
 90.57     620.58      24.91
 90.67     572.22      23.92
 90.77     521.80      22.84
 90.87     534.00      23.11
 90.97     553.00      23.52
 91.07     528.84      23.00
 91.17     504.61      22.46
 91.27     540.00      23.24
 91.37     522.30      22.85
 91.47     533.00      23.09
 91.57     546.00      23.37
 91.67     534.37      23.12
 91.77     520.00      22.80
 91.87     586.22      24.21
 91.97     599.86      24.49
 92.07     534.00      23.11
 92.17     579.63      24.08
 92.27     568.00      23.83
 92.37     567.00      23.81
 92.47     614.00      24.78
 92.57     613.58      24.77
 92.67     577.00      24.02
 92.77     614.07      24.78
 92.87     595.93      24.41
 92.97     629.00      25.08
 93.07     605.00      24.60
 93.17     674.00      25.96
 93.27     683.26      26.14
 93.37     763.02      27.62
 93.47     706.00      26.57
 93.57     749.00      27.37
 93.67     793.00      28.16
 93.77     740.34      27.21
 93.87     773.00      27.80
 93.97     732.00      27.06
 94.07     807.82      28.42
 94.17     853.00      29.21
 94.27     832.00      28.84
 94.37     780.60      27.94
 94.47     855.00      29.24
 94.57     827.00      28.76
 94.67     837.00      28.93
 94.77     902.00      30.03
 94.87     984.00      31.37
 94.97     935.00      30.58
 95.07     943.43      30.72
 95.17     970.38      31.15
 95.27     963.00      31.03
 95.37     926.42      30.44
 95.47     950.00      30.82
 95.57     968.00      31.11
 95.67     887.00      29.78
 95.77     800.09      28.29
 95.87     865.00      29.41
 95.97     826.00      28.74
 96.07     801.00      28.30
 96.17     731.00      27.04
 96.27     792.00      28.14
 96.37     761.00      27.59
 96.47     740.00      27.20
 96.57     775.00      27.84
 96.67     771.00      27.77
 96.77     793.71      28.17
 96.87     826.00      28.74
 96.97     920.97      30.35
 97.07     974.30      31.21
 97.17    1004.20      31.69
 97.27     998.90      31.61
 97.37    1131.00      33.63
 97.47    1195.00      34.57
 97.57    1214.43      34.85
 97.67    1301.00      36.07
 97.77    1364.00      36.93
 97.87    1429.87      37.81
 97.97    1391.91      37.31
 98.07    1522.00      39.01
 98.17    1546.89      39.33
 98.27    1496.00      38.68
 98.37    1402.00      37.44
 98.47    1364.00      36.93
 98.57    1466.00      38.29
 98.67    1309.00      36.18
 98.77    1265.00      35.57
 98.87    1138.00      33.73
 98.97    1132.00      33.65
 99.07    1006.00      31.72
 99.17    1024.00      32.00
 99.27    1021.10      31.95
 99.37     860.00      29.33
 99.47     937.87      30.62
 99.57     936.23      30.60
 99.67     925.00      30.41
 99.77     976.00      31.24
 99.87    1011.00      31.80
 99.97    1122.00      33.50
100.07    1086.00      32.95
100.17    1183.44      34.40
100.27    1316.00      36.28
100.37    1331.00      36.48
100.47    1436.65      37.90
100.57    1659.00      40.73
100.67    1700.00      41.23
100.77    1778.00      42.17
100.87    1839.00      42.88
100.97    1916.00      43.77
101.07    1941.00      44.06
101.17    2109.00      45.92
101.27    2037.30      45.14
101.37    1945.00      44.10
101.47    1934.87      43.99
101.57    2000.00      44.72
101.67    1893.00      43.51
101.77    1843.42      42.94
101.87    1874.00      43.29
101.97    1753.34      41.87
102.07    1635.00      40.44
102.17    1556.00      39.45
102.27    1518.00      38.96
102.37    1506.85      38.82
102.47    1348.00      36.72
102.57    1329.00      36.46
102.67    1287.00      35.87
102.77    1341.62      36.63
102.87    1224.31      34.99
102.97    1191.00      34.51
103.07    1161.00      34.07
103.17    1115.00      33.39
103.27    1163.00      34.10
103.37    1131.00      33.63
103.47    1085.00      32.94
103.57    1034.85      32.17
103.67     975.00      31.22
103.77     958.00      30.95
103.87     953.29      30.88
103.97     870.00      29.50
104.07     822.88      28.69
104.17     755.54      27.49
104.27     728.38      26.99
104.37     715.09      26.74
104.47     708.00      26.61
104.57     624.29      24.99
104.67     670.31      25.89
104.77     607.00      24.64
104.87     676.06      26.00
104.97     646.00      25.42
105.07     621.00      24.92
105.17     617.00      24.84
105.27     530.16      23.03
105.37     578.00      24.04
105.47     546.87      23.39
105.57     609.66      24.69
105.67     556.00      23.58
105.77     538.02      23.20
105.87     606.00      24.62
105.97     549.42      23.44
106.07     645.00      25.40
106.17     592.00      24.33
106.27     620.05      24.90
106.37     561.00      23.69
106.47     619.00      24.88
106.57     592.00      24.33
106.67     622.00      24.94
106.77     594.00      24.37
106.87     581.78      24.12
106.97     643.00      25.36
107.07     619.00      24.88
107.17     659.00      25.67
107.27     670.00      25.88
107.37     722.39      26.88
107.47     694.00      26.34
107.57     691.00      26.29
107.67     728.00      26.98
107.77     678.35      26.05
107.87     707.00      26.59
107.97     730.00      27.02
108.07     667.00      25.83
108.17     710.00      26.65
108.27     741.00      27.22
108.37     685.00      26.17
108.47     776.59      27.87
108.57     718.00      26.80
108.67     699.00      26.44
108.77     696.00      26.38
108.87     759.31      27.56
108.97     695.00      26.36
109.07     744.01      27.28
109.17     681.65      26.11
109.27     775.00      27.84
109.37     732.50      27.06
109.47     662.29      25.74
109.57     746.00      27.31
109.67     667.27      25.83
109.77     730.59      27.03
109.87     688.00      26.23
109.97     759.98      27.57
110.07     687.00      26.21
110.17     715.61      26.75
110.27     666.13      25.81
110.37     670.00      25.88
110.47     611.69      24.73
110.57     593.47      24.36
110.67     627.39      25.05
110.77     636.00      25.22
110.87     648.95      25.47
110.97     609.00      24.68
111.07     575.00      23.98
111.17     591.00      24.31
111.27     642.15      25.34
111.37     564.44      23.76
111.47     635.00      25.20
111.57     584.00      24.17
111.67     586.00      24.21
111.77     584.00      24.17
111.87     592.00      24.33
111.97     611.00      24.72
112.07     582.31      24.13
112.17     584.00      24.17
112.27     566.00      23.79
112.37     526.00      22.93
112.47     549.00      23.43
112.57     569.00      23.85
112.67     525.00      22.91
112.77     577.00      24.02
112.87     613.00      24.76
112.97     628.00      25.06
113.07     563.38      23.74
113.17     603.65      24.57
113.27     594.17      24.38
113.37     587.00      24.23
113.47     554.04      23.54
113.57     613.00      24.76
113.67     608.00      24.66
113.77     632.00      25.14
113.87     638.00      25.26
113.97     679.96      26.08
114.07     673.00      25.94
114.17     731.16      27.04
114.27     661.00      25.71
114.37     706.00      26.57
114.47     788.34      28.08
114.57     847.00      29.10
114.67     797.00      28.23
114.77     908.79      30.15
114.87     955.00      30.90
114.97    1068.00      32.68
115.07    1088.00      32.98
115.17    1234.00      35.13
115.27    1488.00      38.57
115.37    1588.00      39.85
115.47    1746.00      41.79
115.57    1832.46      42.81
115.67    2169.59      46.58
115.77    2481.00      49.81
115.87    2702.00      51.98
115.97    3071.00      55.42
116.07    3289.00      57.35
116.17    3784.00      61.51
116.27    4136.00      64.31
116.37    4357.82      66.01
116.47    4772.69      69.08
116.57    5067.00      71.18
116.67    5537.00      74.41
116.77    5882.00      76.69
116.87    6144.00      78.38
116.97    6558.00      80.98
117.07    6599.69      81.24
117.17    7081.58      84.15
117.27    7056.00      84.00
117.37    7060.00      84.02
117.47    7319.00      85.55
117.57    6947.90      83.35
117.67    6990.00      83.61
117.77    6552.21      80.95
117.87    6450.55      80.32
117.97    6330.58      79.56
118.07    5925.73      76.98
118.17    5383.00      73.37
118.27    4980.00      70.57
118.37    4591.21      67.76
118.47    4342.69      65.90
118.57    4060.00      63.72
118.67    3674.19      60.62
118.77    3353.00      57.91
118.87    2938.00      54.20
118.97    2698.00      51.94
119.07    2453.00      49.53
119.17    2128.00      46.13
119.27    1936.00      44.00
119.37    1825.50      42.73
119.47    1550.59      39.38
119.57    1553.47      39.41
119.67    1394.00      37.34
119.77    1255.95      35.44
119.87    1192.81      34.54
119.97    1043.00      32.30
120.07    1023.00      31.98
120.17     897.00      29.95
120.27     850.00      29.15
120.37     865.00      29.41
120.47     805.00      28.37
120.57     806.00      28.39
120.67     758.00      27.53
120.77     787.00      28.05
120.87     760.51      27.58
120.97     678.00      26.04
121.07     680.00      26.08
121.17     647.00      25.44
121.27     656.00      25.61
121.37     631.00      25.12
121.47     610.00      24.70
121.57     633.00      25.16
121.67     615.00      24.80
121.77     588.18      24.25
121.87     677.94      26.04
121.97     606.00      24.62
122.07     630.00      25.10
122.17     677.00      26.02
122.27     643.00      25.36
122.37     588.42      24.26
122.47     632.00      25.14
122.57     633.00      25.16
122.67     644.00      25.38
122.77     638.71      25.27
122.87     681.70      26.11
122.97     606.00      24.62
123.07     657.08      25.63
123.17     666.00      25.81
123.27     667.00      25.83
123.37     642.00      25.34
123.47     625.43      25.01
123.57     627.00      25.04
123.67     681.00      26.10
123.77     716.00      26.76
123.87     679.00      26.06
123.97     643.00      25.36
124.07     687.90      26.23
124.17     621.00      24.92
124.27     674.00      25.96
124.37     639.25      25.28
124.47     697.24      26.41
124.57     609.47      24.69
124.67     579.43      24.07
124.77     656.00      25.61
124.87     703.00      26.51
124.97     618.00      24.86
