  9.97     596.00      24.41
 10.07     645.00      25.40
 10.17     611.58      24.73
 10.27     592.08      24.33
 10.37     577.16      24.02
 10.47     532.00      23.07
 10.57     574.29      23.96
 10.67     602.59      24.55
 10.77     590.88      24.31
 10.87     565.38      23.78
 10.97     570.00      23.87
 11.07     574.00      23.96
 11.17     592.00      24.33
 11.27     595.00      24.39
 11.37     597.65      24.45
 11.47     594.14      24.37
 11.57     626.00      25.02
 11.67     575.66      23.99
 11.77     660.00      25.69
 11.87     606.11      24.62
 11.97     664.86      25.78
 12.07     683.16      26.14
 12.17     659.00      25.67
 12.27     729.78      27.01
 12.37     665.00      25.79
 12.47     603.00      24.56
 12.57     597.00      24.43
 12.67     555.00      23.56
 12.77     594.00      24.37
 12.87     545.14      23.35
 12.97     562.00      23.71
 13.07     603.99      24.58
 13.17     564.00      23.75
 13.27     617.21      24.84
 13.37     569.00      23.85
 13.47     594.46      24.38
 13.57     548.47      23.42
 13.67     555.00      23.56
 13.77     526.00      22.93
 13.87     603.32      24.56
 13.97     554.00      23.54
 14.07     500.00      22.36
 14.17     543.63      23.32
 14.27     521.25      22.83
 14.37     529.00      23.00
 14.47     550.23      23.46
 14.57     549.00      23.43
 14.67     560.99      23.69
 14.77     560.00      23.66
 14.87     589.00      24.27
 14.97     586.80      24.22
 15.07     578.00      24.04
 15.17     478.00      21.86
 15.27     539.00      23.22
 15.37     618.00      24.86
 15.47     536.00      23.15
 15.57     521.56      22.84
 15.67     596.00      24.41
 15.77     538.00      23.19
 15.87     561.00      23.69
 15.97     593.48      24.36
 16.07     592.00      24.33
 16.17     573.78      23.95
 16.27     573.00      23.94
 16.37     543.62      23.32
 16.47     531.00      23.04
 16.57     541.00      23.26
 16.67     582.24      24.13
 16.77     520.74      22.82
 16.87     553.00      23.52
 16.97     548.58      23.42
 17.07     515.00      22.69
 17.17     529.79      23.02
 17.27     556.00      23.58
 17.37     539.00      23.22
 17.47     527.00      22.96
 17.57     569.00      23.85
 17.67     570.00      23.87
 17.77     571.00      23.90
 17.87     562.00      23.71
 17.97     568.00      23.83
 18.07     583.99      24.17
 18.17     566.00      23.79
 18.27     566.85      23.81
 18.37     527.00      22.96
 18.47     588.00      24.25
 18.57     580.00      24.08
 18.67     570.85      23.89
 18.77     560.78      23.68
 18.87     589.82      24.29
 18.97     563.73      23.74
 19.07     590.80      24.31
 19.17     565.00      23.77
 19.27     551.64      23.49
 19.37     564.00      23.75
 19.47     577.00      24.02
 19.57     522.00      22.85
 19.67     578.00      24.04
 19.77     565.00      23.77
 19.87     559.00      23.64
 19.97     595.97      24.41
 20.07     571.72      23.91
 20.17     565.00      23.77
 20.27     600.67      24.51
 20.37     551.00      23.47
 20.47     572.00      23.92
 20.57     563.99      23.75
 20.67     532.00      23.07
 20.77     544.57      23.34
 20.87     551.00      23.47
 20.97     568.00      23.83
 21.07     528.47      22.99
 21.17     544.00      23.32
 21.27     574.36      23.97
 21.37     562.00      23.71
 21.47     594.00      24.37
 21.57     583.00      24.15
 21.67     517.36      22.75
 21.77     588.30      24.25
 21.87     542.00      23.28
 21.97     527.98      22.98
 22.07     574.00      23.96
 22.17     532.00      23.07
 22.27     564.64      23.76
 22.37     530.00      23.02
 22.47     572.00      23.92
 22.57     516.94      22.74
 22.67     559.00      23.64
 22.77     552.00      23.49
 22.87     521.00      22.83
 22.97     535.00      23.13
 23.07     524.74      22.91
 23.17     569.00      23.85
 23.27     525.00      22.91
 23.37     588.92      24.27
 23.47     525.99      22.93
 23.57     535.13      23.13
 23.67     540.00      23.24
 23.77     504.34      22.46
 23.87     577.75      24.04
 23.97     506.00      22.49
 24.07     573.84      23.95
 24.17     597.32      24.44
 24.27     597.91      24.45
 24.37     594.00      24.37
 24.47     617.68      24.85
 24.57     571.00      23.90
 24.67     644.16      25.38
 24.77     601.00      24.52
 24.87     610.00      24.70
 24.97     582.00      24.12
 25.07     556.00      23.58
 25.17     596.92      24.43
 25.27     549.00      23.43
 25.37     503.09      22.43
 25.47     529.00      23.00
 25.57     575.05      23.98
 25.67     562.00      23.71
 25.77     558.00      23.62
 25.87     567.00      23.81
 25.97     551.00      23.47
 26.07     569.74      23.87
 26.17     508.83      22.56
 26.27     564.00      23.75
 26.37     509.78      22.58
 26.47     596.00      24.41
 26.57     544.00      23.32
 26.67     543.00      23.30
 26.77     552.00      23.49
 26.87     562.00      23.71
 26.97     558.00      23.62
 27.07     567.00      23.81
 27.17     520.00      22.80
 27.27     503.37      22.44
 27.37     531.86      23.06
 27.47     559.00      23.64
 27.57     575.77      24.00
 27.67     572.00      23.92
 27.77     559.44      23.65
 27.87     623.00      24.96
 27.97     649.31      25.48
 28.07     779.00      27.91
 28.17     934.00      30.56
 28.27     970.14      31.15
 28.37     886.00      29.77
 28.47     801.00      28.30
 28.57     732.00      27.06
 28.67     655.00      25.59
 28.77     768.02      27.71
 28.87     804.00      28.35
 28.97     845.00      29.07
 29.07     792.00      28.14
 29.17     685.00      26.17
 29.27     659.00      25.67
 29.37     642.00      25.34
 29.47     560.00      23.66
 29.57     588.00      24.25
 29.67     604.00      24.58
 29.77     567.84      23.83
 29.87     619.00      24.88
 29.97     552.00      23.49
 30.07     552.22      23.50
 30.17     544.00      23.32
 30.27     540.00      23.24
 30.37     615.00      24.80
 30.47     543.00      23.30
 30.57     576.10      24.00
 30.67     581.00      24.10
 30.77     565.88      23.79
 30.87     574.00      23.96
 30.97     626.00      25.02
 31.07     619.00      24.88
 31.17     585.00      24.19
 31.27     560.00      23.66
 31.37     543.60      23.32
 31.47     563.00      23.73
 31.57     527.00      22.96
 31.67     507.00      22.52
 31.77     556.00      23.58
 31.87     506.00      22.49
 31.97     565.00      23.77
 32.07     574.00      23.96
 32.17     513.15      22.65
 32.27     539.00      23.22
 32.37     573.00      23.94
 32.47     566.00      23.79
 32.57     549.30      23.44
 32.67     541.00      23.26
 32.77     548.00      23.41
 32.87     556.93      23.60
 32.97     556.07      23.58
 33.07     554.00      23.54
 33.17     540.00      23.24
 33.27     547.00      23.39
 33.37     540.00      23.24
 33.47     536.07      23.15
 33.57     583.39      24.15
 33.67     623.85      24.98
 33.77     788.00      28.07
 33.87     883.00      29.72
 33.97    1043.00      32.30
 34.07     997.00      31.58
 34.17     990.00      31.46
 34.27     916.00      30.27
 34.37     745.00      27.29
 34.47     651.00      25.51
 34.57     544.00      23.32
 34.67     564.00      23.75
 34.77     527.13      22.96
 34.87     534.00      23.11
 34.97     515.00      22.69
 35.07     579.00      24.06
 35.17     551.23      23.48
 35.27     498.00      22.32
 35.37     506.00      22.49
 35.47     499.26      22.34
 35.57     548.00      23.41
 35.67     525.00      22.91
 35.77     509.07      22.56
 35.87     547.00      23.39
 35.97     464.00      21.54
 36.07     488.00      22.09
 36.17     506.00      22.49
 36.27     535.00      23.13
 36.37     536.00      23.15
 36.47     529.54      23.01
 36.57     511.00      22.61
 36.67     503.71      22.44
 36.77     509.00      22.56
 36.87     521.00      22.83
 36.97     525.76      22.93
 37.07     555.92      23.58
 37.17     527.85      22.97
 37.27     544.08      23.33
 37.37     511.00      22.61
 37.47     533.00      23.09
 37.57     517.00      22.74
 37.67     500.88      22.38
 37.77     547.00      23.39
 37.87     532.00      23.07
 37.97     508.00      22.54
 38.07     489.17      22.12
 38.17     540.92      23.26
 38.27     543.91      23.32
 38.37     486.66      22.06
 38.47     554.00      23.54
 38.57     510.00      22.58
 38.67     505.00      22.47
 38.77     492.05      22.18
 38.87     508.14      22.54
 38.97     531.00      23.04
 39.07     486.00      22.05
 39.17     521.76      22.84
 39.27     461.00      21.47
 39.37     563.00      23.73
 39.47     495.39      22.26
 39.57     495.00      22.25
 39.67     515.46      22.70
 39.77     518.00      22.76
 39.87     500.00      22.36
 39.97     516.00      22.72
 40.07     471.96      21.72
 40.17     505.64      22.49
 40.27     514.00      22.67
 40.37     493.00      22.20
 40.47     518.54      22.77
 40.57     502.00      22.41
 40.67     463.00      21.52
 40.77     466.95      21.61
 40.87     468.00      21.63
 40.97     493.00      22.20
 41.07     519.00      22.78
 41.17     488.67      22.11
 41.27     550.23      23.46
 41.37     504.00      22.45
 41.47     504.00      22.45
 41.57     504.70      22.47
 41.67     492.00      22.18
 41.77     491.23      22.16
 41.87     505.00      22.47
 41.97     473.89      21.77
 42.07     490.00      22.14
 42.17     500.10      22.36
 42.27     504.00      22.45
 42.37     538.35      23.20
 42.47     573.74      23.95
 42.57     578.00      24.04
 42.67     608.00      24.66
 42.77     629.00      25.08
 42.87     603.00      24.56
 42.97     593.72      24.37
 43.07     598.14      24.46
 43.17     566.49      23.80
 43.27     547.23      23.39
 43.37     486.62      22.06
 43.47     522.00      22.85
 43.57     497.00      22.29
 43.67     482.44      21.96
 43.77     453.00      21.28
 43.87     532.94      23.09
 43.97     514.00      22.67
 44.07     478.00      21.86
 44.17     542.40      23.29
 44.27     475.17      21.80
 44.37     475.25      21.80
 44.47     458.00      21.40
 44.57     527.93      22.98
 44.67     530.76      23.04
 44.77     511.00      22.61
 44.87     511.00      22.61
 44.97     502.00      22.41
 45.07     526.00      22.93
 45.17     479.00      21.89
 45.27     517.12      22.74
 45.37     546.00      23.37
 45.47     477.00      21.84
 45.57     542.00      23.28
 45.67     500.00      22.36
 45.77     480.00      21.91
 45.87     509.00      22.56
 45.97     515.00      22.69
 46.07     526.00      22.93
 46.17     549.53      23.44
 46.27     500.48      22.37
 46.37     514.99      22.69
 46.47     508.00      22.54
 46.57     510.00      22.58
 46.67     533.00      23.09
 46.77     521.00      22.83
 46.87     519.00      22.78
 46.97     529.00      23.00
 47.07     529.71      23.02
 47.17     549.00      23.43
 47.27     491.24      22.16
 47.37     555.00      23.56
 47.47     547.00      23.39
 47.57     582.33      24.13
 47.67     553.69      23.53
 47.77     573.00      23.94
 47.87     637.05      25.24
 47.97     625.00      25.00
 48.07     559.00      23.64
 48.17     583.33      24.15
 48.27     593.95      24.37
 48.37     592.00      24.33
 48.47     517.00      22.74
 48.57     574.00      23.96
 48.67     505.48      22.48
 48.77     555.00      23.56
 48.87     574.22      23.96
 48.97     534.00      23.11
 49.07     589.25      24.27
 49.17     594.00      24.37
 49.27     633.09      25.16
 49.37     669.00      25.87
 49.47     704.00      26.53
 49.57     745.51      27.30
 49.67     892.00      29.87
 49.77    1094.00      33.08
 49.87    1440.13      37.95
 49.97    1870.00      43.24
 50.07    2256.00      47.50
 50.17    2542.00      50.42
 50.27    2526.44      50.26
 50.37    2333.48      48.31
 50.47    1876.70      43.32
 50.57    1485.16      38.54
 50.67     998.00      31.59
 50.77     847.00      29.10
 50.87     718.00      26.80
 50.97     660.00      25.69
 51.07     653.00      25.55
 51.17     591.00      24.31
 51.27     640.31      25.30
 51.37     607.88      24.66
 51.47     528.14      22.98
 51.57     574.00      23.96
 51.67     573.00      23.94
 51.77     544.00      23.32
 51.87     514.61      22.69
 51.97     585.00      24.19
 52.07     587.00      24.23
 52.17     519.27      22.79
 52.27     590.00      24.29
 52.37     536.00      23.15
 52.47     582.46      24.13
 52.57     563.00      23.73
 52.67     621.00      24.92
 52.77     580.00      24.08
 52.87     613.49      24.77
 52.97     734.00      27.09
 53.07     848.00      29.12
 53.17     965.00      31.06
 53.27    1029.00      32.08
 53.37    1155.00      33.99
 53.47    1133.00      33.66
 53.57    1140.00      33.76
 53.67    1075.00      32.79
 53.77    1003.14      31.67
 53.87     863.00      29.38
 53.97     813.64      28.52
 54.07     690.00      26.27
 54.17     599.00      24.47
 54.27     584.38      24.17
 54.37     558.00      23.62
 54.47     591.00      24.31
 54.57     582.47      24.13
 54.67     574.00      23.96
 54.77     580.00      24.08
 54.87     592.53      24.34
 54.97     582.03      24.13
 55.07     541.26      23.27
 55.17     555.00      23.56
 55.27     533.00      23.09
 55.37     580.00      24.08
 55.47     588.00      24.25
 55.57     586.67      24.22
 55.67     591.76      24.33
 55.77     569.07      23.86
 55.87     642.11      25.34
 55.97     595.00      24.39
 56.07     652.00      25.53
 56.17     811.47      28.49
 56.27     918.00      30.30
 56.37    1180.00      34.35
 56.47    1405.00      37.48
 56.57    1912.60      43.73
 56.67    2247.66      47.41
 56.77    2558.00      50.58
 56.87    2673.00      51.70
 56.97    2685.72      51.82
 57.07    2453.00      49.53
 57.17    2030.97      45.07
 57.27    1701.00      41.24
 57.37    1327.00      36.43
 57.47    1045.00      32.33
 57.57     893.00      29.88
 57.67     735.14      27.11
 57.77     714.00      26.72
 57.87     669.00      25.87
 57.97     610.27      24.70
 58.07     677.71      26.03
 58.17     760.07      27.57
 58.27     796.41      28.22
 58.37     818.00      28.60
 58.47     947.00      30.77
 58.57    1107.33      33.28
 58.67    1179.00      34.34
 58.77    1253.00      35.40
 58.87    1393.00      37.32
 58.97    1507.60      38.83
 59.07    1467.00      38.30
 59.17    1432.20      37.84
 59.27    1410.00      37.55
 59.37    1376.00      37.09
 59.47    1318.00      36.30
 59.57    1154.00      33.97
 59.67    1134.00      33.67
 59.77    1189.00      34.48
 59.87    1263.00      35.54
 59.97    1298.00      36.03
 60.07    1507.00      38.82
 60.17    1557.66      39.47
 60.27    1522.74      39.02
 60.37    1500.46      38.74
 60.47    1439.00      37.93
 60.57    1263.00      35.54
 60.67    1131.79      33.64
 60.77     924.03      30.40
 60.87     788.93      28.09
 60.97     759.15      27.55
 61.07     649.00      25.48
 61.17     631.00      25.12
 61.27     607.00      24.64
 61.37     637.66      25.25
 61.47     774.00      27.82
 61.57     757.80      27.53
 61.67     876.00      29.60
 61.77     946.00      30.76
 61.87    1164.00      34.12
 61.97    1258.00      35.47
 62.07    1425.00      37.75
 62.17    1461.00      38.22
 62.27    1479.59      38.47
 62.37    1331.68      36.49
 62.47    1176.00      34.29
 62.57     993.00      31.51
 62.67     912.21      30.20
 62.77     731.00      27.04
 62.87     709.00      26.63
 62.97     627.00      25.04
 63.07     602.99      24.56
 63.17     614.00      24.78
 63.27     603.00      24.56
 63.37     545.00      23.35
 63.47     598.00      24.45
 63.57     578.00      24.04
 63.67     583.00      24.15
 63.77     662.00      25.73
 63.87     633.00      25.16
 63.97     719.00      26.81
 64.07     739.00      27.18
 64.17     749.74      27.38
 64.27     807.00      28.41
 64.37     852.00      29.19
 64.47     986.00      31.40
 64.57     998.00      31.59
 64.67    1065.88      32.65
 64.77    1002.00      31.65
 64.87     966.00      31.08
 64.97     933.00      30.55
 65.07     859.00      29.31
 65.17     812.17      28.50
 65.27     721.00      26.85
 65.37     704.00      26.53
 65.47     660.00      25.69
 65.57     584.46      24.18
 65.67     619.00      24.88
 65.77     641.08      25.32
 65.87     534.00      23.11
 65.97     607.00      24.64
 66.07     512.00      22.63
 66.17     520.00      22.80
 66.27     581.00      24.10
 66.37     544.00      23.32
 66.47     604.73      24.59
 66.57     554.00      23.54
 66.67     609.61      24.69
 66.77     545.00      23.35
 66.87     581.00      24.10
 66.97     576.37      24.01
 67.07     684.00      26.15
 67.17     694.48      26.35
 67.27     809.13      28.45
 67.37     901.72      30.03
 67.47    1053.16      32.45
 67.57    1293.75      35.97
 67.67    1575.00      39.69
 67.77    1748.00      41.81
 67.87    2061.00      45.40
 67.97    2360.00      48.58
 68.07    2539.00      50.39
 68.17    2494.00      49.94
 68.27    2266.00      47.60
 68.37    2175.00      46.64
 68.47    1749.09      41.82
 68.57    1583.00      39.79
 68.67    1202.00      34.67
 68.77    1026.58      32.04
 68.87     915.00      30.25
 68.97     765.70      27.67
 69.07     707.00      26.59
 69.17     640.00      25.30
 69.27     640.00      25.30
 69.37     628.00      25.06
 69.47     601.00      24.52
 69.57     614.35      24.79
 69.67     594.00      24.37
 69.77     553.32      23.52
 69.87     536.23      23.16
 69.97     588.00      24.25
 70.07     580.00      24.08
 70.17     567.68      23.83
 70.27     564.00      23.75
 70.37     611.88      24.74
 70.47     567.00      23.81
 70.57     568.00      23.83
 70.67     560.00      23.66
 70.77     572.00      23.92
 70.87     603.00      24.56
 70.97     637.00      25.24
 71.07     659.02      25.67
 71.17     694.00      26.34
 71.27     804.00      28.35
 71.37     933.59      30.55
 71.47    1076.41      32.81
 71.57    1215.00      34.86
 71.67    1518.94      38.97
 71.77    1671.69      40.89
 71.87    1779.07      42.18
 71.97    1902.00      43.61
 72.07    1904.00      43.63
 72.17    1967.00      44.35
 72.27    1779.92      42.19
 72.37    1616.00      40.20
 72.47    1385.27      37.22
 72.57    1325.84      36.41
 72.67    1224.80      35.00
 72.77    1086.48      32.96
 72.87     856.00      29.26
 72.97     864.00      29.39
 73.07     825.31      28.73
 73.17     770.00      27.75
 73.27     667.00      25.83
 73.37     676.00      26.00
 73.47     641.00      25.32
 73.57     642.01      25.34
 73.67     580.00      24.08
 73.77     575.00      23.98
 73.87     571.00      23.90
 73.97     583.00      24.15
 74.07     594.00      24.37
 74.17     598.21      24.46
 74.27     594.52      24.38
 74.37     582.00      24.12
 74.47     552.51      23.51
 74.57     547.39      23.40
 74.67     591.77      24.33
 74.77     605.77      24.61
 74.87     614.00      24.78
 74.97     586.77      24.22
 75.07     551.00      23.47
 75.17     612.00      24.74
 75.27     569.14      23.86
 75.37     523.64      22.88
 75.47     584.00      24.17
 75.57     522.00      22.85
 75.67     609.00      24.68
 75.77     623.43      24.97
 75.87     619.00      24.88
 75.97     586.54      24.22
 76.07     687.00      26.21
 76.17     654.00      25.57
 76.27     686.00      26.19
 76.37     703.00      26.51
 76.47     750.00      27.39
 76.57     750.49      27.40
 76.67     720.00      26.83
 76.77     743.00      27.26
 76.87     609.00      24.68
 76.97     605.57      24.61
 77.07     603.00      24.56
 77.17     567.00      23.81
 77.27     610.59      24.71
 77.37     610.38      24.71
 77.47     570.44      23.88
 77.57     515.92      22.71
 77.67     563.00      23.73
 77.77     528.00      22.98
 77.87     554.00      23.54
 77.97     536.38      23.16
 78.07     528.00      22.98
 78.17     503.00      22.43
 78.27     489.00      22.11
 78.37     497.00      22.29
 78.47     512.00      22.63
 78.57     560.00      23.66
 78.67     548.38      23.42
 78.77     492.00      22.18
 78.87     496.00      22.27
 78.97     522.00      22.85
 79.07     525.00      22.91
 79.17     521.93      22.85
 79.27     537.00      23.17
 79.37     541.00      23.26
 79.47     520.43      22.81
 79.57     514.00      22.67
 79.67     529.00      23.00
 79.77     523.51      22.88
 79.87     556.00      23.58
 79.97     540.00      23.24
 80.07     512.99      22.65
 80.17     561.94      23.71
 80.27     605.00      24.60
 80.37     597.00      24.43
 80.47     591.00      24.31
 80.57     571.00      23.90
 80.67     616.00      24.82
 80.77     673.09      25.94
 80.87     657.00      25.63
 80.97     656.69      25.63
 81.07     709.00      26.63
 81.17     685.75      26.19
 81.27     730.18      27.02
 81.37     772.00      27.78
 81.47     729.00      27.00
 81.57     783.00      27.98
 81.67     787.00      28.05
 81.77     745.00      27.29
 81.87     706.50      26.58
 81.97     709.00      26.63
 82.07     644.00      25.38
 82.17     662.00      25.73
 82.27     586.65      24.22
 82.37     612.00      24.74
 82.47     607.00      24.64
 82.57     580.00      24.08
 82.67     597.26      24.44
 82.77     577.00      24.02
 82.87     584.00      24.17
 82.97     550.55      23.46
 83.07     539.00      23.22
 83.17     572.00      23.92
 83.27     536.36      23.16
 83.37     531.43      23.05
 83.47     524.84      22.91
 83.57     521.48      22.84
 83.67     558.00      23.62
 83.77     532.00      23.07
 83.87     640.00      25.30
 83.97     558.27      23.63
 84.07     583.00      24.15
 84.17     579.00      24.06
 84.27     548.00      23.41
 84.37     584.00      24.17
 84.47     581.00      24.10
 84.57     535.00      23.13
 84.67     585.00      24.19
 84.77     531.00      23.04
 84.87     548.00      23.41
 84.97     490.00      22.14
 85.07     503.00      22.43
 85.17     564.00      23.75
 85.27     530.61      23.04
 85.37     499.00      22.34
 85.47     557.20      23.61
 85.57     572.00      23.92
 85.67     542.91      23.30
 85.77     567.47      23.82
 85.87     555.00      23.56
 85.97     569.15      23.86
 86.07     536.35      23.16
 86.17     510.00      22.58
 86.27     556.00      23.58
 86.37     521.40      22.83
 86.47     553.00      23.52
 86.57     563.00      23.73
 86.67     590.00      24.29
 86.77     583.00      24.15
 86.87     623.00      24.96
 86.97     608.51      24.67
 87.07     623.00      24.96
 87.17     653.00      25.55
 87.27     651.90      25.53
 87.37     640.73      25.31
 87.47     637.00      25.24
 87.57     627.00      25.04
 87.67     682.00      26.12
 87.77     648.00      25.46
 87.87     687.00      26.21
 87.97     631.68      25.13
 88.07     593.67      24.37
 88.17     623.00      24.96
 88.27     585.00      24.19
 88.37     551.00      23.47
 88.47     541.00      23.26
 88.57     613.00      24.76
 88.67     587.00      24.23
 88.77     566.46      23.80
 88.87     560.32      23.67
 88.97     558.00      23.62
 89.07     583.00      24.15
 89.17     613.00      24.76
 89.27     619.18      24.88
 89.37     565.39      23.78
 89.47     597.00      24.43
 89.57     583.34      24.15
 89.67     599.00      24.47
 89.77     547.00      23.39
 89.87     626.01      25.02
 89.97     577.00      24.02
 90.07     564.00      23.75
 90.17     540.42      23.25
 90.27     582.00      24.12
 90.37     514.45      22.68
 90.47     546.00      23.37
 90.57     518.00      22.76
 90.67     512.67      22.64
 90.77     501.00      22.38
 90.87     527.00      22.96
 90.97     506.00      22.49
 91.07     497.00      22.29
 91.17     557.11      23.60
 91.27     505.36      22.48
 91.37     522.00      22.85
 91.47     556.00      23.58
 91.57     488.91      22.11
 91.67     542.59      23.29
 91.77     522.00      22.85
 91.87     519.23      22.79
 91.97     509.65      22.58
 92.07     547.10      23.39
 92.17     540.00      23.24
 92.27     592.10      24.33
 92.37     632.86      25.16
 92.47     655.96      25.61
 92.57     658.00      25.65
 92.67     658.00      25.65
 92.77     719.00      26.81
 92.87     679.67      26.07
 92.97     735.00      27.11
 93.07     723.71      26.90
 93.17     722.55      26.88
 93.27     744.23      27.28
 93.37     776.00      27.86
 93.47     799.91      28.28
 93.57     790.18      28.11
 93.67     793.67      28.17
 93.77     850.00      29.15
 93.87     796.75      28.23
 93.97     781.39      27.95
 94.07     827.91      28.77
 94.17     836.00      28.91
 94.27     880.88      29.68
 94.37     840.00      28.98
 94.47     889.00      29.82
 94.57     889.21      29.82
 94.67     950.00      30.82
 94.77     923.00      30.38
 94.87     877.00      29.61
 94.97     903.53      30.06
 95.07     903.37      30.06
 95.17     812.60      28.51
 95.27     809.62      28.45
 95.37     821.00      28.65
 95.47     785.00      28.02
 95.57     792.00      28.14
 95.67     723.00      26.89
 95.77     713.00      26.70
 95.87     666.17      25.81
 95.97     638.30      25.26
 96.07     758.00      27.53
 96.17     654.22      25.58
 96.27     717.00      26.78
 96.37     792.00      28.14
 96.47     826.02      28.74
 96.57     899.65      29.99
 96.67     983.18      31.36
 96.77    1032.01      32.12
 96.87    1028.00      32.06
 96.97    1201.29      34.66
 97.07    1185.00      34.42
 97.17    1300.42      36.06
 97.27    1376.00      37.09
 97.37    1407.63      37.52
 97.47    1425.13      37.75
 97.57    1448.00      38.05
 97.67    1392.07      37.31
 97.77    1348.00      36.72
 97.87    1386.00      37.23
 97.97    1299.00      36.04
 98.07    1199.00      34.63
 98.17    1089.00      33.00
 98.27    1135.00      33.69
 98.37    1079.58      32.86
 98.47    1020.00      31.94
 98.57     940.13      30.66
 98.67     813.00      28.51
 98.77     842.00      29.02
 98.87     770.00      27.75
 98.97     752.00      27.42
 99.07     844.00      29.05
 99.17     781.00      27.95
 99.27     925.10      30.42
 99.37     958.00      30.95
 99.47    1011.72      31.81
 99.57    1070.00      32.71
 99.67    1199.00      34.63
 99.77    1229.18      35.06
 99.87    1398.00      37.39
 99.97    1591.01      39.89
100.07    1616.00      40.20
100.17    1765.53      42.02
100.27    1833.54      42.82
100.37    1873.00      43.28
100.47    2077.00      45.57
100.57    1973.31      44.42
100.67    1990.29      44.61
100.77    2148.00      46.35
100.87    2046.06      45.23
100.97    1985.12      44.55
101.07    1967.00      44.35
101.17    1868.00      43.22
101.27    1848.00      42.99
101.37    1752.00      41.86
101.47    1568.50      39.60
101.57    1566.00      39.57
101.67    1438.29      37.92
101.77    1331.97      36.50
101.87    1311.00      36.21
101.97    1228.00      35.04
102.07    1147.00      33.87
102.17    1178.00      34.32
102.27    1133.00      33.66
102.37    1100.00      33.17
102.47    1053.36      32.46
102.57    1052.00      32.43
102.67    1073.00      32.76
102.77    1052.00      32.43
102.87     939.00      30.64
102.97     925.01      30.41
103.07     901.00      30.02
103.17     835.50      28.90
103.27     872.00      29.53
103.37     837.17      28.93
103.47     792.51      28.15
103.57     750.00      27.39
103.67     703.00      26.51
103.77     706.00      26.57
103.87     643.00      25.36
103.97     637.00      25.24
104.07     645.00      25.40
104.17     583.84      24.16
104.27     589.57      24.28
104.37     604.57      24.59
104.47     550.83      23.47
104.57     513.32      22.66
104.67     565.57      23.78
104.77     590.00      24.29
104.87     563.00      23.73
104.97     494.00      22.23
105.07     535.00      23.13
105.17     546.00      23.37
105.27     567.83      23.83
105.37     515.24      22.70
105.47     562.00      23.71
105.57     562.00      23.71
105.67     593.00      24.35
105.77     543.62      23.32
105.87     553.00      23.52
105.97     560.00      23.66
106.07     583.00      24.15
106.17     565.24      23.77
106.27     635.24      25.20
106.37     569.12      23.86
106.47     610.00      24.70
106.57     632.00      25.14
106.67     660.00      25.69
106.77     662.00      25.73
106.87     619.96      24.90
106.97     632.40      25.15
107.07     666.00      25.81
107.17     679.00      26.06
107.27     703.00      26.51
107.37     674.00      25.96
107.47     686.27      26.20
107.57     691.55      26.30
107.67     652.00      25.53
107.77     688.00      26.23
107.87     652.00      25.53
107.97     712.00      26.68
108.07     687.00      26.21
108.17     656.99      25.63
108.27     667.93      25.84
108.37     698.00      26.42
108.47     659.00      25.67
108.57     639.00      25.28
108.67     669.00      25.87
108.77     667.56      25.84
108.87     640.00      25.30
108.97     685.00      26.17
109.07     685.15      26.18
109.17     646.00      25.42
109.27     684.00      26.15
109.37     649.00      25.48
109.47     628.09      25.06
109.57     703.00      26.51
109.67     578.15      24.04
109.77     646.89      25.43
109.87     604.00      24.58
109.97     607.00      24.64
110.07     600.00      24.49
110.17     535.60      23.14
110.27     567.00      23.81
110.37     556.00      23.58
110.47     579.00      24.06
110.57     546.00      23.37
110.67     542.00      23.28
110.77     530.67      23.04
110.87     554.00      23.54
110.97     522.00      22.85
111.07     536.00      23.15
111.17     539.64      23.23
111.27     535.00      23.13
111.37     569.43      23.86
111.47     469.00      21.66
111.57     548.00      23.41
111.67     530.00      23.02
111.77     539.00      23.22
111.87     577.31      24.03
111.97     601.30      24.52
112.07     592.72      24.35
112.17     565.02      23.77
112.27     606.05      24.62
112.37     547.49      23.40
112.47     565.00      23.77
112.57     602.00      24.54
112.67     618.52      24.87
112.77     599.00      24.47
112.87     573.00      23.94
112.97     668.00      25.85
113.07     653.65      25.57
113.17     720.00      26.83
113.27     696.00      26.38
113.37     686.00      26.19
113.47     740.00      27.20
113.57     808.00      28.43
113.67     785.67      28.03
113.77     893.10      29.88
113.87     845.00      29.07
113.97     952.00      30.85
114.07     952.12      30.86
114.17    1031.00      32.11
114.27    1055.00      32.48
114.37    1163.03      34.10
114.47    1376.00      37.09
114.57    1361.84      36.90
114.67    1458.62      38.19
114.77    1648.00      40.60
114.87    1882.87      43.39
114.97    2079.00      45.60
115.07    2400.00      48.99
115.17    2571.00      50.71
115.27    2896.00      53.81
115.37    3127.00      55.92
115.47    3387.00      58.20
115.57    3748.83      61.23
115.67    4050.00      63.64
115.77    4474.00      66.89
115.87    5043.36      71.02
115.97    5298.00      72.79
116.07    5538.00      74.42
116.17    5834.00      76.38
116.27    6204.88      78.77
116.37    6597.00      81.22
116.47    6820.00      82.58
116.57    6781.00      82.35
116.67    7046.55      83.94
116.77    6721.36      81.98
116.87    6845.00      82.73
116.97    6843.00      82.72
117.07    6289.00      79.30
117.17    6162.00      78.50
117.27    5888.90      76.74
117.37    5275.00      72.63
117.47    5017.30      70.83
117.57    4693.00      68.51
117.67    4327.00      65.78
117.77    3965.00      62.97
117.87    3443.80      58.68
117.97    3256.00      57.06
118.07    2942.00      54.24
118.17    2490.00      49.90
118.27    2308.00      48.04
118.37    2027.93      45.03
118.47    1741.24      41.73
118.57    1607.00      40.09
118.67    1349.42      36.73
118.77    1201.00      34.66
118.87    1205.51      34.72
118.97     992.00      31.50
119.07     990.06      31.47
119.17     922.44      30.37
119.27     839.10      28.97
119.37     757.00      27.51
119.47     765.84      27.67
119.57     681.00      26.10
119.67     648.00      25.46
119.77     630.00      25.10
119.87     633.85      25.18
119.97     614.00      24.78
120.07     624.15      24.98
120.17     639.21      25.28
120.27     607.90      24.66
120.37     565.00      23.77
120.47     571.00      23.90
120.57     587.00      24.23
120.67     618.00      24.86
120.77     597.00      24.43
120.87     566.10      23.79
120.97     585.00      24.19
121.07     562.00      23.71
121.17     587.00      24.23
121.27     604.82      24.59
121.37     582.00      24.12
121.47     595.00      24.39
121.57     608.00      24.66
121.67     614.11      24.78
121.77     610.00      24.70
121.87     607.00      24.64
121.97     589.61      24.28
122.07     636.39      25.23
122.17     630.00      25.10
122.27     664.00      25.77
122.37     591.17      24.31
122.47     625.00      25.00
122.57     609.60      24.69
122.67     625.00      25.00
122.77     627.00      25.04
122.87     664.00      25.77
122.97     611.32      24.72
123.07     653.69      25.57
123.17     605.00      24.60
123.27     660.00      25.69
123.37     670.00      25.88
123.47     615.00      24.80
123.57     605.08      24.60
123.67     604.00      24.58
123.77     655.00      25.59
123.87     596.36      24.42
123.97     671.18      25.91
124.07     663.00      25.75
124.17     614.00      24.78
124.27     568.00      23.83
124.37     591.00      24.31
124.47     618.00      24.86
124.57     583.55      24.16
124.67     602.00      24.54
124.77     559.00      23.64
124.87     579.00      24.06
124.97     595.00      24.39
