  9.97     582.00      24.12
 10.07     584.00      24.17
 10.17     587.29      24.23
 10.27     538.46      23.20
 10.37     578.27      24.05
 10.47     513.00      22.65
 10.57     545.00      23.35
 10.67     590.00      24.29
 10.77     580.00      24.08
 10.87     589.02      24.27
 10.97     554.80      23.55
 11.07     577.00      24.02
 11.17     585.62      24.20
 11.27     575.00      23.98
 11.37     561.97      23.71
 11.47     601.00      24.52
 11.57     553.00      23.52
 11.67     573.00      23.94
 11.77     635.00      25.20
 11.87     547.57      23.40
 11.97     584.70      24.18
 12.07     678.00      26.04
 12.17     708.00      26.61
 12.27     641.00      25.32
 12.37     717.03      26.78
 12.47     594.62      24.38
 12.57     603.00      24.56
 12.67     556.80      23.60
 12.77     544.00      23.32
 12.87     527.00      22.96
 12.97     576.43      24.01
 13.07     551.00      23.47
 13.17     551.21      23.48
 13.27     549.00      23.43
 13.37     536.70      23.17
 13.47     579.00      24.06
 13.57     546.00      23.37
 13.67     569.00      23.85
 13.77     553.00      23.52
 13.87     536.00      23.15
 13.97     594.00      24.37
 14.07     514.00      22.67
 14.17     561.74      23.70
 14.27     527.74      22.97
 14.37     510.00      22.58
 14.47     534.81      23.13
 14.57     563.49      23.74
 14.67     582.15      24.13
 14.77     604.08      24.58
 14.87     535.00      23.13
 14.97     522.00      22.85
 15.07     593.00      24.35
 15.17     566.00      23.79
 15.27     533.48      23.10
 15.37     564.00      23.75
 15.47     532.00      23.07
 15.57     564.76      23.76
 15.67     537.91      23.19
 15.77     521.18      22.83
 15.87     565.00      23.77
 15.97     553.00      23.52
 16.07     548.57      23.42
 16.17     551.00      23.47
 16.27     541.00      23.26
 16.37     536.92      23.17
 16.47     510.50      22.59
 16.57     517.14      22.74
 16.67     538.00      23.19
 16.77     599.00      24.47
 16.87     606.00      24.62
 16.97     577.00      24.02
 17.07     532.43      23.07
 17.17     608.00      24.66
 17.27     524.39      22.90
 17.37     541.00      23.26
 17.47     549.00      23.43
 17.57     555.00      23.56
 17.67     556.00      23.58
 17.77     539.60      23.23
 17.87     562.00      23.71
 17.97     564.00      23.75
 18.07     536.00      23.15
 18.17     530.00      23.02
 18.27     547.00      23.39
 18.37     542.85      23.30
 18.47     533.00      23.09
 18.57     550.00      23.45
 18.67     506.00      22.49
 18.77     552.00      23.49
 18.87     571.00      23.90
 18.97     565.00      23.77
 19.07     565.00      23.77
 19.17     536.56      23.16
 19.27     542.00      23.28
 19.37     534.00      23.11
 19.47     512.00      22.63
 19.57     551.00      23.47
 19.67     521.00      22.83
 19.77     535.00      23.13
 19.87     596.76      24.43
 19.97     509.86      22.58
 20.07     541.00      23.26
 20.17     550.00      23.45
 20.27     544.00      23.32
 20.37     546.33      23.37
 20.47     540.00      23.24
 20.57     506.00      22.49
 20.67     533.07      23.09
 20.77     525.33      22.92
 20.87     491.00      22.16
 20.97     505.00      22.47
 21.07     529.59      23.01
 21.17     553.00      23.52
 21.27     520.00      22.80
 21.37     566.00      23.79
 21.47     546.00      23.37
 21.57     591.00      24.31
 21.67     544.00      23.32
 21.77     548.00      23.41
 21.87     568.75      23.85
 21.97     518.50      22.77
 22.07     545.00      23.35
 22.17     553.00      23.52
 22.27     550.25      23.46
 22.37     541.00      23.26
 22.47     555.36      23.57
 22.57     560.00      23.66
 22.67     553.00      23.52
 22.77     604.00      24.58
 22.87     541.00      23.26
 22.97     552.00      23.49
 23.07     553.00      23.52
 23.17     517.00      22.74
 23.27     570.00      23.87
 23.37     578.00      24.04
 23.47     517.99      22.76
 23.57     548.00      23.41
 23.67     572.00      23.92
 23.77     529.00      23.00
 23.87     534.00      23.11
 23.97     551.00      23.47
 24.07     568.89      23.85
 24.17     539.00      23.22
 24.27     554.00      23.54
 24.37     555.00      23.56
 24.47     602.86      24.55
 24.57     595.00      24.39
 24.67     617.00      24.84
 24.77     627.00      25.04
 24.87     644.14      25.38
 24.97     643.38      25.36
 25.07     630.88      25.12
 25.17     582.00      24.12
 25.27     562.00      23.71
 25.37     568.00      23.83
 25.47     540.00      23.24
 25.57     572.00      23.92
 25.67     585.00      24.19
 25.77     521.18      22.83
 25.87     541.00      23.26
 25.97     580.00      24.08
 26.07     559.00      23.64
 26.17     585.07      24.19
 26.27     573.00      23.94
 26.37     522.00      22.85
 26.47     555.00      23.56
 26.57     539.00      23.22
 26.67     571.00      23.90
 26.77     516.00      22.72
 26.87     556.24      23.58
 26.97     524.00      22.89
 27.07     571.15      23.90
 27.17     551.00      23.47
 27.27     581.18      24.11
 27.37     556.00      23.58
 27.47     501.61      22.40
 27.57     568.47      23.84
 27.67     592.00      24.33
 27.77     588.00      24.25
 27.87     581.00      24.10
 27.97     695.00      26.36
 28.07     688.06      26.23
 28.17     890.00      29.83
 28.27     900.00      30.00
 28.37     899.00      29.98
 28.47     832.29      28.85
 28.57     762.00      27.60
 28.67     770.00      27.75
 28.77     729.00      27.00
 28.87     785.76      28.03
 28.97     761.00      27.59
 29.07     804.00      28.35
 29.17     769.96      27.75
 29.27     661.00      25.71
 29.37     608.00      24.66
 29.47     599.00      24.47
 29.57     568.00      23.83
 29.67     582.00      24.12
 29.77     632.00      25.14
 29.87     548.00      23.41
 29.97     541.00      23.26
 30.07     636.00      25.22
 30.17     491.47      22.17
 30.27     552.00      23.49
 30.37     596.00      24.41
 30.47     499.69      22.35
 30.57     556.00      23.58
 30.67     570.00      23.87
 30.77     553.67      23.53
 30.87     633.00      25.16
 30.97     608.00      24.66
 31.07     637.00      25.24
 31.17     622.00      24.94
 31.27     526.00      22.93
 31.37     561.00      23.69
 31.47     520.00      22.80
 31.57     491.00      22.16
 31.67     556.00      23.58
 31.77     523.00      22.87
 31.87     520.00      22.80
 31.97     511.00      22.61
 32.07     538.93      23.21
 32.17     559.00      23.64
 32.27     506.44      22.50
 32.37     552.00      23.49
 32.47     558.00      23.62
 32.57     570.00      23.87
 32.67     485.07      22.02
 32.77     540.00      23.24
 32.87     516.00      22.72
 32.97     486.28      22.05
 33.07     569.00      23.85
 33.17     529.00      23.00
 33.27     534.47      23.12
 33.37     562.00      23.71
 33.47     529.00      23.00
 33.57     595.00      24.39
 33.67     629.43      25.09
 33.77     763.97      27.64
 33.87     851.73      29.18
 33.97     959.00      30.97
 34.07     998.00      31.59
 34.17    1015.00      31.86
 34.27     893.77      29.90
 34.37     812.00      28.50
 34.47     672.41      25.93
 34.57     596.94      24.43
 34.67     612.22      24.74
 34.77     533.00      23.09
 34.87     544.00      23.32
 34.97     534.00      23.11
 35.07     536.00      23.15
 35.17     490.84      22.15
 35.27     512.00      22.63
 35.37     496.48      22.28
 35.47     488.00      22.09
 35.57     507.55      22.53
 35.67     528.00      22.98
 35.77     489.71      22.13
 35.87     519.34      22.79
 35.97     482.00      21.95
 36.07     452.00      21.26
 36.17     518.40      22.77
 36.27     546.00      23.37
 36.37     505.20      22.48
 36.47     482.31      21.96
 36.57     522.46      22.86
 36.67     519.00      22.78
 36.77     526.54      22.95
 36.87     489.25      22.12
 36.97     486.73      22.06
 37.07     519.00      22.78
 37.17     492.00      22.18
 37.27     481.00      21.93
 37.37     479.20      21.89
 37.47     515.00      22.69
 37.57     491.00      22.16
 37.67     551.00      23.47
 37.77     476.65      21.83
 37.87     504.00      22.45
 37.97     517.15      22.74
 38.07     494.00      22.23
 38.17     490.00      22.14
 38.27     487.00      22.07
 38.37     481.00      21.93
 38.47     523.87      22.89
 38.57     493.00      22.20
 38.67     477.00      21.84
 38.77     463.00      21.52
 38.87     509.00      22.56
 38.97     501.00      22.38
 39.07     511.15      22.61
 39.17     528.65      22.99
 39.27     525.76      22.93
 39.37     497.00      22.29
 39.47     542.12      23.28
 39.57     532.75      23.08
 39.67     474.35      21.78
 39.77     485.80      22.04
 39.87     503.47      22.44
 39.97     496.00      22.27
 40.07     521.00      22.83
 40.17     525.30      22.92
 40.27     513.00      22.65
 40.37     508.00      22.54
 40.47     455.02      21.33
 40.57     436.00      20.88
 40.67     487.00      22.07
 40.77     479.03      21.89
 40.87     474.00      21.77
 40.97     468.00      21.63
 41.07     519.00      22.78
 41.17     484.17      22.00
 41.27     488.00      22.09
 41.37     510.00      22.58
 41.47     506.00      22.49
 41.57     488.43      22.10
 41.67     466.00      21.59
 41.77     484.00      22.00
 41.87     522.00      22.85
 41.97     495.75      22.27
 42.07     522.17      22.85
 42.17     522.00      22.85
 42.27     567.00      23.81
 42.37     526.00      22.93
 42.47     539.80      23.23
 42.57     584.00      24.17
 42.67     593.00      24.35
 42.77     570.00      23.87
 42.87     628.00      25.06
 42.97     566.00      23.79
 43.07     518.00      22.76
 43.17     550.00      23.45
 43.27     490.20      22.14
 43.37     532.84      23.08
 43.47     521.00      22.83
 43.57     523.00      22.87
 43.67     502.00      22.41
 43.77     507.00      22.52
 43.87     490.55      22.15
 43.97     523.00      22.87
 44.07     458.09      21.40
 44.17     507.21      22.52
 44.27     490.00      22.14
 44.37     518.00      22.76
 44.47     501.00      22.38
 44.57     475.75      21.81
 44.67     531.41      23.05
 44.77     483.00      21.98
 44.87     494.71      22.24
 44.97     515.56      22.71
 45.07     535.00      23.13
 45.17     507.00      22.52
 45.27     466.00      21.59
 45.37     529.29      23.01
 45.47     477.00      21.84
 45.57     511.00      22.61
 45.67     507.00      22.52
 45.77     497.00      22.29
 45.87     448.00      21.17
 45.97     518.98      22.78
 46.07     533.00      23.09
 46.17     517.00      22.74
 46.27     504.55      22.46
 46.37     520.00      22.80
 46.47     499.00      22.34
 46.57     485.60      22.04
 46.67     495.00      22.25
 46.77     491.00      22.16
 46.87     458.70      21.42
 46.97     531.00      23.04
 47.07     525.18      22.92
 47.17     499.00      22.34
 47.27     501.00      22.38
 47.37     517.00      22.74
 47.47     519.00      22.78
 47.57     539.00      23.22
 47.67     557.00      23.60
 47.77     607.23      24.64
 47.87     581.00      24.10
 47.97     560.00      23.66
 48.07     582.00      24.12
 48.17     563.64      23.74
 48.27     554.00      23.54
 48.37     536.00      23.15
 48.47     522.00      22.85
 48.57     568.00      23.83
 48.67     502.80      22.42
 48.77     517.00      22.74
 48.87     505.00      22.47
 48.97     557.30      23.61
 49.07     549.00      23.43
 49.17     567.38      23.82
 49.27     608.40      24.67
 49.37     581.87      24.12
 49.47     656.00      25.61
 49.57     683.43      26.14
 49.67     775.00      27.84
 49.77     965.00      31.06
 49.87    1149.62      33.91
 49.97    1520.00      38.99
 50.07    1989.96      44.61
 50.17    2180.26      46.69
 50.27    2351.00      48.49
 50.37    2294.00      47.90
 50.47    1986.12      44.57
 50.57    1690.00      41.11
 50.67    1290.41      35.92
 50.77     977.00      31.26
 50.87     849.00      29.14
 50.97     727.00      26.96
 51.07     673.00      25.94
 51.17     609.38      24.69
 51.27     602.21      24.54
 51.37     616.00      24.82
 51.47     579.00      24.06
 51.57     562.00      23.71
 51.67     528.00      22.98
 51.77     590.00      24.29
 51.87     562.00      23.71
 51.97     511.29      22.61
 52.07     574.00      23.96
 52.17     528.71      22.99
 52.27     507.90      22.54
 52.37     561.00      23.69
 52.47     505.30      22.48
 52.57     596.00      24.41
 52.67     595.98      24.41
 52.77     586.00      24.21
 52.87     574.45      23.97
 52.97     689.91      26.27
 53.07     719.62      26.83
 53.17     801.00      28.30
 53.27     989.00      31.45
 53.37    1047.00      32.36
 53.47    1193.22      34.54
 53.57    1227.88      35.04
 53.67    1216.84      34.88
 53.77    1127.69      33.58
 53.87     922.00      30.36
 53.97     793.00      28.16
 54.07     701.00      26.48
 54.17     670.00      25.88
 54.27     631.00      25.12
 54.37     613.00      24.76
 54.47     561.00      23.69
 54.57     574.00      23.96
 54.67     510.90      22.60
 54.77     544.00      23.32
 54.87     577.00      24.02
 54.97     534.00      23.11
 55.07     567.00      23.81
 55.17     533.83      23.10
 55.27     590.00      24.29
 55.37     581.00      24.10
 55.47     558.00      23.62
 55.57     546.00      23.37
 55.67     590.98      24.31
 55.77     578.00      24.04
 55.87     640.32      25.30
 55.97     628.00      25.06
 56.07     651.08      25.52
 56.17     768.80      27.73
 56.27     875.90      29.60
 56.37     947.00      30.77
 56.47    1205.00      34.71
 56.57    1522.00      39.01
 56.67    1948.00      44.14
 56.77    2176.00      46.65
 56.87    2374.00      48.72
 56.97    2479.00      49.79
 57.07    2466.00      49.66
 57.17    2201.99      46.93
 57.27    1912.74      43.73
 57.37    1564.00      39.55
 57.47    1247.07      35.31
 57.57    1034.23      32.16
 57.67     911.00      30.18
 57.77     775.93      27.86
 57.87     691.35      26.29
 57.97     710.33      26.65
 58.07     687.46      26.22
 58.17     730.00      27.02
 58.27     713.89      26.72
 58.37     784.00      28.00
 58.47     870.00      29.50
 58.57     925.00      30.41
 58.67     970.00      31.14
 58.77    1150.00      33.91
 58.87    1124.00      33.53
 58.97    1241.00      35.23
 59.07    1247.66      35.32
 59.17    1315.29      36.27
 59.27    1262.45      35.53
 59.37    1278.00      35.75
 59.47    1318.00      36.30
 59.57    1264.00      35.55
 59.67    1232.00      35.10
 59.77    1088.25      32.99
 59.87    1220.32      34.93
 59.97    1307.00      36.15
 60.07    1380.00      37.15
 60.17    1550.00      39.37
 60.27    1515.78      38.93
 60.37    1472.01      38.37
 60.47    1489.00      38.59
 60.57    1342.00      36.63
 60.67    1203.06      34.69
 60.77    1064.00      32.62
 60.87     935.00      30.58
 60.97     811.00      28.48
 61.07     695.00      26.36
 61.17     633.00      25.16
 61.27     697.00      26.40
 61.37     680.42      26.08
 61.47     679.00      26.06
 61.57     751.51      27.41
 61.67     763.00      27.62
 61.77     921.00      30.35
 61.87    1019.00      31.92
 61.97    1073.00      32.76
 62.07    1202.64      34.68
 62.17    1363.97      36.93
 62.27    1368.64      37.00
 62.37    1216.00      34.87
 62.47    1186.88      34.45
 62.57    1167.80      34.17
 62.67     978.00      31.27
 62.77     829.00      28.79
 62.87     726.97      26.96
 62.97     698.00      26.42
 63.07     698.21      26.42
 63.17     592.49      24.34
 63.27     576.00      24.00
 63.37     581.00      24.10
 63.47     543.00      23.30
 63.57     573.86      23.96
 63.67     594.00      24.37
 63.77     568.07      23.83
 63.87     638.48      25.27
 63.97     655.15      25.60
 64.07     621.65      24.93
 64.17     719.00      26.81
 64.27     733.39      27.08
 64.37     811.00      28.48
 64.47     946.33      30.76
 64.57     984.85      31.38
 64.67    1075.00      32.79
 64.77     955.00      30.90
 64.87    1018.00      31.91
 64.97     980.34      31.31
 65.07     895.43      29.92
 65.17     873.00      29.55
 65.27     815.00      28.55
 65.37     691.37      26.29
 65.47     647.09      25.44
 65.57     685.00      26.17
 65.67     603.00      24.56
 65.77     614.34      24.79
 65.87     591.41      24.32
 65.97     584.00      24.17
 66.07     558.00      23.62
 66.17     555.00      23.56
 66.27     502.00      22.41
 66.37     543.66      23.32
 66.47     531.00      23.04
 66.57     612.89      24.76
 66.67     551.00      23.47
 66.77     622.57      24.95
 66.87     582.00      24.12
 66.97     559.00      23.64
 67.07     653.95      25.57
 67.17     635.00      25.20
 67.27     769.00      27.73
 67.37     786.89      28.05
 67.47     980.16      31.31
 67.57    1148.00      33.88
 67.67    1378.00      37.12
 67.77    1561.00      39.51
 67.87    1783.56      42.23
 67.97    2072.00      45.52
 68.07    2151.46      46.38
 68.17    2414.00      49.13
 68.27    2430.00      49.30
 68.37    2187.00      46.77
 68.47    2086.00      45.67
 68.57    1907.00      43.67
 68.67    1561.69      39.52
 68.77    1250.35      35.36
 68.87    1038.00      32.22
 68.97     952.17      30.86
 69.07     811.23      28.48
 69.17     752.00      27.42
 69.27     682.00      26.12
 69.37     597.97      24.45
 69.47     615.00      24.80
 69.57     616.00      24.82
 69.67     552.00      23.49
 69.77     566.00      23.79
 69.87     579.00      24.06
 69.97     574.00      23.96
 70.07     591.00      24.31
 70.17     607.00      24.64
 70.27     570.00      23.87
 70.37     581.69      24.12
 70.47     567.00      23.81
 70.57     593.00      24.35
 70.67     618.05      24.86
 70.77     549.82      23.45
 70.87     593.85      24.37
 70.97     628.24      25.06
 71.07     666.24      25.81
 71.17     745.20      27.30
 71.27     831.98      28.84
 71.37     847.00      29.10
 71.47     975.85      31.24
 71.57    1090.00      33.02
 71.67    1264.00      35.55
 71.77    1434.00      37.87
 71.87    1588.00      39.85
 71.97    1762.00      41.98
 72.07    1821.00      42.67
 72.17    1846.00      42.97
 72.27    1750.00      41.83
 72.37    1608.00      40.10
 72.47    1597.00      39.96
 72.57    1459.00      38.20
 72.67    1247.81      35.32
 72.77    1074.00      32.77
 72.87    1005.95      31.72
 72.97     861.00      29.34
 73.07     809.00      28.44
 73.17     736.00      27.13
 73.27     723.00      26.89
 73.37     652.00      25.53
 73.47     644.85      25.39
 73.57     665.00      25.79
 73.67     609.38      24.69
 73.77     577.00      24.02
 73.87     581.34      24.11
 73.97     557.79      23.62
 74.07     561.46      23.70
 74.17     622.54      24.95
 74.27     612.00      24.74
 74.37     610.00      24.70
 74.47     617.00      24.84
 74.57     597.00      24.43
 74.67     614.00      24.78
 74.77     621.00      24.92
 74.87     599.00      24.47
 74.97     618.00      24.86
 75.07     634.00      25.18
 75.17     614.00      24.78
 75.27     608.00      24.66
 75.37     550.00      23.45
 75.47     528.00      22.98
 75.57     551.00      23.47
 75.67     516.87      22.73
 75.77     562.00      23.71
 75.87     557.00      23.60
 75.97     590.73      24.30
 76.07     634.16      25.18
 76.17     636.84      25.24
 76.27     617.00      24.84
 76.37     662.01      25.73
 76.47     760.00      27.57
 76.57     687.00      26.21
 76.67     751.10      27.41
 76.77     674.00      25.96
 76.87     710.20      26.65
 76.97     686.47      26.20
 77.07     662.45      25.74
 77.17     621.00      24.92
 77.27     577.00      24.02
 77.37     539.00      23.22
 77.47     511.00      22.61
 77.57     587.00      24.23
 77.67     585.99      24.21
 77.77     517.37      22.75
 77.87     542.26      23.29
 77.97     523.00      22.87
 78.07     554.21      23.54
 78.17     518.00      22.76
 78.27     522.00      22.85
 78.37     515.00      22.69
 78.47     498.00      22.32
 78.57     497.00      22.29
 78.67     493.00      22.20
 78.77     500.00      22.36
 78.87     477.99      21.86
 78.97     541.22      23.26
 79.07     490.00      22.14
 79.17     513.00      22.65
 79.27     500.95      22.38
 79.37     504.00      22.45
 79.47     516.54      22.73
 79.57     477.00      21.84
 79.67     561.56      23.70
 79.77     514.44      22.68
 79.87     529.71      23.02
 79.97     556.92      23.60
 80.07     520.00      22.80
 80.17     533.00      23.09
 80.27     573.00      23.94
 80.37     559.00      23.64
 80.47     603.26      24.56
 80.57     571.51      23.91
 80.67     571.00      23.90
 80.77     641.00      25.32
 80.87     673.40      25.95
 80.97     656.00      25.61
 81.07     626.00      25.02
 81.17     747.23      27.34
 81.27     746.00      27.31
 81.37     738.88      27.18
 81.47     760.44      27.58
 81.57     762.00      27.60
 81.67     787.25      28.06
 81.77     741.00      27.22
 81.87     744.00      27.28
 81.97     681.08      26.10
 82.07     729.00      27.00
 82.17     619.79      24.90
 82.27     648.00      25.46
 82.37     607.70      24.65
 82.47     656.54      25.62
 82.57     608.00      24.66
 82.67     569.00      23.85
 82.77     542.00      23.28
 82.87     534.21      23.11
 82.97     538.04      23.20
 83.07     542.00      23.28
 83.17     573.99      23.96
 83.27     549.17      23.43
 83.37     469.00      21.66
 83.47     502.00      22.41
 83.57     518.00      22.76
 83.67     510.00      22.58
 83.77     522.36      22.86
 83.87     581.00      24.10
 83.97     574.94      23.98
 84.07     597.84      24.45
 84.17     605.63      24.61
 84.27     519.75      22.80
 84.37     555.00      23.56
 84.47     557.06      23.60
 84.57     588.13      24.25
 84.67     580.95      24.10
 84.77     464.00      21.54
 84.87     498.42      22.33
 84.97     546.57      23.38
 85.07     555.92      23.58
 85.17     566.00      23.79
 85.27     512.00      22.63
 85.37     483.00      21.98
 85.47     493.75      22.22
 85.57     523.00      22.87
 85.67     471.86      21.72
 85.77     507.64      22.53
 85.87     489.00      22.11
 85.97     503.00      22.43
 86.07     555.00      23.56
 86.17     543.00      23.30
 86.27     515.00      22.69
 86.37     514.00      22.67
 86.47     547.00      23.39
 86.57     507.00      22.52
 86.67     580.36      24.09
 86.77     572.15      23.92
 86.87     570.00      23.87
 86.97     547.00      23.39
 87.07     594.00      24.37
 87.17     543.28      23.31
 87.27     593.46      24.36
 87.37     562.27      23.71
 87.47     613.04      24.76
 87.57     608.26      24.66
 87.67     626.00      25.02
 87.77     625.00      25.00
 87.87     605.00      24.60
 87.97     597.00      24.43
 88.07     639.00      25.28
 88.17     594.68      24.39
 88.27     570.00      23.87
 88.37     587.58      24.24
 88.47     601.96      24.53
 88.57     568.00      23.83
 88.67     601.00      24.52
 88.77     586.00      24.21
 88.87     594.22      24.38
 88.97     570.00      23.87
 89.07     573.00      23.94
 89.17     589.04      24.27
 89.27     611.00      24.72
 89.37     578.00      24.04
 89.47     580.00      24.08
 89.57     632.40      25.15
 89.67     624.00      24.98
 89.77     599.31      24.48
 89.87     582.00      24.12
 89.97     529.45      23.01
 90.07     565.00      23.77
 90.17     543.61      23.32
 90.27     542.04      23.28
 90.37     535.00      23.13
 90.47     547.08      23.39
 90.57     495.00      22.25
 90.67     480.00      21.91
 90.77     518.00      22.76
 90.87     522.00      22.85
 90.97     550.32      23.46
 91.07     494.00      22.23
 91.17     461.00      21.47
 91.27     483.31      21.98
 91.37     550.00      23.45
 91.47     528.44      22.99
 91.57     500.00      22.36
 91.67     547.00      23.39
 91.77     557.35      23.61
 91.87     502.00      22.41
 91.97     551.00      23.47
 92.07     576.00      24.00
 92.17     519.40      22.79
 92.27     545.13      23.35
 92.37     511.00      22.61
 92.47     557.16      23.60
 92.57     565.35      23.78
 92.67     659.00      25.67
 92.77     604.08      24.58
 92.87     661.00      25.71
 92.97     614.00      24.78
 93.07     704.16      26.54
 93.17     757.00      27.51
 93.27     765.00      27.66
 93.37     704.00      26.53
 93.47     799.63      28.28
 93.57     761.08      27.59
 93.67     836.00      28.91
 93.77     765.33      27.66
 93.87     782.55      27.97
 93.97     877.00      29.61
 94.07     872.00      29.53
 94.17     819.00      28.62
 94.27     871.00      29.51
 94.37     803.48      28.35
 94.47     881.00      29.68
 94.57     840.34      28.99
 94.67     915.00      30.25
 94.77     920.14      30.33
 94.87     897.00      29.95
 94.97     902.98      30.05
 95.07     900.00      30.00
 95.17     853.00      29.21
 95.27     880.00      29.66
 95.37     830.00      28.81
 95.47     798.00      28.25
 95.57     752.58      27.43
 95.67     729.00      27.00
 95.77     730.00      27.02
 95.87     781.00      27.95
 95.97     726.00      26.94
 96.07     691.00      26.29
 96.17     668.00      25.85
 96.27     690.00      26.27
 96.37     780.00      27.93
 96.47     802.90      28.34
 96.57     789.00      28.09
 96.67     827.00      28.76
 96.77     864.00      29.39
 96.87     958.90      30.97
 96.97    1046.84      32.35
 97.07    1075.03      32.79
 97.17    1155.03      33.99
 97.27    1250.00      35.36
 97.37    1270.00      35.64
 97.47    1310.54      36.20
 97.57    1419.00      37.67
 97.67    1484.00      38.52
 97.77    1472.95      38.38
 97.87    1436.41      37.90
 97.97    1296.72      36.01
 98.07    1313.17      36.24
 98.17    1200.00      34.64
 98.27    1123.99      33.53
 98.37    1092.00      33.05
 98.47    1103.00      33.21
 98.57    1032.00      32.12
 98.67     979.00      31.29
 98.77     951.77      30.85
 98.87     853.00      29.21
 98.97     854.00      29.22
 99.07     850.59      29.16
 99.17     815.67      28.56
 99.27     889.52      29.82
 99.37     935.72      30.59
 99.47     908.42      30.14
 99.57    1058.90      32.54
 99.67    1100.82      33.18
 99.77    1219.77      34.93
 99.87    1257.00      35.45
 99.97    1257.00      35.45
100.07    1472.00      38.37
100.17    1565.00      39.56
100.27    1660.00      40.74
100.37    1682.00      41.01
100.47    1851.53      43.03
100.57    1881.41      43.38
100.67    1961.00      44.28
100.77    1976.00      44.45
100.87    2043.65      45.21
100.97    2036.00      45.12
101.07    1918.00      43.79
101.17    1990.00      44.61
101.27    1911.00      43.71
101.37    1736.11      41.67
101.47    1686.60      41.07
101.57    1697.01      41.19
101.67    1493.00      38.64
101.77    1427.00      37.78
101.87    1424.00      37.74
101.97    1289.26      35.91
102.07    1339.00      36.59
102.17    1227.13      35.03
102.27    1186.34      34.44
102.37    1125.00      33.54
102.47    1096.46      33.11
102.57    1165.00      34.13
102.67    1109.00      33.30
102.77    1064.13      32.62
102.87    1064.00      32.62
102.97    1051.00      32.42
103.07     974.00      31.21
103.17     946.00      30.76
103.27     945.00      30.74
103.37     870.00      29.50
103.47     865.00      29.41
103.57     815.00      28.55
103.67     822.51      28.68
103.77     699.46      26.45
103.87     723.00      26.89
103.97     659.00      25.67
104.07     599.45      24.48
104.17     583.17      24.15
104.27     639.00      25.28
104.37     591.00      24.31
104.47     562.00      23.71
104.57     563.00      23.73
104.67     540.00      23.24
104.77     567.12      23.81
104.87     508.05      22.54
104.97     519.30      22.79
105.07     494.14      22.23
105.17     488.39      22.10
105.27     563.82      23.74
105.37     497.12      22.30
105.47     517.00      22.74
105.57     540.33      23.24
105.67     570.00      23.87
105.77     552.00      23.49
105.87     546.00      23.37
105.97     499.42      22.35
106.07     559.00      23.64
106.17     566.00      23.79
106.27     587.68      24.24
106.37     597.00      24.43
106.47     556.00      23.58
106.57     645.64      25.41
106.67     616.00      24.82
106.77     585.00      24.19
106.87     599.00      24.47
106.97     602.00      24.54
107.07     652.00      25.53
107.17     664.00      25.77
107.27     688.00      26.23
107.37     687.00      26.21
107.47     709.91      26.64
107.57     722.55      26.88
107.67     690.76      26.28
107.77     647.12      25.44
107.87     661.34      25.72
107.97     700.00      26.46
108.07     734.41      27.10
108.17     692.68      26.32
108.27     682.93      26.13
108.37     683.93      26.15
108.47     657.18      25.64
108.57     682.00      26.12
108.67     728.00      26.98
108.77     697.22      26.40
108.87     688.00      26.23
108.97     722.00      26.87
109.07     637.00      25.24
109.17     650.00      25.50
109.27     677.00      26.02
109.37     722.32      26.88
109.47     648.00      25.46
109.57     661.00      25.71
109.67     615.00      24.80
109.77     615.00      24.80
109.87     618.00      24.86
109.97     625.00      25.00
110.07     560.97      23.68
110.17     625.00      25.00
110.27     610.30      24.70
110.37     569.00      23.85
110.47     576.00      24.00
110.57     591.00      24.31
110.67     532.00      23.07
110.77     546.00      23.37
110.87     586.00      24.21
110.97     527.74      22.97
111.07     552.72      23.51
111.17     543.00      23.30
111.27     565.15      23.77
111.37     556.33      23.59
111.47     575.00      23.98
111.57     519.00      22.78
111.67     565.00      23.77
111.77     527.00      22.96
111.87     576.00      24.00
111.97     571.92      23.91
112.07     547.00      23.39
112.17     545.00      23.35
112.27     542.34      23.29
112.37     535.94      23.15
112.47     538.00      23.19
112.57     571.00      23.90
112.67     543.00      23.30
112.77     556.00      23.58
112.87     580.00      24.08
112.97     628.00      25.06
113.07     601.00      24.52
113.17     619.00      24.88
113.27     658.79      25.67
113.37     611.00      24.72
113.47     616.00      24.82
113.57     643.00      25.36
113.67     697.18      26.40
113.77     688.00      26.23
113.87     701.00      26.48
113.97     746.83      27.33
114.07     837.73      28.94
114.17     789.00      28.09
114.27     874.00      29.56
114.37     895.80      29.93
114.47     987.00      31.42
114.57    1035.00      32.17
114.67    1210.00      34.79
114.77    1308.54      36.17
114.87    1433.00      37.85
114.97    1648.00      40.60
115.07    1909.92      43.70
115.17    2099.00      45.81
115.27    2285.87      47.81
115.37    2548.59      50.48
115.47    2909.00      53.94
115.57    3195.21      56.53
115.67    3569.00      59.74
115.77    3690.00      60.75
115.87    4121.00      64.20
115.97    4562.00      67.54
116.07    4868.00      69.77
116.17    5320.00      72.94
116.27    5695.00      75.47
116.37    5926.00      76.98
116.47    6232.00      78.94
116.57    6523.00      80.77
116.67    6642.00      81.50
116.77    6747.00      82.14
116.87    6958.00      83.41
116.97    6742.00      82.11
117.07    6794.67      82.43
117.17    6529.00      80.80
117.27    6189.92      78.68
117.37    5913.00      76.90
117.47    5695.32      75.47
117.57    5367.35      73.26
117.67    4982.00      70.58
117.77    4676.00      68.38
117.87    4312.00      65.67
117.97    3988.00      63.15
118.07    3575.32      59.79
118.17    3295.29      57.40
118.27    2885.63      53.72
118.37    2602.00      51.01
118.47    2548.00      50.48
118.57    2119.00      46.03
118.67    1863.90      43.17
118.77    1688.00      41.09
118.87    1565.80      39.57
118.97    1463.25      38.25
119.07    1290.00      35.92
119.17    1130.00      33.62
119.27    1035.74      32.18
119.37     978.00      31.27
119.47     864.00      29.39
119.57     853.00      29.21
119.67     774.71      27.83
119.77     785.00      28.02
119.87     730.36      27.03
119.97     707.59      26.60
120.07     653.00      25.55
120.17     650.25      25.50
120.27     659.00      25.67
120.37     590.00      24.29
120.47     586.46      24.22
120.57     592.59      24.34
120.67     577.00      24.02
120.77     580.82      24.10
120.87     601.00      24.52
120.97     591.00      24.31
121.07     583.00      24.15
121.17     586.00      24.21
121.27     581.00      24.10
121.37     539.47      23.23
121.47     561.99      23.71
121.57     576.00      24.00
121.67     615.65      24.81
121.77     567.80      23.83
121.87     573.00      23.94
121.97     567.00      23.81
122.07     584.19      24.17
122.17     578.00      24.04
122.27     632.00      25.14
122.37     608.00      24.66
122.47     600.41      24.50
122.57     574.00      23.96
122.67     626.00      25.02
122.77     584.85      24.18
122.87     668.59      25.86
122.97     647.00      25.44
123.07     622.00      24.94
123.17     587.71      24.24
123.27     612.25      24.74
123.37     655.00      25.59
123.47     630.00      25.10
123.57     657.00      25.63
123.67     602.99      24.56
123.77     622.00      24.94
123.87     599.00      24.47
123.97     648.00      25.46
124.07     628.00      25.06
124.17     598.00      24.45
124.27     616.00      24.82
124.37     567.00      23.81
124.47     603.00      24.56
124.57     584.00      24.17
124.67     610.00      24.70
124.77     603.00      24.56
124.87     557.00      23.60
124.97     590.00      24.29
