  9.97     571.00      23.90
 10.07     581.00      24.10
 10.17     564.00      23.75
 10.27     581.00      24.10
 10.37     586.00      24.21
 10.47     569.00      23.85
 10.57     580.00      24.08
 10.67     578.01      24.04
 10.77     638.00      25.26
 10.87     604.00      24.58
 10.97     536.91      23.17
 11.07     600.00      24.49
 11.17     597.68      24.45
 11.27     521.10      22.83
 11.37     620.00      24.90
 11.47     560.08      23.67
 11.57     573.00      23.94
 11.67     621.00      24.92
 11.77     619.00      24.88
 11.87     640.00      25.30
 11.97     649.00      25.48
 12.07     656.00      25.61
 12.17     682.00      26.12
 12.27     698.34      26.43
 12.37     634.00      25.18
 12.47     629.17      25.08
 12.57     609.00      24.68
 12.67     562.87      23.72
 12.77     531.34      23.05
 12.87     609.24      24.68
 12.97     571.57      23.91
 13.07     528.00      22.98
 13.17     577.00      24.02
 13.27     540.00      23.24
 13.37     575.00      23.98
 13.47     591.94      24.33
 13.57     548.25      23.41
 13.67     554.00      23.54
 13.77     559.00      23.64
 13.87     570.75      23.89
 13.97     583.66      24.16
 14.07     562.41      23.72
 14.17     536.00      23.15
 14.27     486.00      22.05
 14.37     574.07      23.96
 14.47     552.00      23.49
 14.57     531.57      23.06
 14.67     560.00      23.66
 14.77     574.00      23.96
 14.87     569.00      23.85
 14.97     527.00      22.96
 15.07     580.55      24.09
 15.17     575.00      23.98
 15.27     613.00      24.76
 15.37     527.00      22.96
 15.47     525.79      22.93
 15.57     564.00      23.75
 15.67     529.83      23.02
 15.77     576.70      24.01
 15.87     556.00      23.58
 15.97     525.00      22.91
 16.07     604.65      24.59
 16.17     585.30      24.19
 16.27     575.00      23.98
 16.37     507.00      22.52
 16.47     563.00      23.73
 16.57     565.11      23.77
 16.67     587.85      24.25
 16.77     543.00      23.30
 16.87     561.00      23.69
 16.97     568.00      23.83
 17.07     606.32      24.62
 17.17     560.05      23.67
 17.27     568.00      23.83
 17.37     606.15      24.62
 17.47     540.33      23.24
 17.57     563.05      23.73
 17.67     580.28      24.09
 17.77     521.59      22.84
 17.87     587.64      24.24
 17.97     557.00      23.60
 18.07     544.73      23.34
 18.17     530.37      23.03
 18.27     579.00      24.06
 18.37     529.00      23.00
 18.47     539.36      23.22
 18.57     604.69      24.59
 18.67     598.67      24.47
 18.77     577.00      24.02
 18.87     542.00      23.28
 18.97     575.70      23.99
 19.07     523.00      22.87
 19.17     575.00      23.98
 19.27     524.40      22.90
 19.37     528.48      22.99
 19.47     555.00      23.56
 19.57     580.70      24.10
 19.67     526.00      22.93
 19.77     558.00      23.62
 19.87     546.42      23.38
 19.97     534.38      23.12
 20.07     538.19      23.20
 20.17     537.00      23.17
 20.27     558.39      23.63
 20.37     529.00      23.00
 20.47     563.85      23.75
 20.57     553.00      23.52
 20.67     516.89      22.74
 20.77     569.00      23.85
 20.87     587.00      24.23
 20.97     542.15      23.28
 21.07     548.00      23.41
 21.17     588.00      24.25
 21.27     524.90      22.91
 21.37     578.00      24.04
 21.47     517.00      22.74
 21.57     534.00      23.11
 21.67     598.50      24.46
 21.77     530.88      23.04
 21.87     587.38      24.24
 21.97     577.00      24.02
 22.07     575.42      23.99
 22.17     578.51      24.05
 22.27     553.86      23.53
 22.37     573.00      23.94
 22.47     558.00      23.62
 22.57     539.27      23.22
 22.67     537.00      23.17
 22.77     595.72      24.41
 22.87     511.50      22.62
 22.97     542.00      23.28
 23.07     556.07      23.58
 23.17     573.78      23.95
 23.27     522.00      22.85
 23.37     526.44      22.94
 23.47     537.00      23.17
 23.57     511.72      22.62
 23.67     587.00      24.23
 23.77     557.00      23.60
 23.87     553.00      23.52
 23.97     550.66      23.47
 24.07     560.00      23.66
 24.17     550.00      23.45
 24.27     573.65      23.95
 24.37     531.94      23.06
 24.47     586.00      24.21
 24.57     549.53      23.44
 24.67     628.00      25.06
 24.77     627.00      25.04
 24.87     613.00      24.76
 24.97     622.00      24.94
 25.07     652.00      25.53
 25.17     544.71      23.34
 25.27     592.00      24.33
 25.37     581.46      24.11
 25.47     530.95      23.04
 25.57     583.96      24.17
 25.67     529.00      23.00
 25.77     576.00      24.00
 25.87     529.51      23.01
 25.97     569.00      23.85
 26.07     562.00      23.71
 26.17     557.00      23.60
 26.27     582.48      24.13
 26.37     542.24      23.29
 26.47     574.00      23.96
 26.57     567.00      23.81
 26.67     552.00      23.49
 26.77     554.00      23.54
 26.87     567.00      23.81
 26.97     595.00      24.39
 27.07     549.00      23.43
 27.17     508.64      22.55
 27.27     596.00      24.41
 27.37     540.00      23.24
 27.47     580.00      24.08
 27.57     547.00      23.39
 27.67     595.00      24.39
 27.77     589.00      24.27
 27.87     547.00      23.39
 27.97     696.00      26.38
 28.07     716.93      26.78
 28.17     812.49      28.50
 28.27     871.00      29.51
 28.37     918.56      30.31
 28.47     830.00      28.81
 28.57     765.00      27.66
 28.67     724.00      26.91
 28.77     758.00      27.53
 28.87     805.00      28.37
 28.97     816.00      28.57
 29.07     817.00      28.58
 29.17     751.41      27.41
 29.27     707.00      26.59
 29.37     667.62      25.84
 29.47     638.00      25.26
 29.57     567.77      23.83
 29.67     608.00      24.66
 29.77     571.00      23.90
 29.87     563.00      23.73
 29.97     564.00      23.75
 30.07     558.00      23.62
 30.17     611.00      24.72
 30.27     498.30      22.32
 30.37     538.00      23.19
 30.47     585.25      24.19
 30.57     603.00      24.56
 30.67     587.00      24.23
 30.77     592.00      24.33
 30.87     596.00      24.41
 30.97     634.00      25.18
 31.07     606.00      24.62
 31.17     603.00      24.56
 31.27     590.00      24.29
 31.37     594.01      24.37
 31.47     582.00      24.12
 31.57     587.00      24.23
 31.67     552.00      23.49
 31.77     487.29      22.07
 31.87     511.08      22.61
 31.97     545.00      23.35
 32.07     544.21      23.33
 32.17     545.00      23.35
 32.27     540.00      23.24
 32.37     600.00      24.49
 32.47     547.00      23.39
 32.57     559.00      23.64
 32.67     520.00      22.80
 32.77     560.72      23.68
 32.87     592.00      24.33
 32.97     550.41      23.46
 33.07     530.00      23.02
 33.17     575.00      23.98
 33.27     542.15      23.28
 33.37     510.00      22.58
 33.47     575.00      23.98
 33.57     573.00      23.94
 33.67     615.00      24.80
 33.77     656.67      25.63
 33.87     752.00      27.42
 33.97     953.78      30.88
 34.07    1007.00      31.73
 34.17    1037.49      32.21
 34.27     986.00      31.40
 34.37     850.00      29.15
 34.47     748.00      27.35
 34.57     652.28      25.54
 34.67     618.00      24.86
 34.77     585.50      24.20
 34.87     539.00      23.22
 34.97     554.88      23.56
 35.07     528.64      22.99
 35.17     537.00      23.17
 35.27     519.00      22.78
 35.37     530.00      23.02
 35.47     507.00      22.52
 35.57     492.00      22.18
 35.67     554.00      23.54
 35.77     496.00      22.27
 35.87     468.00      21.63
 35.97     515.00      22.69
 36.07     510.00      22.58
 36.17     489.49      22.12
 36.27     583.00      24.15
 36.37     495.95      22.27
 36.47     499.00      22.34
 36.57     515.24      22.70
 36.67     496.00      22.27
 36.77     506.00      22.49
 36.87     550.22      23.46
 36.97     511.00      22.61
 37.07     500.00      22.36
 37.17     515.00      22.69
 37.27     470.36      21.69
 37.37     506.00      22.49
 37.47     489.00      22.11
 37.57     486.00      22.05
 37.67     494.52      22.24
 37.77     510.00      22.58
 37.87     527.00      22.96
 37.97     524.00      22.89
 38.07     508.87      22.56
 38.17     516.00      22.72
 38.27     511.00      22.61
 38.37     470.71      21.70
 38.47     510.00      22.58
 38.57     485.00      22.02
 38.67     487.26      22.07
 38.77     482.00      21.95
 38.87     495.95      22.27
 38.97     475.00      21.79
 39.07     537.61      23.19
 39.17     476.00      21.82
 39.27     479.10      21.89
 39.37     493.00      22.20
 39.47     475.70      21.81
 39.57     523.82      22.89
 39.67     519.00      22.78
 39.77     527.60      22.97
 39.87     483.00      21.98
 39.97     494.41      22.24
 40.07     464.06      21.54
 40.17     445.00      21.10
 40.27     474.56      21.78
 40.37     511.00      22.61
 40.47     481.00      21.93
 40.57     480.00      21.91
 40.67     446.00      21.12
 40.77     490.50      22.15
 40.87     471.95      21.72
 40.97     473.00      21.75
 41.07     492.37      22.19
 41.17     486.00      22.05
 41.27     522.35      22.85
 41.37     473.00      21.75
 41.47     497.63      22.31
 41.57     492.00      22.18
 41.67     525.17      22.92
 41.77     458.63      21.42
 41.87     535.88      23.15
 41.97     539.00      23.22
 42.07     539.00      23.22
 42.17     518.91      22.78
 42.27     506.43      22.50
 42.37     540.00      23.24
 42.47     523.00      22.87
 42.57     516.00      22.72
 42.67     582.00      24.12
 42.77     591.62      24.32
 42.87     567.15      23.81
 42.97     553.00      23.52
 43.07     531.86      23.06
 43.17     555.64      23.57
 43.27     548.00      23.41
 43.37     517.00      22.74
 43.47     519.05      22.78
 43.57     540.00      23.24
 43.67     499.70      22.35
 43.77     496.73      22.29
 43.87     465.69      21.58
 43.97     496.76      22.29
 44.07     516.00      22.72
 44.17     439.00      20.95
 44.27     465.34      21.57
 44.37     445.00      21.10
 44.47     500.00      22.36
 44.57     492.00      22.18
 44.67     493.00      22.20
 44.77     453.00      21.28
 44.87     482.00      21.95
 44.97     498.69      22.33
 45.07     489.07      22.11
 45.17     489.00      22.11
 45.27     491.32      22.17
 45.37     498.00      22.32
 45.47     493.00      22.20
 45.57     479.00      21.89
 45.67     477.00      21.84
 45.77     518.00      22.76
 45.87     498.99      22.34
 45.97     516.01      22.72
 46.07     491.06      22.16
 46.17     456.54      21.37
 46.27     487.00      22.07
 46.37     486.92      22.07
 46.47     510.78      22.60
 46.57     487.00      22.07
 46.67     518.41      22.77
 46.77     524.00      22.89
 46.87     455.46      21.34
 46.97     535.59      23.14
 47.07     489.00      22.11
 47.17     527.83      22.97
 47.27     537.00      23.17
 47.37     509.00      22.56
 47.47     512.00      22.63
 47.57     523.61      22.88
 47.67     576.00      24.00
 47.77     603.82      24.57
 47.87     564.11      23.75
 47.97     575.40      23.99
 48.07     607.83      24.65
 48.17     606.72      24.63
 48.27     562.00      23.71
 48.37     518.40      22.77
 48.47     540.00      23.24
 48.57     563.63      23.74
 48.67     467.00      21.61
 48.77     499.19      22.34
 48.87     520.00      22.80
 48.97     503.00      22.43
 49.07     562.00      23.71
 49.17     538.00      23.19
 49.27     516.36      22.72
 49.37     562.72      23.72
 49.47     632.98      25.16
 49.57     629.02      25.08
 49.67     726.00      26.94
 49.77     851.21      29.18
 49.87    1074.00      32.77
 49.97    1402.26      37.45
 50.07    1850.89      43.02
 50.17    2042.00      45.19
 50.27    2317.00      48.14
 50.37    2266.73      47.61
 50.47    2074.00      45.54
 50.57    1838.00      42.87
 50.67    1347.90      36.71
 50.77    1026.00      32.03
 50.87     904.00      30.07
 50.97     733.61      27.09
 51.07     695.63      26.37
 51.17     633.00      25.16
 51.27     657.04      25.63
 51.37     590.00      24.29
 51.47     592.00      24.33
 51.57     553.00      23.52
 51.67     564.96      23.77
 51.77     541.00      23.26
 51.87     557.00      23.60
 51.97     497.00      22.29
 52.07     497.51      22.30
 52.17     546.11      23.37
 52.27     530.27      23.03
 52.37     595.00      24.39
 52.47     540.00      23.24
 52.57     556.00      23.58
 52.67     528.80      23.00
 52.77     586.57      24.22
 52.87     578.00      24.04
 52.97     603.51      24.57
 53.07     651.57      25.53
 53.17     842.00      29.02
 53.27     904.00      30.07
 53.37     946.84      30.77
 53.47    1130.00      33.62
 53.57    1132.28      33.65
 53.67    1162.38      34.09
 53.77    1100.00      33.17
 53.87    1067.00      32.66
 53.97     924.54      30.41
 54.07     769.00      27.73
 54.17     744.11      27.28
 54.27     609.53      24.69
 54.37     594.00      24.37
 54.47     560.00      23.66
 54.57     547.00      23.39
 54.67     553.00      23.52
 54.77     520.83      22.82
 54.87     544.00      23.32
 54.97     559.00      23.64
 55.07     577.00      24.02
 55.17     531.00      23.04
 55.27     558.00      23.62
 55.37     571.00      23.90
 55.47     536.00      23.15
 55.57     548.00      23.41
 55.67     600.68      24.51
 55.77     549.00      23.43
 55.87     567.00      23.81
 55.97     589.84      24.29
 56.07     638.00      25.26
 56.17     684.00      26.15
 56.27     787.11      28.06
 56.37     920.00      30.33
 56.47    1136.53      33.71
 56.57    1427.00      37.78
 56.67    1759.00      41.94
 56.77    2089.34      45.71
 56.87    2370.00      48.68
 56.97    2542.98      50.43
 57.07    2514.00      50.14
 57.17    2353.00      48.51
 57.27    1996.24      44.68
 57.37    1745.79      41.78
 57.47    1373.55      37.06
 57.57    1158.20      34.03
 57.67     971.65      31.17
 57.77     822.00      28.67
 57.87     769.00      27.73
 57.97     711.00      26.66
 58.07     694.12      26.35
 58.17     680.00      26.08
 58.27     728.00      26.98
 58.37     704.18      26.54
 58.47     852.21      29.19
 58.57     840.00      28.98
 58.67     988.65      31.44
 58.77    1051.00      32.42
 58.87    1083.32      32.91
 58.97    1167.94      34.18
 59.07    1299.00      36.04
 59.17    1365.00      36.95
 59.27    1286.53      35.87
 59.37    1282.02      35.81
 59.47    1194.40      34.56
 59.57    1224.00      34.99
 59.67    1110.00      33.32
 59.77    1149.11      33.90
 59.87    1216.00      34.87
 59.97    1209.00      34.77
 60.07    1393.00      37.32
 60.17    1431.00      37.83
 60.27    1530.00      39.12
 60.37    1600.00      40.00
 60.47    1479.62      38.47
 60.57    1335.00      36.54
 60.67    1265.33      35.57
 60.77    1070.41      32.72
 60.87    1013.92      31.84
 60.97     844.00      29.05
 61.07     767.24      27.70
 61.17     738.00      27.17
 61.27     646.00      25.42
 61.37     702.00      26.50
 61.47     668.00      25.85
 61.57     714.00      26.72
 61.67     810.00      28.46
 61.77     818.00      28.60
 61.87     984.00      31.37
 61.97    1057.00      32.51
 62.07    1236.00      35.16
 62.17    1300.88      36.07
 62.27    1297.31      36.02
 62.37    1369.21      37.00
 62.47    1218.00      34.90
 62.57    1087.00      32.97
 62.67    1008.87      31.76
 62.77     977.95      31.27
 62.87     777.00      27.87
 62.97     670.00      25.88
 63.07     625.00      25.00
 63.17     620.00      24.90
 63.27     604.00      24.58
 63.37     580.00      24.08
 63.47     555.00      23.56
 63.57     551.00      23.47
 63.67     592.00      24.33
 63.77     619.00      24.88
 63.87     613.00      24.76
 63.97     653.00      25.55
 64.07     673.00      25.94
 64.17     671.00      25.90
 64.27     771.00      27.77
 64.37     819.00      28.62
 64.47     840.00      28.98
 64.57     941.00      30.68
 64.67    1013.60      31.84
 64.77     952.00      30.85
 64.87    1069.00      32.70
 64.97    1005.00      31.70
 65.07     903.00      30.05
 65.17     844.00      29.05
 65.27     825.00      28.72
 65.37     737.00      27.15
 65.47     666.00      25.81
 65.57     655.00      25.59
 65.67     677.00      26.02
 65.77     621.00      24.92
 65.87     592.00      24.33
 65.97     548.00      23.41
 66.07     565.00      23.77
 66.17     519.00      22.78
 66.27     555.00      23.56
 66.37     576.00      24.00
 66.47     519.00      22.78
 66.57     569.00      23.85
 66.67     560.00      23.66
 66.77     591.00      24.31
 66.87     567.00      23.81
 66.97     610.00      24.70
 67.07     645.00      25.40
 67.17     648.00      25.46
 67.27     704.00      26.53
 67.37     776.00      27.86
 67.47     899.81      30.00
 67.57    1030.00      32.09
 67.67    1285.00      35.85
 67.77    1508.00      38.83
 67.87    1644.61      40.55
 67.97    1958.13      44.25
 68.07    2179.00      46.68
 68.17    2296.00      47.92
 68.27    2380.27      48.79
 68.37    2259.98      47.54
 68.47    2058.00      45.37
 68.57    1875.00      43.30
 68.67    1680.00      40.99
 68.77    1427.00      37.78
 68.87    1179.34      34.34
 68.97    1032.00      32.12
 69.07     849.00      29.14
 69.17     746.00      27.31
 69.27     639.96      25.30
 69.37     635.00      25.20
 69.47     640.00      25.30
 69.57     607.00      24.64
 69.67     558.00      23.62
 69.77     542.00      23.28
 69.87     577.11      24.02
 69.97     537.00      23.17
 70.07     564.00      23.75
 70.17     592.00      24.33
 70.27     557.67      23.62
 70.37     614.00      24.78
 70.47     588.00      24.25
 70.57     645.00      25.40
 70.67     597.23      24.44
 70.77     561.00      23.69
 70.87     604.81      24.59
 70.97     623.00      24.96
 71.07     640.00      25.30
 71.17     735.14      27.11
 71.27     768.00      27.71
 71.37     758.00      27.53
 71.47     885.00      29.75
 71.57    1031.00      32.11
 71.67    1149.00      33.90
 71.77    1419.00      37.67
 71.87    1480.66      38.48
 71.97    1696.16      41.18
 72.07    1869.00      43.23
 72.17    1891.00      43.49
 72.27    1796.00      42.38
 72.37    1814.00      42.59
 72.47    1629.00      40.36
 72.57    1523.00      39.03
 72.67    1351.90      36.77
 72.77    1161.77      34.08
 72.87     977.51      31.27
 72.97     861.00      29.34
 73.07     786.00      28.04
 73.17     702.38      26.50
 73.27     749.87      27.38
 73.37     623.53      24.97
 73.47     634.00      25.18
 73.57     603.00      24.56
 73.67     644.00      25.38
 73.77     581.40      24.11
 73.87     607.43      24.65
 73.97     604.40      24.58
 74.07     588.00      24.25
 74.17     617.00      24.84
 74.27     589.00      24.27
 74.37     578.00      24.04
 74.47     571.12      23.90
 74.57     642.00      25.34
 74.67     630.00      25.10
 74.77     603.00      24.56
 74.87     609.00      24.68
 74.97     654.00      25.57
 75.07     594.12      24.37
 75.17     601.00      24.52
 75.27     569.23      23.86
 75.37     550.00      23.45
 75.47     574.00      23.96
 75.57     546.00      23.37
 75.67     562.00      23.71
 75.77     525.91      22.93
 75.87     545.00      23.35
 75.97     598.00      24.45
 76.07     630.00      25.10
 76.17     569.00      23.85
 76.27     663.54      25.76
 76.37     664.00      25.77
 76.47     705.00      26.55
 76.57     724.00      26.91
 76.67     648.00      25.46
 76.77     721.00      26.85
 76.87     712.00      26.68
 76.97     735.00      27.11
 77.07     609.00      24.68
 77.17     627.00      25.04
 77.27     614.00      24.78
 77.37     557.00      23.60
 77.47     578.00      24.04
 77.57     549.00      23.43
 77.67     554.80      23.55
 77.77     539.79      23.23
 77.87     519.07      22.78
 77.97     512.00      22.63
 78.07     522.69      22.86
 78.17     504.74      22.47
 78.27     512.00      22.63
 78.37     517.00      22.74
 78.47     504.00      22.45
 78.57     506.00      22.49
 78.67     517.00      22.74
 78.77     464.00      21.54
 78.87     521.00      22.83
 78.97     482.24      21.96
 79.07     507.00      22.52
 79.17     549.00      23.43
 79.27     509.00      22.56
 79.37     538.44      23.20
 79.47     487.00      22.07
 79.57     525.00      22.91
 79.67     534.46      23.12
 79.77     544.00      23.32
 79.87     550.68      23.47
 79.97     544.00      23.32
 80.07     543.97      23.32
 80.17     554.00      23.54
 80.27     568.00      23.83
 80.37     532.00      23.07
 80.47     531.00      23.04
 80.57     549.00      23.43
 80.67     544.00      23.32
 80.77     622.00      24.94
 80.87     638.11      25.26
 80.97     665.00      25.79
 81.07     714.69      26.73
 81.17     699.00      26.44
 81.27     706.57      26.58
 81.37     709.00      26.63
 81.47     780.64      27.94
 81.57     746.00      27.31
 81.67     771.00      27.77
 81.77     778.65      27.90
 81.87     700.00      26.46
 81.97     706.00      26.57
 82.07     671.00      25.90
 82.17     734.00      27.09
 82.27     689.00      26.25
 82.37     624.00      24.98
 82.47     576.00      24.00
 82.57     574.00      23.96
 82.67     589.00      24.27
 82.77     553.00      23.52
 82.87     537.48      23.18
 82.97     529.00      23.00
 83.07     505.00      22.47
 83.17     541.00      23.26
 83.27     534.00      23.11
 83.37     504.00      22.45
 83.47     505.78      22.49
 83.57     505.17      22.48
 83.67     553.95      23.54
 83.77     549.00      23.43
 83.87     552.00      23.49
 83.97     556.00      23.58
 84.07     555.00      23.56
 84.17     590.47      24.30
 84.27     541.00      23.26
 84.37     593.46      24.36
 84.47     566.12      23.79
 84.57     534.11      23.11
 84.67     506.45      22.50
 84.77     532.00      23.07
 84.87     527.75      22.97
 84.97     511.00      22.61
 85.07     468.00      21.63
 85.17     486.00      22.05
 85.27     509.23      22.57
 85.37     517.00      22.74
 85.47     529.35      23.01
 85.57     521.00      22.83
 85.67     502.00      22.41
 85.77     484.17      22.00
 85.87     509.43      22.57
 85.97     492.00      22.18
 86.07     525.49      22.92
 86.17     503.00      22.43
 86.27     468.90      21.65
 86.37     508.82      22.56
 86.47     519.00      22.78
 86.57     497.87      22.31
 86.67     516.03      22.72
 86.77     527.50      22.97
 86.87     493.00      22.20
 86.97     592.36      24.34
 87.07     565.71      23.78
 87.17     599.00      24.47
 87.27     605.00      24.60
 87.37     570.00      23.87
 87.47     631.00      25.12
 87.57     615.48      24.81
 87.67     586.00      24.21
 87.77     608.65      24.67
 87.87     563.94      23.75
 87.97     598.07      24.46
 88.07     570.08      23.88
 88.17     589.89      24.29
 88.27     594.00      24.37
 88.37     589.00      24.27
 88.47     525.00      22.91
 88.57     593.00      24.35
 88.67     511.08      22.61
 88.77     607.00      24.64
 88.87     579.00      24.06
 88.97     575.00      23.98
 89.07     571.17      23.90
 89.17     590.43      24.30
 89.27     567.00      23.81
 89.37     585.00      24.19
 89.47     651.00      25.51
 89.57     585.92      24.21
 89.67     550.87      23.47
 89.77     568.89      23.85
 89.87     572.19      23.92
 89.97     554.32      23.54
 90.07     550.86      23.47
 90.17     524.00      22.89
 90.27     527.00      22.96
 90.37     554.38      23.55
 90.47     509.32      22.57
 90.57     573.00      23.94
 90.67     551.00      23.47
 90.77     489.13      22.12
 90.87     531.15      23.05
 90.97     505.30      22.48
 91.07     484.00      22.00
 91.17     505.00      22.47
 91.27     470.00      21.68
 91.37     465.82      21.58
 91.47     519.10      22.78
 91.57     471.00      21.70
 91.67     476.00      21.82
 91.77     484.00      22.00
 91.87     536.00      23.15
 91.97     505.00      22.47
 92.07     496.11      22.27
 92.17     536.00      23.15
 92.27     524.00      22.89
 92.37     529.10      23.00
 92.47     524.00      22.89
 92.57     563.00      23.73
 92.67     579.00      24.06
 92.77     594.16      24.38
 92.87     627.00      25.04
 92.97     664.20      25.77
 93.07     673.00      25.94
 93.17     751.00      27.40
 93.27     743.06      27.26
 93.37     721.00      26.85
 93.47     769.00      27.73
 93.57     752.00      27.42
 93.67     745.00      27.29
 93.77     738.87      27.18
 93.87     795.61      28.21
 93.97     817.17      28.59
 94.07     752.56      27.43
 94.17     803.00      28.34
 94.27     782.02      27.96
 94.37     839.46      28.97
 94.47     872.16      29.53
 94.57     848.00      29.12
 94.67     821.27      28.66
 94.77     843.00      29.03
 94.87     865.14      29.41
 94.97     867.00      29.44
 95.07     952.00      30.85
 95.17     866.00      29.43
 95.27     884.91      29.75
 95.37     806.00      28.39
 95.47     804.00      28.35
 95.57     795.00      28.20
 95.67     778.87      27.91
 95.77     748.00      27.35
 95.87     796.00      28.21
 95.97     714.00      26.72
 96.07     730.51      27.03
 96.17     640.05      25.30
 96.27     707.08      26.59
 96.37     720.00      26.83
 96.47     749.10      27.37
 96.57     736.00      27.13
 96.67     829.00      28.79
 96.77     842.09      29.02
 96.87     954.56      30.90
 96.97     955.15      30.91
 97.07    1078.00      32.83
 97.17    1164.53      34.13
 97.27    1173.00      34.25
 97.37    1311.00      36.21
 97.47    1339.69      36.60
 97.57    1390.00      37.28
 97.67    1464.09      38.26
 97.77    1391.00      37.30
 97.87    1451.92      38.10
 97.97    1324.16      36.39
 98.07    1404.00      37.47
 98.17    1238.00      35.19
 98.27    1224.00      34.99
 98.37    1183.00      34.39
 98.47    1128.00      33.59
 98.57    1081.00      32.88
 98.67     952.00      30.85
 98.77     921.11      30.35
 98.87     903.00      30.05
 98.97     886.38      29.77
 99.07     840.04      28.98
 99.17     832.00      28.84
 99.27     851.00      29.17
 99.37     874.58      29.57
 99.47     863.87      29.39
 99.57     889.00      29.82
 99.67    1060.00      32.56
 99.77    1120.67      33.48
 99.87    1124.00      33.53
 99.97    1315.88      36.28
100.07    1371.00      37.03
100.17    1407.00      37.51
100.27    1498.37      38.71
100.37    1704.00      41.28
100.47    1785.67      42.26
100.57    1825.99      42.73
100.67    1856.00      43.08
100.77    1916.00      43.77
100.87    1965.11      44.33
100.97    1955.38      44.22
101.07    1965.00      44.33
101.17    1974.83      44.44
101.27    1958.00      44.25
101.37    1873.00      43.28
101.47    1938.00      44.02
101.57    1709.00      41.34
101.67    1733.00      41.63
101.77    1561.00      39.51
101.87    1473.00      38.38
101.97    1403.71      37.47
102.07    1391.41      37.30
102.17    1343.00      36.65
102.27    1234.00      35.13
102.37    1290.00      35.92
102.47    1144.00      33.82
102.57    1146.00      33.85
102.67    1135.24      33.69
102.77    1146.00      33.85
102.87    1048.00      32.37
102.97    1080.00      32.86
103.07     969.00      31.13
103.17     987.00      31.42
103.27     954.00      30.89
103.37     886.90      29.78
103.47     890.00      29.83
103.57     863.00      29.38
103.67     785.13      28.02
103.77     855.00      29.24
103.87     775.62      27.85
103.97     719.00      26.81
104.07     627.15      25.04
104.17     619.00      24.88
104.27     661.00      25.71
104.37     595.63      24.41
104.47     601.00      24.52
104.57     574.00      23.96
104.67     561.00      23.69
104.77     491.56      22.17
104.87     534.83      23.13
104.97     502.92      22.43
105.07     526.00      22.93
105.17     527.00      22.96
105.27     558.00      23.62
105.37     530.00      23.02
105.47     538.00      23.19
105.57     550.00      23.45
105.67     471.31      21.71
105.77     493.06      22.20
105.87     564.36      23.76
105.97     566.00      23.79
106.07     499.10      22.34
106.17     583.00      24.15
106.27     536.00      23.15
106.37     559.20      23.65
106.47     538.00      23.19
106.57     593.38      24.36
106.67     622.00      24.94
106.77     607.00      24.64
106.87     612.93      24.76
106.97     626.00      25.02
107.07     640.00      25.30
107.17     687.12      26.21
107.27     662.00      25.73
107.37     695.17      26.37
107.47     718.75      26.81
107.57     670.44      25.89
107.67     703.00      26.51
107.77     690.00      26.27
107.87     684.00      26.15
107.97     650.76      25.51
108.07     671.00      25.90
108.17     638.00      25.26
108.27     648.00      25.46
108.37     710.21      26.65
108.47     651.00      25.51
108.57     658.15      25.65
108.67     669.00      25.87
108.77     641.03      25.32
108.87     649.89      25.49
108.97     649.00      25.48
109.07     682.00      26.12
109.17     657.90      25.65
109.27     680.00      26.08
109.37     715.64      26.75
109.47     648.66      25.47
109.57     665.00      25.79
109.67     641.40      25.33
109.77     610.00      24.70
109.87     604.00      24.58
109.97     635.54      25.21
110.07     654.00      25.57
110.17     557.00      23.60
110.27     544.44      23.33
110.37     576.00      24.00
110.47     577.98      24.04
110.57     588.00      24.25
110.67     585.00      24.19
110.77     525.00      22.91
110.87     554.00      23.54
110.97     530.00      23.02
111.07     533.00      23.09
111.17     471.00      21.70
111.27     564.00      23.75
111.37     576.00      24.00
111.47     538.00      23.19
111.57     551.64      23.49
111.67     535.00      23.13
111.77     552.00      23.49
111.87     540.00      23.24
111.97     539.59      23.23
112.07     557.00      23.60
112.17     556.00      23.58
112.27     562.04      23.71
112.37     512.00      22.63
112.47     535.00      23.13
112.57     587.61      24.24
112.67     551.00      23.47
112.77     615.65      24.81
112.87     543.00      23.30
112.97     561.00      23.69
113.07     579.00      24.06
113.17     571.00      23.90
113.27     586.00      24.21
113.37     557.00      23.60
113.47     637.00      25.24
113.57     621.00      24.92
113.67     613.00      24.76
113.77     629.11      25.08
113.87     631.00      25.12
113.97     690.00      26.27
114.07     706.00      26.57
114.17     742.98      27.26
114.27     857.00      29.27
114.37     875.00      29.58
114.47     918.00      30.30
114.57     975.00      31.22
114.67    1088.78      33.00
114.77    1222.04      34.96
114.87    1348.00      36.72
114.97    1519.00      38.97
115.07    1701.53      41.25
115.17    1831.95      42.80
115.27    2140.00      46.26
115.37    2393.05      48.92
115.47    2663.29      51.61
115.57    2815.12      53.06
115.67    3130.76      55.95
115.77    3556.00      59.63
115.87    3890.00      62.37
115.97    4298.00      65.56
116.07    4568.00      67.59
116.17    5134.09      71.65
116.27    5305.00      72.84
116.37    5788.22      76.08
116.47    6157.07      78.47
116.57    6387.00      79.92
116.67    6515.00      80.72
116.77    6699.66      81.85
116.87    6853.00      82.78
116.97    6764.00      82.24
117.07    6864.00      82.85
117.17    6712.98      81.93
117.27    6477.16      80.48
117.37    6408.00      80.05
117.47    6096.00      78.08
117.57    5694.00      75.46
117.67    5418.00      73.61
117.77    5036.21      70.97
117.87    4767.77      69.05
117.97    4375.07      66.14
118.07    4071.00      63.80
118.17    3699.00      60.82
118.27    3278.68      57.26
118.37    3073.44      55.44
118.47    2787.09      52.79
118.57    2543.00      50.43
118.67    2170.00      46.58
118.77    1922.00      43.84
118.87    1721.13      41.49
118.97    1589.00      39.86
119.07    1396.00      37.36
119.17    1269.00      35.62
119.27    1177.00      34.31
119.37    1076.00      32.80
119.47    1020.00      31.94
119.57     882.08      29.70
119.67     907.22      30.12
119.77     885.00      29.75
119.87     812.00      28.50
119.97     698.71      26.43
120.07     716.00      26.76
120.17     645.00      25.40
120.27     691.00      26.29
120.37     626.00      25.02
120.47     609.00      24.68
120.57     567.49      23.82
120.67     593.00      24.35
120.77     570.51      23.89
120.87     582.00      24.12
120.97     621.01      24.92
121.07     585.00      24.19
121.17     583.53      24.16
121.27     512.00      22.63
121.37     540.88      23.26
121.47     570.00      23.87
121.57     564.00      23.75
121.67     582.00      24.12
121.77     578.00      24.04
121.87     604.00      24.58
121.97     595.00      24.39
122.07     601.00      24.52
122.17     585.00      24.19
122.27     603.00      24.56
122.37     588.83      24.27
122.47     626.00      25.02
122.57     628.00      25.06
122.67     604.97      24.60
122.77     613.00      24.76
122.87     603.00      24.56
122.97     620.00      24.90
123.07     639.00      25.28
123.17     647.00      25.44
123.27     618.00      24.86
123.37     645.86      25.41
123.47     581.94      24.12
123.57     671.52      25.91
123.67     625.00      25.00
123.77     619.00      24.88
123.87     644.05      25.38
123.97     622.11      24.94
124.07     654.00      25.57
124.17     609.08      24.68
124.27     562.39      23.71
124.37     553.00      23.52
124.47     626.00      25.02
124.57     574.09      23.96
124.67     565.00      23.77
124.77     552.00      23.49
124.87     592.00      24.33
124.97     615.00      24.80
