  9.97     602.00      24.54
 10.07     595.00      24.39
 10.17     610.00      24.70
 10.27     597.00      24.43
 10.37     587.00      24.23
 10.47     520.64      22.82
 10.57     578.00      24.04
 10.67     569.00      23.85
 10.77     560.91      23.68
 10.87     552.78      23.51
 10.97     578.00      24.04
 11.07     583.00      24.15
 11.17     578.43      24.05
 11.27     578.29      24.05
 11.37     608.00      24.66
 11.47     598.44      24.46
 11.57     588.00      24.25
 11.67     572.00      23.92
 11.77     570.00      23.87
 11.87     645.00      25.40
 11.97     611.28      24.72
 12.07     619.00      24.88
 12.17     665.84      25.80
 12.27     716.00      26.76
 12.37     655.38      25.60
 12.47     585.90      24.21
 12.57     589.00      24.27
 12.67     540.62      23.25
 12.77     587.00      24.23
 12.87     548.00      23.41
 12.97     521.00      22.83
 13.07     580.00      24.08
 13.17     523.00      22.87
 13.27     612.13      24.74
 13.37     564.00      23.75
 13.47     605.00      24.60
 13.57     608.27      24.66
 13.67     610.00      24.70
 13.77     544.00      23.32
 13.87     545.83      23.36
 13.97     551.00      23.47
 14.07     540.00      23.24
 14.17     535.00      23.13
 14.27     565.00      23.77
 14.37     584.38      24.17
 14.47     592.87      24.35
 14.57     525.29      22.92
 14.67     570.00      23.87
 14.77     527.00      22.96
 14.87     551.57      23.49
 14.97     560.00      23.66
 15.07     562.00      23.71
 15.17     598.16      24.46
 15.27     529.00      23.00
 15.37     602.00      24.54
 15.47     579.85      24.08
 15.57     546.00      23.37
 15.67     546.07      23.37
 15.77     559.00      23.64
 15.87     564.00      23.75
 15.97     534.67      23.12
 16.07     607.52      24.65
 16.17     576.07      24.00
 16.27     569.22      23.86
 16.37     535.00      23.13
 16.47     533.00      23.09
 16.57     546.00      23.37
 16.67     589.00      24.27
 16.77     565.24      23.77
 16.87     572.00      23.92
 16.97     566.00      23.79
 17.07     579.75      24.08
 17.17     547.00      23.39
 17.27     525.00      22.91
 17.37     557.05      23.60
 17.47     558.00      23.62
 17.57     576.00      24.00
 17.67     583.75      24.16
 17.77     586.00      24.21
 17.87     524.00      22.89
 17.97     594.86      24.39
 18.07     537.00      23.17
 18.17     486.00      22.05
 18.27     588.00      24.25
 18.37     591.63      24.32
 18.47     523.00      22.87
 18.57     528.67      22.99
 18.67     550.00      23.45
 18.77     576.00      24.00
 18.87     576.00      24.00
 18.97     542.55      23.29
 19.07     536.00      23.15
 19.17     576.00      24.00
 19.27     552.00      23.49
 19.37     561.00      23.69
 19.47     539.00      23.22
 19.57     531.00      23.04
 19.67     552.66      23.51
 19.77     576.00      24.00
 19.87     575.00      23.98
 19.97     561.00      23.69
 20.07     540.86      23.26
 20.17     571.00      23.90
 20.27     533.45      23.10
 20.37     531.70      23.06
 20.47     548.00      23.41
 20.57     518.00      22.76
 20.67     535.68      23.14
 20.77     602.00      24.54
 20.87     595.62      24.41
 20.97     549.10      23.43
 21.07     560.90      23.68
 21.17     598.00      24.45
 21.27     541.00      23.26
 21.37     535.24      23.14
 21.47     555.00      23.56
 21.57     601.82      24.53
 21.67     563.00      23.73
 21.77     576.00      24.00
 21.87     598.41      24.46
 21.97     538.00      23.19
 22.07     521.00      22.83
 22.17     526.00      22.93
 22.27     589.96      24.29
 22.37     567.37      23.82
 22.47     575.65      23.99
 22.57     541.00      23.26
 22.67     532.00      23.07
 22.77     595.00      24.39
 22.87     570.00      23.87
 22.97     570.00      23.87
 23.07     583.00      24.15
 23.17     581.24      24.11
 23.27     566.00      23.79
 23.37     576.00      24.00
 23.47     537.00      23.17
 23.57     551.00      23.47
 23.67     533.06      23.09
 23.77     560.00      23.66
 23.87     540.00      23.24
 23.97     516.45      22.73
 24.07     580.00      24.08
 24.17     551.00      23.47
 24.27     510.21      22.59
 24.37     575.00      23.98
 24.47     539.00      23.22
 24.57     621.05      24.92
 24.67     573.00      23.94
 24.77     647.00      25.44
 24.87     658.41      25.66
 24.97     620.81      24.92
 25.07     578.10      24.04
 25.17     641.00      25.32
 25.27     517.03      22.74
 25.37     594.00      24.37
 25.47     504.79      22.47
 25.57     530.00      23.02
 25.67     589.00      24.27
 25.77     582.72      24.14
 25.87     495.81      22.27
 25.97     543.00      23.30
 26.07     485.00      22.02
 26.17     532.00      23.07
 26.27     506.45      22.50
 26.37     536.32      23.16
 26.47     513.71      22.67
 26.57     523.00      22.87
 26.67     562.54      23.72
 26.77     535.00      23.13
 26.87     512.41      22.64
 26.97     591.14      24.31
 27.07     509.34      22.57
 27.17     553.00      23.52
 27.27     575.89      24.00
 27.37     544.00      23.32
 27.47     560.00      23.66
 27.57     535.07      23.13
 27.67     583.00      24.15
 27.77     598.00      24.45
 27.87     620.00      24.90
 27.97     641.00      25.32
 28.07     748.00      27.35
 28.17     873.00      29.55
 28.27     958.00      30.95
 28.37     951.00      30.84
 28.47     834.81      28.89
 28.57     755.19      27.48
 28.67     716.00      26.76
 28.77     708.00      26.61
 28.87     775.00      27.84
 28.97     786.00      28.04
 29.07     760.23      27.57
 29.17     797.02      28.23
 29.27     670.00      25.88
 29.37     628.95      25.08
 29.47     555.20      23.56
 29.57     591.00      24.31
 29.67     561.89      23.70
 29.77     597.69      24.45
 29.87     519.91      22.80
 29.97     547.45      23.40
 30.07     586.00      24.21
 30.17     588.53      24.26
 30.27     582.00      24.12
 30.37     580.76      24.10
 30.47     576.00      24.00
 30.57     507.59      22.53
 30.67     580.00      24.08
 30.77     544.63      23.34
 30.87     551.13      23.48
 30.97     609.00      24.68
 31.07     600.00      24.49
 31.17     541.32      23.27
 31.27     561.00      23.69
 31.37     568.00      23.83
 31.47     515.43      22.70
 31.57     560.00      23.66
 31.67     568.00      23.83
 31.77     544.00      23.32
 31.87     573.97      23.96
 31.97     507.00      22.52
 32.07     559.95      23.66
 32.17     562.00      23.71
 32.27     566.00      23.79
 32.37     561.00      23.69
 32.47     483.05      21.98
 32.57     528.00      22.98
 32.67     510.07      22.58
 32.77     546.00      23.37
 32.87     522.00      22.85
 32.97     558.22      23.63
 33.07     542.22      23.29
 33.17     574.24      23.96
 33.27     532.93      23.09
 33.37     578.00      24.04
 33.47     535.00      23.13
 33.57     556.85      23.60
 33.67     572.00      23.92
 33.77     698.00      26.42
 33.87     791.00      28.12
 33.97     960.00      30.98
 34.07    1121.00      33.48
 34.17    1102.27      33.20
 34.27     967.30      31.10
 34.37     758.00      27.53
 34.47     627.00      25.04
 34.57     601.00      24.52
 34.67     600.18      24.50
 34.77     564.00      23.75
 34.87     562.68      23.72
 34.97     505.00      22.47
 35.07     520.00      22.80
 35.17     534.00      23.11
 35.27     566.71      23.81
 35.37     504.00      22.45
 35.47     504.94      22.47
 35.57     525.00      22.91
 35.67     480.00      21.91
 35.77     503.00      22.43
 35.87     528.00      22.98
 35.97     483.00      21.98
 36.07     515.66      22.71
 36.17     456.00      21.35
 36.27     546.00      23.37
 36.37     471.00      21.70
 36.47     562.00      23.71
 36.57     525.00      22.91
 36.67     488.00      22.09
 36.77     534.41      23.12
 36.87     510.00      22.58
 36.97     547.00      23.39
 37.07     474.00      21.77
 37.17     462.00      21.49
 37.27     528.00      22.98
 37.37     490.00      22.14
 37.47     579.00      24.06
 37.57     498.00      22.32
 37.67     509.24      22.57
 37.77     512.00      22.63
 37.87     559.36      23.65
 37.97     476.00      21.82
 38.07     562.29      23.71
 38.17     514.00      22.67
 38.27     486.00      22.05
 38.37     516.00      22.72
 38.47     492.00      22.18
 38.57     469.41      21.67
 38.67     481.39      21.94
 38.77     466.82      21.61
 38.87     551.00      23.47
 38.97     505.00      22.47
 39.07     551.18      23.48
 39.17     499.00      22.34
 39.27     519.80      22.80
 39.37     468.00      21.63
 39.47     472.00      21.73
 39.57     533.58      23.10
 39.67     505.00      22.47
 39.77     513.00      22.65
 39.87     506.00      22.49
 39.97     457.00      21.38
 40.07     464.65      21.56
 40.17     526.01      22.93
 40.27     516.00      22.72
 40.37     515.00      22.69
 40.47     506.61      22.51
 40.57     477.00      21.84
 40.67     463.00      21.52
 40.77     492.00      22.18
 40.87     477.91      21.86
 40.97     478.00      21.86
 41.07     502.00      22.41
 41.17     504.00      22.45
 41.27     448.00      21.17
 41.37     464.00      21.54
 41.47     539.66      23.23
 41.57     484.00      22.00
 41.67     502.77      22.42
 41.77     508.85      22.56
 41.87     522.00      22.85
 41.97     492.00      22.18
 42.07     550.57      23.46
 42.17     467.55      21.62
 42.27     512.99      22.65
 42.37     513.00      22.65
 42.47     541.01      23.26
 42.57     586.00      24.21
 42.67     615.46      24.81
 42.77     591.00      24.31
 42.87     581.00      24.10
 42.97     567.00      23.81
 43.07     529.00      23.00
 43.17     514.00      22.67
 43.27     514.00      22.67
 43.37     484.12      22.00
 43.47     506.00      22.49
 43.57     524.37      22.90
 43.67     484.98      22.02
 43.77     458.31      21.41
 43.87     534.47      23.12
 43.97     491.25      22.16
 44.07     458.05      21.40
 44.17     490.00      22.14
 44.27     499.00      22.34
 44.37     502.00      22.41
 44.47     528.00      22.98
 44.57     526.19      22.94
 44.67     498.00      22.32
 44.77     482.00      21.95
 44.87     511.00      22.61
 44.97     492.00      22.18
 45.07     493.00      22.20
 45.17     516.00      22.72
 45.27     456.95      21.38
 45.37     528.25      22.98
 45.47     541.09      23.26
 45.57     536.32      23.16
 45.67     516.03      22.72
 45.77     536.03      23.15
 45.87     512.88      22.65
 45.97     457.54      21.39
 46.07     468.00      21.63
 46.17     513.00      22.65
 46.27     527.00      22.96
 46.37     540.00      23.24
 46.47     540.44      23.25
 46.57     543.59      23.31
 46.67     535.00      23.13
 46.77     481.57      21.94
 46.87     475.00      21.79
 46.97     519.00      22.78
 47.07     544.79      23.34
 47.17     505.00      22.47
 47.27     469.00      21.66
 47.37     512.00      22.63
 47.47     548.68      23.42
 47.57     538.00      23.19
 47.67     566.00      23.79
 47.77     560.00      23.66
 47.87     600.00      24.49
 47.97     576.41      24.01
 48.07     601.00      24.52
 48.17     563.00      23.73
 48.27     543.29      23.31
 48.37     534.30      23.11
 48.47     499.54      22.35
 48.57     559.63      23.66
 48.67     512.30      22.63
 48.77     488.30      22.10
 48.87     499.66      22.35
 48.97     534.00      23.11
 49.07     543.00      23.30
 49.17     571.13      23.90
 49.27     571.90      23.91
 49.37     649.00      25.48
 49.47     700.00      26.46
 49.57     750.52      27.40
 49.67     833.00      28.86
 49.77    1074.00      32.77
 49.87    1272.00      35.67
 49.97    1730.00      41.59
 50.07    2153.23      46.40
 50.17    2403.29      49.02
 50.27    2585.00      50.84
 50.37    2507.00      50.07
 50.47    2079.00      45.60
 50.57    1639.00      40.48
 50.67    1254.80      35.42
 50.77     978.74      31.28
 50.87     807.15      28.41
 50.97     695.91      26.38
 51.07     612.00      24.74
 51.17     633.00      25.16
 51.27     549.00      23.43
 51.37     615.00      24.80
 51.47     578.05      24.04
 51.57     596.42      24.42
 51.67     589.55      24.28
 51.77     572.76      23.93
 51.87     542.00      23.28
 51.97     554.00      23.54
 52.07     543.00      23.30
 52.17     522.57      22.86
 52.27     499.25      22.34
 52.37     530.00      23.02
 52.47     593.00      24.35
 52.57     579.20      24.07
 52.67     578.00      24.04
 52.77     513.85      22.67
 52.87     548.11      23.41
 52.97     656.00      25.61
 53.07     759.00      27.55
 53.17     808.00      28.43
 53.27     942.00      30.69
 53.37    1046.18      32.34
 53.47    1185.34      34.43
 53.57    1172.11      34.24
 53.67    1120.00      33.47
 53.77    1115.29      33.40
 53.87     998.46      31.60
 53.97     808.00      28.43
 54.07     699.00      26.44
 54.17     631.00      25.12
 54.27     592.00      24.33
 54.37     561.00      23.69
 54.47     568.00      23.83
 54.57     583.17      24.15
 54.67     553.08      23.52
 54.77     544.40      23.33
 54.87     535.00      23.13
 54.97     520.97      22.82
 55.07     546.00      23.37
 55.17     478.00      21.86
 55.27     560.11      23.67
 55.37     548.49      23.42
 55.47     499.81      22.36
 55.57     539.37      23.22
 55.67     517.22      22.74
 55.77     550.00      23.45
 55.87     526.00      22.93
 55.97     639.00      25.28
 56.07     666.66      25.82
 56.17     670.00      25.88
 56.27     752.29      27.43
 56.37     907.00      30.12
 56.47    1199.00      34.63
 56.57    1551.00      39.38
 56.67    1930.07      43.93
 56.77    2367.00      48.65
 56.87    2492.00      49.92
 56.97    2763.00      52.56
 57.07    2475.00      49.75
 57.17    2291.69      47.87
 57.27    1932.00      43.95
 57.37    1556.00      39.45
 57.47    1176.00      34.29
 57.57     962.00      31.02
 57.67     774.07      27.82
 57.77     753.14      27.44
 57.87     702.00      26.50
 57.97     637.98      25.26
 58.07     622.00      24.94
 58.17     655.00      25.59
 58.27     727.00      26.96
 58.37     828.75      28.79
 58.47     936.00      30.59
 58.57    1054.00      32.47
 58.67    1151.00      33.93
 58.77    1381.00      37.16
 58.87    1362.00      36.91
 58.97    1561.95      39.52
 59.07    1594.64      39.93
 59.17    1603.00      40.04
 59.27    1485.22      38.54
 59.37    1467.33      38.31
 59.47    1278.43      35.76
 59.57    1258.00      35.47
 59.67    1150.65      33.92
 59.77    1150.00      33.91
 59.87    1135.70      33.70
 59.97    1258.00      35.47
 60.07    1421.00      37.70
 60.17    1495.00      38.67
 60.27    1476.03      38.42
 60.37    1611.00      40.14
 60.47    1492.00      38.63
 60.57    1383.00      37.19
 60.67    1225.00      35.00
 60.77     986.52      31.41
 60.87     882.00      29.70
 60.97     779.00      27.91
 61.07     698.64      26.43
 61.17     661.60      25.72
 61.27     633.00      25.16
 61.37     610.63      24.71
 61.47     705.00      26.55
 61.57     672.93      25.94
 61.67     735.00      27.11
 61.77     872.00      29.53
 61.87    1001.00      31.64
 61.97    1171.89      34.23
 62.07    1220.00      34.93
 62.17    1458.08      38.18
 62.27    1463.82      38.26
 62.37    1342.00      36.63
 62.47    1246.00      35.30
 62.57    1133.48      33.67
 62.67    1002.00      31.65
 62.77     833.00      28.86
 62.87     703.00      26.51
 62.97     710.88      26.66
 63.07     623.00      24.96
 63.17     600.88      24.51
 63.27     580.00      24.08
 63.37     590.00      24.29
 63.47     551.00      23.47
 63.57     579.00      24.06
 63.67     598.00      24.45
 63.77     513.79      22.67
 63.87     604.79      24.59
 63.97     632.00      25.14
 64.07     586.98      24.23
 64.17     707.00      26.59
 64.27     791.00      28.12
 64.37     851.00      29.17
 64.47     931.00      30.51
 64.57     966.00      31.08
 64.67     976.00      31.24
 64.77    1001.00      31.64
 64.87     987.00      31.42
 64.97     980.00      31.30
 65.07     881.00      29.68
 65.17     830.00      28.81
 65.27     728.52      26.99
 65.37     725.00      26.93
 65.47     610.00      24.70
 65.57     629.00      25.08
 65.67     659.59      25.68
 65.77     591.00      24.31
 65.87     540.00      23.24
 65.97     523.91      22.89
 66.07     564.00      23.75
 66.17     564.00      23.75
 66.27     584.00      24.17
 66.37     537.49      23.18
 66.47     541.05      23.26
 66.57     530.00      23.02
 66.67     565.00      23.77
 66.77     544.00      23.32
 66.87     572.00      23.92
 66.97     575.00      23.98
 67.07     621.67      24.93
 67.17     649.07      25.48
 67.27     685.00      26.17
 67.37     766.00      27.68
 67.47     932.74      30.54
 67.57    1092.00      33.05
 67.67    1319.00      36.32
 67.77    1664.00      40.79
 67.87    1868.51      43.23
 67.97    2063.00      45.42
 68.07    2364.38      48.62
 68.17    2470.00      49.70
 68.27    2343.00      48.40
 68.37    2319.00      48.16
 68.47    1983.07      44.53
 68.57    1817.00      42.63
 68.67    1439.00      37.93
 68.77    1261.00      35.51
 68.87     954.00      30.89
 68.97     714.00      26.72
 69.07     712.85      26.70
 69.17     643.00      25.36
 69.27     588.41      24.26
 69.37     633.00      25.16
 69.47     643.00      25.36
 69.57     541.34      23.27
 69.67     604.04      24.58
 69.77     576.00      24.00
 69.87     571.00      23.90
 69.97     576.00      24.00
 70.07     603.00      24.56
 70.17     548.00      23.41
 70.27     592.00      24.33
 70.37     543.77      23.32
 70.47     573.00      23.94
 70.57     600.00      24.49
 70.67     568.00      23.83
 70.77     573.00      23.94
 70.87     567.00      23.81
 70.97     537.00      23.17
 71.07     573.00      23.94
 71.17     625.00      25.00
 71.27     733.00      27.07
 71.37     788.00      28.07
 71.47     930.31      30.50
 71.57    1072.39      32.75
 71.67    1222.64      34.97
 71.77    1468.90      38.33
 71.87    1672.00      40.89
 71.97    1891.00      43.49
 72.07    1986.00      44.56
 72.17    1972.00      44.41
 72.27    1924.00      43.86
 72.37    1705.00      41.29
 72.47    1650.00      40.62
 72.57    1507.00      38.82
 72.67    1258.00      35.47
 72.77    1185.62      34.43
 72.87    1090.00      33.02
 72.97     982.21      31.34
 73.07     981.04      31.32
 73.17     932.80      30.54
 73.27     788.00      28.07
 73.37     666.00      25.81
 73.47     704.00      26.53
 73.57     632.00      25.14
 73.67     616.52      24.83
 73.77     635.75      25.21
 73.87     588.00      24.25
 73.97     557.15      23.60
 74.07     610.61      24.71
 74.17     569.00      23.85
 74.27     599.00      24.47
 74.37     530.83      23.04
 74.47     614.00      24.78
 74.57     596.86      24.43
 74.67     563.92      23.75
 74.77     626.00      25.02
 74.87     646.00      25.42
 74.97     593.00      24.35
 75.07     673.00      25.94
 75.17     521.83      22.84
 75.27     579.48      24.07
 75.37     543.43      23.31
 75.47     534.69      23.12
 75.57     513.00      22.65
 75.67     529.00      23.00
 75.77     516.28      22.72
 75.87     603.25      24.56
 75.97     561.00      23.69
 76.07     576.11      24.00
 76.17     618.00      24.86
 76.27     628.69      25.07
 76.37     666.00      25.81
 76.47     713.97      26.72
 76.57     730.00      27.02
 76.67     737.00      27.15
 76.77     716.95      26.78
 76.87     696.87      26.40
 76.97     655.84      25.61
 77.07     662.00      25.73
 77.17     555.00      23.56
 77.27     585.74      24.20
 77.37     556.00      23.58
 77.47     549.00      23.43
 77.57     504.00      22.45
 77.67     555.79      23.58
 77.77     508.02      22.54
 77.87     536.23      23.16
 77.97     513.00      22.65
 78.07     520.00      22.80
 78.17     500.00      22.36
 78.27     543.00      23.30
 78.37     474.20      21.78
 78.47     557.00      23.60
 78.57     540.00      23.24
 78.67     557.24      23.61
 78.77     514.00      22.67
 78.87     501.29      22.39
 78.97     543.97      23.32
 79.07     524.19      22.90
 79.17     477.00      21.84
 79.27     508.15      22.54
 79.37     564.08      23.75
 79.47     524.00      22.89
 79.57     547.53      23.40
 79.67     506.00      22.49
 79.77     524.00      22.89
 79.87     552.00      23.49
 79.97     527.00      22.96
 80.07     524.00      22.89
 80.17     542.00      23.28
 80.27     553.00      23.52
 80.37     594.78      24.39
 80.47     575.00      23.98
 80.57     582.00      24.12
 80.67     569.00      23.85
 80.77     617.00      24.84
 80.87     607.00      24.64
 80.97     665.00      25.79
 81.07     692.19      26.31
 81.17     702.00      26.50
 81.27     736.33      27.14
 81.37     747.00      27.33
 81.47     780.00      27.93
 81.57     742.00      27.24
 81.67     781.62      27.96
 81.77     724.72      26.92
 81.87     728.00      26.98
 81.97     739.21      27.19
 82.07     673.60      25.95
 82.17     617.89      24.86
 82.27     613.84      24.78
 82.37     663.00      25.75
 82.47     607.00      24.64
 82.57     557.00      23.60
 82.67     520.00      22.80
 82.77     531.99      23.06
 82.87     545.00      23.35
 82.97     563.14      23.73
 83.07     553.00      23.52
 83.17     573.17      23.94
 83.27     563.21      23.73
 83.37     561.00      23.69
 83.47     544.00      23.32
 83.57     557.00      23.60
 83.67     547.00      23.39
 83.77     503.00      22.43
 83.87     546.00      23.37
 83.97     529.00      23.00
 84.07     569.00      23.85
 84.17     559.00      23.64
 84.27     559.00      23.64
 84.37     531.00      23.04
 84.47     526.00      22.93
 84.57     593.19      24.36
 84.67     535.00      23.13
 84.77     513.00      22.65
 84.87     543.00      23.30
 84.97     500.00      22.36
 85.07     543.65      23.32
 85.17     517.00      22.74
 85.27     545.92      23.36
 85.37     556.72      23.59
 85.47     529.00      23.00
 85.57     495.00      22.25
 85.67     525.00      22.91
 85.77     552.97      23.52
 85.87     501.00      22.38
 85.97     500.00      22.36
 86.07     550.82      23.47
 86.17     523.00      22.87
 86.27     521.00      22.83
 86.37     493.00      22.20
 86.47     499.17      22.34
 86.57     576.00      24.00
 86.67     511.59      22.62
 86.77     543.00      23.30
 86.87     590.00      24.29
 86.97     542.00      23.28
 87.07     556.31      23.59
 87.17     639.69      25.29
 87.27     669.00      25.87
 87.37     691.00      26.29
 87.47     595.00      24.39
 87.57     658.00      25.65
 87.67     618.00      24.86
 87.77     635.00      25.20
 87.87     584.70      24.18
 87.97     611.00      24.72
 88.07     635.00      25.20
 88.17     558.00      23.62
 88.27     589.98      24.29
 88.37     542.00      23.28
 88.47     570.00      23.87
 88.57     556.00      23.58
 88.67     548.00      23.41
 88.77     515.00      22.69
 88.87     513.56      22.66
 88.97     570.00      23.87
 89.07     594.32      24.38
 89.17     613.00      24.76
 89.27     616.00      24.82
 89.37     626.00      25.02
 89.47     594.00      24.37
 89.57     542.52      23.29
 89.67     614.00      24.78
 89.77     558.00      23.62
 89.87     624.05      24.98
 89.97     522.46      22.86
 90.07     545.00      23.35
 90.17     556.00      23.58
 90.27     563.00      23.73
 90.37     509.00      22.56
 90.47     534.08      23.11
 90.57     521.88      22.84
 90.67     546.52      23.38
 90.77     508.46      22.55
 90.87     490.53      22.15
 90.97     492.00      22.18
 91.07     473.00      21.75
 91.17     480.00      21.91
 91.27     524.00      22.89
 91.37     495.00      22.25
 91.47     538.67      23.21
 91.57     485.00      22.02
 91.67     517.00      22.74
 91.77     530.67      23.04
 91.87     519.59      22.79
 91.97     522.42      22.86
 92.07     534.00      23.11
 92.17     558.00      23.62
 92.27     560.00      23.66
 92.37     565.33      23.78
 92.47     588.00      24.25
 92.57     601.04      24.52
 92.67     629.00      25.08
 92.77     655.79      25.61
 92.87     702.50      26.50
 92.97     727.09      26.96
 93.07     732.00      27.06
 93.17     742.00      27.24
 93.27     764.00      27.64
 93.37     804.00      28.35
 93.47     817.08      28.58
 93.57     783.00      27.98
 93.67     822.00      28.67
 93.77     858.00      29.29
 93.87     844.00      29.05
 93.97     840.00      28.98
 94.07     829.00      28.79
 94.17     869.78      29.49
 94.27     893.00      29.88
 94.37     848.00      29.12
 94.47     904.00      30.07
 94.57     867.44      29.45
 94.67     823.12      28.69
 94.77     890.00      29.83
 94.87     917.00      30.28
 94.97     903.37      30.06
 95.07     860.00      29.33
 95.17     894.00      29.90
 95.27     916.00      30.27
 95.37     880.00      29.66
 95.47     745.88      27.31
 95.57     789.00      28.09
 95.67     785.84      28.03
 95.77     691.00      26.29
 95.87     764.00      27.64
 95.97     681.00      26.10
 96.07     697.30      26.41
 96.17     690.00      26.27
 96.27     643.61      25.37
 96.37     716.00      26.76
 96.47     757.00      27.51
 96.57     766.00      27.68
 96.67     880.00      29.66
 96.77     939.85      30.66
 96.87     972.00      31.18
 96.97    1059.00      32.54
 97.07    1112.00      33.35
 97.17    1157.00      34.01
 97.27    1306.00      36.14
 97.37    1336.00      36.55
 97.47    1475.00      38.41
 97.57    1332.00      36.50
 97.67    1424.00      37.74
 97.77    1525.00      39.05
 97.87    1392.00      37.31
 97.97    1359.00      36.86
 98.07    1329.76      36.47
 98.17    1198.00      34.61
 98.27    1175.99      34.29
 98.37    1149.00      33.90
 98.47    1008.00      31.75
 98.57     963.00      31.03
 98.67     919.74      30.33
 98.77     843.26      29.04
 98.87     872.42      29.54
 98.97     805.00      28.37
 99.07     793.00      28.16
 99.17     781.00      27.95
 99.27     772.64      27.80
 99.37     826.50      28.75
 99.47     843.00      29.03
 99.57     965.59      31.07
 99.67    1110.92      33.33
 99.77    1150.91      33.93
 99.87    1200.00      34.64
 99.97    1379.00      37.13
100.07    1525.56      39.06
100.17    1507.67      38.83
100.27    1648.91      40.61
100.37    1873.00      43.28
100.47    1863.00      43.16
100.57    2111.00      45.95
100.67    2062.00      45.41
100.77    2206.00      46.97
100.87    2185.00      46.74
100.97    2175.45      46.64
101.07    2053.00      45.31
101.17    1965.38      44.33
101.27    1983.00      44.53
101.37    1933.90      43.98
101.47    1820.00      42.66
101.57    1678.00      40.96
101.67    1601.00      40.01
101.77    1445.00      38.01
101.87    1389.06      37.27
101.97    1392.34      37.31
102.07    1276.00      35.72
102.17    1227.00      35.03
102.27    1189.93      34.50
102.37    1143.00      33.81
102.47    1123.00      33.51
102.57    1134.00      33.67
102.67    1133.00      33.66
102.77    1036.96      32.20
102.87    1009.00      31.76
102.97    1008.05      31.75
103.07     925.00      30.41
103.17     919.21      30.32
103.27     910.00      30.17
103.37     849.00      29.14
103.47     773.00      27.80
103.57     747.23      27.34
103.67     688.33      26.24
103.77     714.00      26.72
103.87     702.00      26.50
103.97     656.00      25.61
104.07     646.00      25.42
104.17     627.42      25.05
104.27     616.44      24.83
104.37     552.00      23.49
104.47     564.00      23.75
104.57     507.03      22.52
104.67     484.69      22.02
104.77     534.00      23.11
104.87     546.73      23.38
104.97     542.00      23.28
105.07     519.00      22.78
105.17     529.44      23.01
105.27     470.91      21.70
105.37     523.37      22.88
105.47     535.00      23.13
105.57     521.00      22.83
105.67     557.00      23.60
105.77     541.00      23.26
105.87     555.27      23.56
105.97     573.00      23.94
106.07     579.00      24.06
106.17     522.31      22.85
106.27     552.20      23.50
106.37     596.00      24.41
106.47     615.37      24.81
106.57     598.00      24.45
106.67     647.95      25.45
106.77     614.00      24.78
106.87     683.57      26.15
106.97     643.67      25.37
107.07     634.17      25.18
107.17     709.74      26.64
107.27     644.00      25.38
107.37     728.00      26.98
107.47     681.26      26.10
107.57     655.66      25.61
107.67     692.00      26.31
107.77     666.75      25.82
107.87     673.00      25.94
107.97     660.13      25.69
108.07     668.00      25.85
108.17     631.00      25.12
108.27     666.00      25.81
108.37     696.00      26.38
108.47     701.80      26.49
108.57     664.00      25.77
108.67     637.00      25.24
108.77     673.00      25.94
108.87     702.00      26.50
108.97     689.00      26.25
109.07     733.51      27.08
109.17     674.00      25.96
109.27     711.86      26.68
109.37     683.00      26.13
109.47     681.00      26.10
109.57     592.93      24.35
109.67     628.00      25.06
109.77     672.14      25.93
109.87     566.00      23.79
109.97     564.74      23.76
110.07     617.00      24.84
110.17     578.00      24.04
110.27     604.00      24.58
110.37     564.00      23.75
110.47     586.00      24.21
110.57     581.00      24.10
110.67     538.00      23.19
110.77     530.00      23.02
110.87     517.00      22.74
110.97     500.30      22.37
111.07     511.00      22.61
111.17     511.00      22.61
111.27     531.00      23.04
111.37     564.91      23.77
111.47     535.00      23.13
111.57     559.00      23.64
111.67     517.00      22.74
111.77     528.00      22.98
111.87     510.00      22.58
111.97     562.93      23.73
112.07     524.92      22.91
112.17     579.00      24.06
112.27     539.00      23.22
112.37     595.00      24.39
112.47     533.51      23.10
112.57     546.00      23.37
112.67     642.98      25.36
112.77     566.75      23.81
112.87     641.00      25.32
112.97     613.00      24.76
113.07     701.83      26.49
113.17     717.00      26.78
113.27     669.00      25.87
113.37     756.00      27.50
113.47     721.00      26.85
113.57     777.40      27.88
113.67     863.00      29.38
113.77     823.00      28.69
113.87     902.00      30.03
113.97     965.00      31.06
114.07     966.79      31.09
114.17    1067.43      32.67
114.27    1106.00      33.26
114.37    1142.00      33.79
114.47    1182.00      34.38
114.57    1363.00      36.92
114.67    1408.88      37.53
114.77    1565.00      39.56
114.87    1697.34      41.20
114.97    1911.00      43.71
115.07    2103.00      45.86
115.17    2305.00      48.01
115.27    2608.00      51.07
115.37    2862.00      53.50
115.47    2954.00      54.35
115.57    3411.00      58.40
115.67    3636.44      60.30
115.77    3990.00      63.17
115.87    4289.00      65.49
115.97    4672.00      68.35
116.07    5178.00      71.96
116.17    5682.26      75.38
116.27    5975.00      77.30
116.37    6486.82      80.54
116.47    6690.00      81.79
116.57    6812.00      82.53
116.67    7135.00      84.47
116.77    7107.03      84.30
116.87    7319.00      85.55
116.97    7194.00      84.82
117.07    6962.00      83.44
117.17    6852.00      82.78
117.27    6548.00      80.92
117.37    6257.73      79.11
117.47    5806.00      76.20
117.57    5299.00      72.79
117.67    4990.00      70.64
117.77    4589.00      67.74
117.87    4302.00      65.59
117.97    3729.43      61.07
118.07    3649.00      60.41
118.17    3216.00      56.71
118.27    2831.40      53.21
118.37    2555.90      50.56
118.47    2198.00      46.88
118.57    1990.23      44.61
118.67    1703.00      41.27
118.77    1497.00      38.69
118.87    1273.00      35.68
118.97    1181.37      34.37
119.07    1158.40      34.04
119.17     986.49      31.41
119.27     877.00      29.61
119.37     863.21      29.38
119.47     827.56      28.77
119.57     704.25      26.54
119.67     711.00      26.66
119.77     692.00      26.31
119.87     658.90      25.67
119.97     602.00      24.54
120.07     590.00      24.29
120.17     579.00      24.06
120.27     598.00      24.45
120.37     574.00      23.96
120.47     610.42      24.71
120.57     572.75      23.93
120.67     599.00      24.47
120.77     547.34      23.40
120.87     554.00      23.54
120.97     524.31      22.90
121.07     528.05      22.98
121.17     544.71      23.34
121.27     524.59      22.90
121.37     522.00      22.85
121.47     579.00      24.06
121.57     555.00      23.56
121.67     559.21      23.65
121.77     611.36      24.73
121.87     557.00      23.60
121.97     557.00      23.60
122.07     592.00      24.33
122.17     604.00      24.58
122.27     618.42      24.87
122.37     594.09      24.37
122.47     626.00      25.02
122.57     595.00      24.39
122.67     598.50      24.46
122.77     619.00      24.88
122.87     625.00      25.00
122.97     635.00      25.20
123.07     589.35      24.28
123.17     608.00      24.66
123.27     675.00      25.98
123.37     652.00      25.53
123.47     616.00      24.82
123.57     596.28      24.42
123.67     599.71      24.49
123.77     631.13      25.12
123.87     587.26      24.23
123.97     582.68      24.14
124.07     629.00      25.08
124.17     620.00      24.90
124.27     606.00      24.62
124.37     617.00      24.84
124.47     598.00      24.45
124.57     616.00      24.82
124.67     584.00      24.17
124.77     639.00      25.28
124.87     551.21      23.48
124.97     591.00      24.31
