  9.97     730.00      27.02
 10.07     756.89      27.51
 10.17     773.00      27.80
 10.27     755.00      27.48
 10.37     757.44      27.52
 10.47     714.00      26.72
 10.57     786.00      28.04
 10.67     735.82      27.13
 10.77     774.16      27.82
 10.87     757.00      27.51
 10.97     776.00      27.86
 11.07     763.00      27.62
 11.17     763.00      27.62
 11.27     677.70      26.03
 11.37     703.47      26.52
 11.47     744.00      27.28
 11.57     776.00      27.86
 11.67     756.00      27.50
 11.77     799.00      28.27
 11.87     881.00      29.68
 11.97     830.00      28.81
 12.07     815.21      28.55
 12.17     800.00      28.28
 12.27     877.00      29.61
 12.37     845.00      29.07
 12.47     890.00      29.83
 12.57     770.00      27.75
 12.67     735.00      27.11
 12.77     691.00      26.29
 12.87     721.00      26.85
 12.97     772.14      27.79
 13.07     691.00      26.29
 13.17     663.00      25.75
 13.27     744.04      27.28
 13.37     667.00      25.83
 13.47     683.00      26.13
 13.57     751.00      27.40
 13.67     675.00      25.98
 13.77     678.60      26.05
 13.87     719.00      26.81
 13.97     676.31      26.01
 14.07     723.43      26.90
 14.17     693.00      26.32
 14.27     682.54      26.13
 14.37     646.21      25.42
 14.47     701.00      26.48
 14.57     722.60      26.88
 14.67     638.51      25.27
 14.77     656.00      25.61
 14.87     720.00      26.83
 14.97     731.00      27.04
 15.07     645.00      25.40
 15.17     735.09      27.11
 15.27     710.19      26.65
 15.37     650.00      25.50
 15.47     674.00      25.96
 15.57     704.00      26.53
 15.67     633.59      25.17
 15.77     686.45      26.20
 15.87     702.00      26.50
 15.97     680.00      26.08
 16.07     652.00      25.53
 16.17     731.47      27.05
 16.27     658.00      25.65
 16.37     681.00      26.10
 16.47     683.00      26.13
 16.57     676.00      26.00
 16.67     681.00      26.10
 16.77     635.20      25.20
 16.87     620.54      24.91
 16.97     638.76      25.27
 17.07     650.57      25.51
 17.17     684.75      26.17
 17.27     690.23      26.27
 17.37     691.00      26.29
 17.47     675.89      26.00
 17.57     704.51      26.54
 17.67     673.04      25.94
 17.77     708.53      26.62
 17.87     630.00      25.10
 17.97     704.43      26.54
 18.07     617.32      24.85
 18.17     657.89      25.65
 18.27     703.00      26.51
 18.37     669.00      25.87
 18.47     694.71      26.36
 18.57     647.00      25.44
 18.67     631.00      25.12
 18.77     667.00      25.83
 18.87     665.04      25.79
 18.97     674.79      25.98
 19.07     626.00      25.02
 19.17     659.00      25.67
 19.27     637.20      25.24
 19.37     610.99      24.72
 19.47     675.39      25.99
 19.57     613.95      24.78
 19.67     615.36      24.81
 19.77     621.94      24.94
 19.87     631.00      25.12
 19.97     626.95      25.04
 20.07     621.00      24.92
 20.17     593.00      24.35
 20.27     683.00      26.13
 20.37     633.00      25.16
 20.47     666.00      25.81
 20.57     612.00      24.74
 20.67     660.00      25.69
 20.77     670.51      25.89
 20.87     645.00      25.40
 20.97     610.21      24.70
 21.07     626.00      25.02
 21.17     672.87      25.94
 21.27     626.47      25.03
 21.37     633.00      25.16
 21.47     691.26      26.29
 21.57     609.00      24.68
 21.67     641.00      25.32
 21.77     647.00      25.44
 21.87     633.00      25.16
 21.97     623.00      24.96
 22.07     669.00      25.87
 22.17     639.00      25.28
 22.27     674.60      25.97
 22.37     666.00      25.81
 22.47     616.00      24.82
 22.57     678.60      26.05
 22.67     636.00      25.22
 22.77     635.00      25.20
 22.87     598.00      24.45
 22.97     623.00      24.96
 23.07     612.91      24.76
 23.17     635.00      25.20
 23.27     651.00      25.51
 23.37     638.72      25.27
 23.47     602.23      24.54
 23.57     610.92      24.72
 23.67     612.37      24.75
 23.77     710.00      26.65
 23.87     688.78      26.24
 23.97     679.72      26.07
 24.07     660.22      25.69
 24.17     615.00      24.80
 24.27     649.00      25.48
 24.37     637.00      25.24
 24.47     672.00      25.92
 24.57     649.00      25.48
 24.67     644.32      25.38
 24.77     725.00      26.93
 24.87     716.00      26.76
 24.97     710.00      26.65
 25.07     737.78      27.16
 25.17     721.00      26.85
 25.27     760.00      27.57
 25.37     671.87      25.92
 25.47     641.00      25.32
 25.57     702.00      26.50
 25.67     684.00      26.15
 25.77     699.81      26.45
 25.87     674.00      25.96
 25.97     677.00      26.02
 26.07     649.00      25.48
 26.17     671.00      25.90
 26.27     686.13      26.19
 26.37     685.29      26.18
 26.47     663.00      25.75
 26.57     681.00      26.10
 26.67     707.00      26.59
 26.77     676.00      26.00
 26.87     704.00      26.53
 26.97     692.00      26.31
 27.07     762.43      27.61
 27.17     696.33      26.39
 27.27     733.00      27.07
 27.37     743.00      27.26
 27.47     755.00      27.48
 27.57     837.00      28.93
 27.67     880.00      29.66
 27.77     888.00      29.80
 27.87    1069.00      32.70
 27.97    1396.88      37.37
 28.07    2075.80      45.56
 28.17    3327.00      57.68
 28.27    5462.00      73.91
 28.37    8046.46      89.70
 28.47    9053.00      95.15
 28.57    8646.00      92.98
 28.67    6857.00      82.81
 28.77    4893.00      69.95
 28.87    3986.04      63.14
 28.97    4001.00      63.25
 29.07    4787.00      69.19
 29.17    4945.83      70.33
 29.27    4849.15      69.64
 29.37    3755.00      61.28
 29.47    2609.00      51.08
 29.57    1834.00      42.83
 29.67    1367.54      36.98
 29.77    1043.00      32.30
 29.87     943.00      30.71
 29.97     914.00      30.23
 30.07     823.51      28.70
 30.17     810.00      28.46
 30.27     761.63      27.60
 30.37     772.00      27.78
 30.47     738.32      27.17
 30.57     772.00      27.78
 30.67     659.53      25.68
 30.77     759.28      27.56
 30.87     729.00      27.00
 30.97     765.73      27.67
 31.07     803.00      28.34
 31.17     838.39      28.96
 31.27     901.00      30.02
 31.37     827.00      28.76
 31.47     691.18      26.29
 31.57     728.67      26.99
 31.67     714.00      26.72
 31.77     710.00      26.65
 31.87     676.00      26.00
 31.97     657.00      25.63
 32.07     599.50      24.48
 32.17     676.00      26.00
 32.27     646.00      25.42
 32.37     662.00      25.73
 32.47     692.00      26.31
 32.57     639.00      25.28
 32.67     646.00      25.42
 32.77     694.00      26.34
 32.87     699.00      26.44
 32.97     610.00      24.70
 33.07     653.00      25.55
 33.17     683.00      26.13
 33.27     690.68      26.28
 33.37     652.00      25.53
 33.47     662.83      25.75
 33.57     681.00      26.10
 33.67     672.00      25.92
 33.77     713.00      26.70
 33.87     816.33      28.57
 33.97     799.00      28.27
 34.07     917.36      30.29
 34.17    1050.00      32.40
 34.27    1259.00      35.48
 34.37    1318.00      36.30
 34.47    1218.96      34.91
 34.57    1090.22      33.02
 34.67     913.00      30.22
 34.77     839.00      28.97
 34.87     770.64      27.76
 34.97     741.00      27.22
 35.07     619.68      24.89
 35.17     657.71      25.65
 35.27     631.73      25.13
 35.37     612.58      24.75
 35.47     607.91      24.66
 35.57     676.50      26.01
 35.67     635.00      25.20
 35.77     668.00      25.85
 35.87     658.00      25.65
 35.97     610.03      24.70
 36.07     633.15      25.16
 36.17     572.41      23.93
 36.27     631.47      25.13
 36.37     608.00      24.66
 36.47     593.00      24.35
 36.57     588.36      24.26
 36.67     568.68      23.85
 36.77     571.57      23.91
 36.87     618.00      24.86
 36.97     643.00      25.36
 37.07     648.00      25.46
 37.17     595.00      24.39
 37.27     638.00      25.26
 37.37     636.00      25.22
 37.47     637.00      25.24
 37.57     672.26      25.93
 37.67     628.66      25.07
 37.77     619.00      24.88
 37.87     706.15      26.57
 37.97     736.08      27.13
 38.07     689.00      26.25
 38.17     741.51      27.23
 38.27     768.00      27.71
 38.37     786.63      28.05
 38.47     815.00      28.55
 38.57     706.00      26.57
 38.67     720.00      26.83
 38.77     734.00      27.09
 38.87     655.00      25.59
 38.97     634.00      25.18
 39.07     649.00      25.48
 39.17     616.00      24.82
 39.27     619.22      24.88
 39.37     621.00      24.92
 39.47     655.17      25.60
 39.57     594.00      24.37
 39.67     603.00      24.56
 39.77     593.00      24.35
 39.87     637.00      25.24
 39.97     657.00      25.63
 40.07     598.95      24.47
 40.17     601.00      24.52
 40.27     635.00      25.20
 40.37     643.00      25.36
 40.47     641.00      25.32
 40.57     632.00      25.14
 40.67     583.40      24.15
 40.77     610.00      24.70
 40.87     672.00      25.92
 40.97     635.32      25.21
 41.07     629.31      25.09
 41.17     589.40      24.28
 41.27     593.00      24.35
 41.37     567.00      23.81
 41.47     630.00      25.10
 41.57     600.00      24.49
 41.67     594.00      24.37
 41.77     589.00      24.27
 41.87     565.00      23.77
 41.97     602.00      24.54
 42.07     601.00      24.52
 42.17     665.26      25.79
 42.27     636.00      25.22
 42.37     674.08      25.96
 42.47     591.62      24.32
 42.57     590.00      24.29
 42.67     625.00      25.00
 42.77     677.98      26.04
 42.87     681.00      26.10
 42.97     712.00      26.68
 43.07     668.00      25.85
 43.17     682.43      26.12
 43.27     706.49      26.58
 43.37     687.00      26.21
 43.47     601.00      24.52
 43.57     613.00      24.76
 43.67     608.00      24.66
 43.77     603.60      24.57
 43.87     632.41      25.15
 43.97     639.00      25.28
 44.07     664.00      25.77
 44.17     583.00      24.15
 44.27     600.00      24.49
 44.37     589.24      24.27
 44.47     643.00      25.36
 44.57     603.80      24.57
 44.67     637.00      25.24
 44.77     650.00      25.50
 44.87     624.38      24.99
 44.97     570.16      23.88
 45.07     651.47      25.52
 45.17     610.00      24.70
 45.27     630.00      25.10
 45.37     645.00      25.40
 45.47     644.00      25.38
 45.57     637.24      25.24
 45.67     575.00      23.98
 45.77     653.00      25.55
 45.87     632.00      25.14
 45.97     598.00      24.45
 46.07     637.00      25.24
 46.17     598.00      24.45
 46.27     636.43      25.23
 46.37     619.00      24.88
 46.47     659.00      25.67
 46.57     653.00      25.55
 46.67     661.00      25.71
 46.77     617.00      24.84
 46.87     578.15      24.04
 46.97     649.90      25.49
 47.07     604.00      24.58
 47.17     639.00      25.28
 47.27     576.95      24.02
 47.37     649.29      25.48
 47.47     624.00      24.98
 47.57     637.90      25.26
 47.67     676.00      26.00
 47.77     692.87      26.32
 47.87     619.00      24.88
 47.97     702.00      26.50
 48.07     721.00      26.85
 48.17     675.00      25.98
 48.27     699.98      26.46
 48.37     644.00      25.38
 48.47     694.33      26.35
 48.57     692.00      26.31
 48.67     640.00      25.30
 48.77     670.00      25.88
 48.87     656.00      25.61
 48.97     657.00      25.63
 49.07     616.00      24.82
 49.17     659.00      25.67
 49.27     674.00      25.96
 49.37     666.00      25.81
 49.47     700.00      26.46
 49.57     680.00      26.08
 49.67     733.00      27.07
 49.77     722.00      26.87
 49.87     814.00      28.53
 49.97     921.75      30.36
 50.07    1231.63      35.09
 50.17    1484.40      38.53
 50.27    1877.00      43.32
 50.37    2438.38      49.38
 50.47    2874.00      53.61
 50.57    3240.00      56.92
 50.67    3202.51      56.59
 50.77    2998.00      54.75
 50.87    2502.00      50.02
 50.97    1966.00      44.34
 51.07    1510.00      38.86
 51.17    1247.62      35.32
 51.27    1047.00      32.36
 51.37     923.00      30.38
 51.47     766.19      27.68
 51.57     786.00      28.04
 51.67     807.00      28.41
 51.77     772.00      27.78
 51.87     706.01      26.57
 51.97     791.00      28.12
 52.07     686.28      26.20
 52.17     720.00      26.83
 52.27     742.00      27.24
 52.37     741.00      27.22
 52.47     692.44      26.31
 52.57     719.00      26.81
 52.67     644.10      25.38
 52.77     688.00      26.23
 52.87     719.00      26.81
 52.97     677.00      26.02
 53.07     702.00      26.50
 53.17     693.00      26.32
 53.27     743.00      27.26
 53.37     745.00      27.29
 53.47     827.41      28.76
 53.57     943.00      30.71
 53.67    1041.00      32.26
 53.77    1154.00      33.97
 53.87    1275.00      35.71
 53.97    1273.44      35.69
 54.07    1326.00      36.41
 54.17    1238.00      35.19
 54.27    1227.00      35.03
 54.37    1060.00      32.56
 54.47     933.00      30.55
 54.57     867.00      29.44
 54.67     849.00      29.14
 54.77     740.00      27.20
 54.87     738.84      27.18
 54.97     763.05      27.62
 55.07     699.00      26.44
 55.17     682.01      26.12
 55.27     646.00      25.42
 55.37     690.00      26.27
 55.47     683.00      26.13
 55.57     687.00      26.21
 55.67     681.00      26.10
 55.77     683.00      26.13
 55.87     704.00      26.53
 55.97     740.00      27.20
 56.07     689.00      26.25
 56.17     735.42      27.12
 56.27     781.24      27.95
 56.37     836.75      28.93
 56.47     793.00      28.16
 56.57     900.98      30.02
 56.67    1014.00      31.84
 56.77    1204.00      34.70
 56.87    1390.39      37.29
 56.97    1776.88      42.15
 57.07    2144.91      46.31
 57.17    2380.69      48.79
 57.27    2697.00      51.93
 57.37    2795.00      52.87
 57.47    2712.00      52.08
 57.57    2429.00      49.28
 57.67    2173.73      46.62
 57.77    1821.25      42.68
 57.87    1577.92      39.72
 57.97    1257.17      35.46
 58.07    1066.00      32.65
 58.17     990.00      31.46
 58.27     908.00      30.13
 58.37     864.00      29.39
 58.47     870.00      29.50
 58.57     781.37      27.95
 58.67     842.78      29.03
 58.77     859.00      29.31
 58.87     920.61      30.34
 58.97    1042.00      32.28
 59.07    1158.31      34.03
 59.17    1178.94      34.34
 59.27    1255.00      35.43
 59.37    1293.21      35.96
 59.47    1379.00      37.13
 59.57    1438.44      37.93
 59.67    1341.00      36.62
 59.77    1288.06      35.89
 59.87    1245.10      35.29
 59.97    1215.68      34.87
 60.07    1257.00      35.45
 60.17    1237.37      35.18
 60.27    1304.00      36.11
 60.37    1413.00      37.59
 60.47    1529.00      39.10
 60.57    1559.99      39.50
 60.67    1668.00      40.84
 60.77    1604.00      40.05
 60.87    1556.00      39.45
 60.97    1422.40      37.71
 61.07    1414.61      37.61
 61.17    1268.60      35.62
 61.27    1119.00      33.45
 61.37    1002.00      31.65
 61.47     907.00      30.12
 61.57     825.90      28.74
 61.67     879.40      29.65
 61.77     851.00      29.17
 61.87     899.00      29.98
 61.97     904.00      30.07
 62.07    1027.39      32.05
 62.17    1124.00      33.53
 62.27    1309.00      36.18
 62.37    1482.97      38.51
 62.47    1631.00      40.39
 62.57    1792.00      42.33
 62.67    1881.00      43.37
 62.77    1827.00      42.74
 62.87    1764.00      42.00
 62.97    1706.00      41.30
 63.07    1517.00      38.95
 63.17    1308.91      36.18
 63.27    1096.00      33.11
 63.37     965.00      31.06
 63.47     895.00      29.92
 63.57     844.00      29.05
 63.67     811.00      28.48
 63.77     818.72      28.61
 63.87     796.13      28.22
 63.97     762.00      27.60
 64.07     721.10      26.85
 64.17     814.20      28.53
 64.27     778.00      27.89
 64.37     800.00      28.28
 64.47     800.58      28.29
 64.57     932.00      30.53
 64.67    1036.00      32.19
 64.77    1147.83      33.88
 64.87    1227.00      35.03
 64.97    1328.00      36.44
 65.07    1506.99      38.82
 65.17    1707.00      41.32
 65.27    1668.00      40.84
 65.37    1750.00      41.83
 65.47    1584.41      39.80
 65.57    1548.83      39.36
 65.67    1513.00      38.90
 65.77    1201.42      34.66
 65.87    1169.19      34.19
 65.97     958.00      30.95
 66.07     963.25      31.04
 66.17     854.00      29.22
 66.27     754.00      27.46
 66.37     773.00      27.80
 66.47     838.66      28.96
 66.57     737.32      27.15
 66.67     719.00      26.81
 66.77     735.00      27.11
 66.87     690.00      26.27
 66.97     783.44      27.99
 67.07     738.00      27.17
 67.17     703.00      26.51
 67.27     695.00      26.36
 67.37     763.00      27.62
 67.47     780.00      27.93
 67.57     814.00      28.53
 67.67     854.00      29.22
 67.77     948.00      30.79
 67.87    1056.74      32.51
 67.97    1185.90      34.44
 68.07    1285.00      35.85
 68.17    1557.00      39.46
 68.27    1810.00      42.54
 68.37    2095.25      45.77
 68.47    2176.00      46.65
 68.57    2407.00      49.06
 68.67    2517.00      50.17
 68.77    2623.00      51.22
 68.87    2460.00      49.60
 68.97    2323.59      48.20
 69.07    2092.43      45.74
 69.17    1849.61      43.01
 69.27    1547.36      39.34
 69.37    1336.00      36.55
 69.47    1230.48      35.08
 69.57    1005.83      31.71
 69.67     994.00      31.53
 69.77     972.00      31.18
 69.87     823.00      28.69
 69.97     825.00      28.72
 70.07     818.00      28.60
 70.17     778.23      27.90
 70.27     691.15      26.29
 70.37     742.04      27.24
 70.47     746.00      27.31
 70.57     708.56      26.62
 70.67     732.00      27.06
 70.77     761.30      27.59
 70.87     782.00      27.96
 70.97     722.00      26.87
 71.07     682.00      26.12
 71.17     752.00      27.42
 71.27     731.07      27.04
 71.37     699.00      26.44
 71.47     817.05      28.58
 71.57     774.26      27.83
 71.67     846.08      29.09
 71.77     896.48      29.94
 71.87    1012.28      31.82
 71.97    1072.87      32.75
 72.07    1212.00      34.81
 72.17    1328.00      36.44
 72.27    1598.14      39.98
 72.37    1710.00      41.35
 72.47    1838.00      42.87
 72.57    1946.00      44.11
 72.67    1982.62      44.53
 72.77    2046.00      45.23
 72.87    2026.87      45.02
 72.97    1826.00      42.73
 73.07    1744.00      41.76
 73.17    1590.00      39.87
 73.27    1335.00      36.54
 73.37    1242.07      35.24
 73.47    1072.24      32.75
 73.57     934.66      30.57
 73.67     892.26      29.87
 73.77     831.00      28.83
 73.87     786.00      28.04
 73.97     801.00      28.30
 74.07     722.00      26.87
 74.17     720.00      26.83
 74.27     704.43      26.54
 74.37     695.00      26.36
 74.47     653.00      25.55
 74.57     640.93      25.32
 74.67     638.94      25.28
 74.77     698.00      26.42
 74.87     733.00      27.07
 74.97     703.00      26.51
 75.07     688.00      26.23
 75.17     740.00      27.20
 75.27     687.29      26.22
 75.37     659.85      25.69
 75.47     740.00      27.20
 75.57     680.14      26.08
 75.67     667.67      25.84
 75.77     780.00      27.93
 75.87     694.00      26.34
 75.97     658.92      25.67
 76.07     731.00      27.04
 76.17     754.95      27.48
 76.27     750.00      27.39
 76.37     706.00      26.57
 76.47     758.00      27.53
 76.57     761.00      27.59
 76.67     833.00      28.86
 76.77     881.00      29.68
 76.87     900.00      30.00
 76.97     995.99      31.56
 77.07    1066.00      32.65
 77.17    1055.00      32.48
 77.27    1108.35      33.29
 77.37    1097.40      33.13
 77.47    1079.00      32.85
 77.57    1058.00      32.53
 77.67    1018.00      31.91
 77.77     946.36      30.76
 77.87     867.00      29.44
 77.97     854.00      29.22
 78.07     743.00      27.26
 78.17     731.99      27.06
 78.27     731.72      27.05
 78.37     739.00      27.18
 78.47     647.00      25.44
 78.57     671.00      25.90
 78.67     639.60      25.29
 78.77     658.00      25.65
 78.87     688.00      26.23
 78.97     651.00      25.51
 79.07     667.95      25.84
 79.17     603.07      24.56
 79.27     694.27      26.35
 79.37     674.00      25.96
 79.47     642.00      25.34
 79.57     650.06      25.50
 79.67     663.78      25.76
 79.77     595.00      24.39
 79.87     613.00      24.76
 79.97     641.00      25.32
 80.07     675.00      25.98
 80.17     617.00      24.84
 80.27     642.00      25.34
 80.37     655.00      25.59
 80.47     716.76      26.77
 80.57     682.69      26.13
 80.67     769.00      27.73
 80.77     806.00      28.39
 80.87     839.00      28.97
 80.97     936.00      30.59
 81.07     965.00      31.06
 81.17    1093.00      33.06
 81.27    1144.00      33.82
 81.37    1279.00      35.76
 81.47    1211.24      34.80
 81.57    1357.56      36.85
 81.67    1465.09      38.28
 81.77    1562.00      39.52
 81.87    1665.00      40.80
 81.97    1584.00      39.80
 82.07    1566.00      39.57
 82.17    1517.00      38.95
 82.27    1310.70      36.20
 82.37    1317.83      36.30
 82.47    1234.00      35.13
 82.57    1135.00      33.69
 82.67    1104.00      33.23
 82.77     973.00      31.19
 82.87     996.95      31.57
 82.97     856.00      29.26
 83.07     818.00      28.60
 83.17     851.00      29.17
 83.27     745.00      27.29
 83.37     727.00      26.96
 83.47     705.00      26.55
 83.57     689.13      26.25
 83.67     696.00      26.38
 83.77     683.00      26.13
 83.87     659.11      25.67
 83.97     713.08      26.70
 84.07     648.00      25.46
 84.17     666.00      25.81
 84.27     658.00      25.65
 84.37     692.00      26.31
 84.47     688.00      26.23
 84.57     713.64      26.71
 84.67     739.34      27.19
 84.77     673.00      25.94
 84.87     687.01      26.21
 84.97     649.00      25.48
 85.07     652.00      25.53
 85.17     688.00      26.23
 85.27     659.00      25.67
 85.37     715.54      26.75
 85.47     674.14      25.96
 85.57     672.18      25.93
 85.67     619.93      24.90
 85.77     674.96      25.98
 85.87     624.00      24.98
 85.97     591.28      24.32
 86.07     647.00      25.44
 86.17     607.91      24.66
 86.27     624.00      24.98
 86.37     600.25      24.50
 86.47     672.00      25.92
 86.57     642.00      25.34
 86.67     645.00      25.40
 86.77     690.00      26.27
 86.87     695.35      26.37
 86.97     621.51      24.93
 87.07     615.00      24.80
 87.17     694.00      26.34
 87.27     681.00      26.10
 87.37     715.00      26.74
 87.47     673.00      25.94
 87.57     689.73      26.26
 87.67     738.00      27.17
 87.77     671.00      25.90
 87.87     723.00      26.89
 87.97     731.00      27.04
 88.07     742.00      27.24
 88.17     779.18      27.91
 88.27     736.23      27.13
 88.37     738.00      27.17
 88.47     744.56      27.29
 88.57     719.00      26.81
 88.67     739.10      27.19
 88.77     703.37      26.52
 88.87     763.82      27.64
 88.97     728.00      26.98
 89.07     684.00      26.15
 89.17     629.00      25.08
 89.27     703.00      26.51
 89.37     628.00      25.06
 89.47     660.00      25.69
 89.57     653.00      25.55
 89.67     704.00      26.53
 89.77     708.00      26.61
 89.87     684.00      26.15
 89.97     699.00      26.44
 90.07     725.22      26.93
 90.17     694.07      26.35
 90.27     706.33      26.58
 90.37     628.00      25.06
 90.47     708.00      26.61
 90.57     701.00      26.48
 90.67     701.00      26.48
 90.77     663.00      25.75
 90.87     676.12      26.00
 90.97     700.22      26.46
 91.07     634.00      25.18
 91.17     605.00      24.60
 91.27     640.00      25.30
 91.37     597.00      24.43
 91.47     618.00      24.86
 91.57     608.00      24.66
 91.67     623.00      24.96
 91.77     620.00      24.90
 91.87     592.00      24.33
 91.97     590.87      24.31
 92.07     646.27      25.42
 92.17     610.00      24.70
 92.27     623.00      24.96
 92.37     566.72      23.81
 92.47     622.00      24.94
 92.57     670.00      25.88
 92.67     645.00      25.40
 92.77     634.81      25.20
 92.87     641.00      25.32
 92.97     643.00      25.36
 93.07     667.35      25.83
 93.17     618.50      24.87
 93.27     695.00      26.36
 93.37     710.93      26.66
 93.47     699.13      26.44
 93.57     726.73      26.96
 93.67     752.05      27.42
 93.77     794.00      28.18
 93.87     778.01      27.89
 93.97     782.00      27.96
 94.07     805.00      28.37
 94.17     858.90      29.31
 94.27     820.47      28.64
 94.37     847.00      29.10
 94.47     919.48      30.32
 94.57     961.99      31.02
 94.67     927.00      30.45
 94.77     950.73      30.83
 94.87     931.00      30.51
 94.97     923.46      30.39
 95.07    1001.00      31.64
 95.17    1024.00      32.00
 95.27    1040.00      32.25
 95.37    1090.00      33.02
 95.47    1059.00      32.54
 95.57    1061.00      32.57
 95.67    1017.00      31.89
 95.77    1102.00      33.20
 95.87    1010.51      31.79
 95.97    1093.00      33.06
 96.07     985.00      31.38
 96.17     989.00      31.45
 96.27    1025.46      32.02
 96.37     993.00      31.51
 96.47     911.00      30.18
 96.57     816.09      28.57
 96.67     875.00      29.58
 96.77     814.33      28.54
 96.87     842.00      29.02
 96.97     869.00      29.48
 97.07     863.00      29.38
 97.17     834.96      28.90
 97.27     937.93      30.63
 97.37     930.00      30.50
 97.47     930.00      30.50
 97.57    1071.00      32.73
 97.67    1115.25      33.40
 97.77    1209.00      34.77
 97.87    1241.00      35.23
 97.97    1330.00      36.47
 98.07    1371.00      37.03
 98.17    1443.00      37.99
 98.27    1577.00      39.71
 98.37    1564.76      39.56
 98.47    1641.17      40.51
 98.57    1639.87      40.50
 98.67    1653.00      40.66
 98.77    1572.12      39.65
 98.87    1498.00      38.70
 98.97    1493.00      38.64
 99.07    1419.00      37.67
 99.17    1365.42      36.95
 99.27    1298.51      36.03
 99.37    1243.00      35.26
 99.47    1163.00      34.10
 99.57    1104.00      33.23
 99.67    1125.09      33.54
 99.77    1021.26      31.96
 99.87    1077.20      32.82
 99.97    1091.73      33.04
100.07    1073.49      32.76
100.17    1100.68      33.18
100.27    1087.00      32.97
100.37    1153.00      33.96
100.47    1235.61      35.15
100.57    1209.00      34.77
100.67    1356.00      36.82
100.77    1367.00      36.97
100.87    1432.80      37.85
100.97    1573.00      39.66
101.07    1738.39      41.69
101.17    1740.59      41.72
101.27    1839.00      42.88
101.37    1940.00      44.05
101.47    2005.47      44.78
101.57    1964.37      44.32
101.67    2075.03      45.55
101.77    2192.04      46.82
101.87    2188.00      46.78
101.97    2241.33      47.34
102.07    2062.35      45.41
102.17    2158.07      46.46
102.27    2086.00      45.67
102.37    2116.48      46.01
102.47    1889.00      43.46
102.57    1928.00      43.91
102.67    1778.70      42.17
102.77    1675.00      40.93
102.87    1588.00      39.85
102.97    1604.50      40.06
103.07    1552.47      39.40
103.17    1552.58      39.40
103.27    1413.00      37.59
103.37    1406.00      37.50
103.47    1403.00      37.46
103.57    1349.00      36.73
103.67    1256.00      35.44
103.77    1245.00      35.28
103.87    1201.00      34.66
103.97    1167.00      34.16
104.07    1131.33      33.64
104.17    1151.03      33.93
104.27    1065.08      32.64
104.37    1034.00      32.16
104.47     974.00      31.21
104.57     974.00      31.21
104.67     923.00      30.38
104.77     906.00      30.10
104.87     877.05      29.62
104.97     856.00      29.26
105.07     776.04      27.86
105.17     764.00      27.64
105.27     755.13      27.48
105.37     680.75      26.09
105.47     709.38      26.63
105.57     715.00      26.74
105.67     622.48      24.95
105.77     646.06      25.42
105.87     650.84      25.51
105.97     578.36      24.05
106.07     660.77      25.71
106.17     606.59      24.63
106.27     634.00      25.18
106.37     610.00      24.70
106.47     627.00      25.04
106.57     637.05      25.24
106.67     605.01      24.60
106.77     643.00      25.36
106.87     642.00      25.34
106.97     671.39      25.91
107.07     664.00      25.77
107.17     660.00      25.69
107.27     689.00      26.25
107.37     715.00      26.74
107.47     700.00      26.46
107.57     754.80      27.47
107.67     736.00      27.13
107.77     751.00      27.40
107.87     776.88      27.87
107.97     817.00      28.58
108.07     818.00      28.60
108.17     778.00      27.89
108.27     773.00      27.80
108.37     772.47      27.79
108.47     794.00      28.18
108.57     824.00      28.71
108.67     816.00      28.57
108.77     842.00      29.02
108.87     772.00      27.78
108.97     828.00      28.77
109.07     796.00      28.21
109.17     827.00      28.76
109.27     750.00      27.39
109.37     764.38      27.65
109.47     842.00      29.02
109.57     840.34      28.99
109.67     749.00      27.37
109.77     816.32      28.57
109.87     778.00      27.89
109.97     828.17      28.78
110.07     779.00      27.91
110.17     759.00      27.55
110.27     819.01      28.62
110.37     797.67      28.24
110.47     784.00      28.00
110.57     772.00      27.78
110.67     790.00      28.11
110.77     779.28      27.92
110.87     751.00      27.40
110.97     770.00      27.75
111.07     722.00      26.87
111.17     764.00      27.64
111.27     693.00      26.32
111.37     667.00      25.83
111.47     718.53      26.81
111.57     673.40      25.95
111.67     684.28      26.16
111.77     695.08      26.36
111.87     675.00      25.98
111.97     620.00      24.90
112.07     662.00      25.73
112.17     596.39      24.42
112.27     621.00      24.92
112.37     589.41      24.28
112.47     719.00      26.81
112.57     593.00      24.35
112.67     655.00      25.59
112.77     625.00      25.00
112.87     586.17      24.21
112.97     594.00      24.37
113.07     677.15      26.02
113.17     661.11      25.71
113.27     616.00      24.82
113.37     661.00      25.71
113.47     621.00      24.92
113.57     637.84      25.26
113.67     676.06      26.00
113.77     698.67      26.43
113.87     671.22      25.91
113.97     711.00      26.66
114.07     661.01      25.71
114.17     648.00      25.46
114.27     670.00      25.88
114.37     723.00      26.89
114.47     765.00      27.66
114.57     708.00      26.61
114.67     743.00      27.26
114.77     756.00      27.50
114.87     722.37      26.88
114.97     734.00      27.09
115.07     831.00      28.83
115.17     844.83      29.07
115.27     947.00      30.77
115.37     988.00      31.43
115.47    1018.89      31.92
115.57    1067.47      32.67
115.67    1215.97      34.87
115.77    1279.00      35.76
115.87    1510.69      38.87
115.97    1594.00      39.92
116.07    1891.00      43.49
116.17    2066.42      45.46
116.27    2373.00      48.71
116.37    2563.00      50.63
116.47    2697.48      51.94
116.57    3070.00      55.41
116.67    3534.00      59.45
116.77    3844.00      62.00
116.87    4209.00      64.88
116.97    4559.00      67.52
117.07    5072.60      71.22
117.17    5413.00      73.57
117.27    5716.00      75.60
117.37    6172.00      78.56
117.47    6270.00      79.18
117.57    6839.02      82.70
117.67    7181.00      84.74
117.77    7343.80      85.70
117.87    7514.92      86.69
117.97    7455.00      86.34
118.07    7599.00      87.17
118.17    7571.51      87.01
118.27    7399.00      86.02
118.37    7315.00      85.53
118.47    7006.93      83.71
118.57    6969.09      83.48
118.67    6597.00      81.22
118.77    6159.93      78.49
118.87    5724.00      75.66
118.97    5290.00      72.73
119.07    5066.00      71.18
119.17    4725.13      68.74
119.27    4326.00      65.77
119.37    3995.87      63.21
119.47    3672.00      60.60
119.57    3249.00      57.00
119.67    3058.06      55.30
119.77    2697.20      51.93
119.87    2389.22      48.88
119.97    2228.00      47.20
120.07    1997.00      44.69
120.17    1906.42      43.66
120.27    1710.00      41.35
120.37    1601.00      40.01
120.47    1461.00      38.22
120.57    1332.70      36.51
120.67    1212.70      34.82
120.77    1152.00      33.94
120.87    1009.21      31.77
120.97    1003.00      31.67
121.07     941.12      30.68
121.17     957.22      30.94
121.27     877.00      29.61
121.37     861.00      29.34
121.47     815.00      28.55
121.57     760.71      27.58
121.67     736.35      27.14
121.77     737.00      27.15
121.87     721.00      26.85
121.97     770.00      27.75
122.07     702.74      26.51
122.17     740.00      27.20
122.27     739.00      27.18
122.37     789.24      28.09
122.47     697.00      26.40
122.57     620.00      24.90
122.67     676.00      26.00
122.77     734.00      27.09
122.87     714.00      26.72
122.97     735.87      27.13
123.07     731.00      27.04
123.17     699.00      26.44
123.27     761.00      27.59
123.37     750.00      27.39
123.47     741.00      27.22
123.57     762.15      27.61
123.67     787.10      28.06
123.77     766.92      27.69
123.87     773.00      27.80
123.97     792.00      28.14
124.07     816.38      28.57
124.17     763.87      27.64
124.27     833.89      28.88
124.37     804.02      28.36
124.47     847.38      29.11
124.57     774.00      27.82
124.67     873.00      29.55
124.77     896.00      29.93
124.87     799.09      28.27
124.97     827.78      28.77
