  9.97     628.76      25.08
 10.07     668.00      25.85
 10.17     676.67      26.01
 10.27     670.00      25.88
 10.37     645.00      25.40
 10.47     684.00      26.15
 10.57     696.00      26.38
 10.67     644.28      25.38
 10.77     645.00      25.40
 10.87     619.88      24.90
 10.97     658.00      25.65
 11.07     627.00      25.04
 11.17     583.00      24.15
 11.27     692.00      26.31
 11.37     603.14      24.56
 11.47     671.65      25.92
 11.57     700.00      26.46
 11.67     650.00      25.50
 11.77     678.56      26.05
 11.87     731.00      27.04
 11.97     702.00      26.50
 12.07     780.00      27.93
 12.17     789.00      28.09
 12.27     809.15      28.45
 12.37     788.00      28.07
 12.47     722.00      26.87
 12.57     711.00      26.66
 12.67     632.93      25.16
 12.77     632.00      25.14
 12.87     662.00      25.73
 12.97     654.74      25.59
 13.07     653.50      25.56
 13.17     657.00      25.63
 13.27     625.87      25.02
 13.37     600.00      24.49
 13.47     592.79      24.35
 13.57     688.21      26.23
 13.67     614.00      24.78
 13.77     617.00      24.84
 13.87     599.00      24.47
 13.97     655.35      25.60
 14.07     682.55      26.13
 14.17     684.47      26.16
 14.27     598.00      24.45
 14.37     636.00      25.22
 14.47     652.00      25.53
 14.57     585.30      24.19
 14.67     621.08      24.92
 14.77     619.00      24.88
 14.87     598.57      24.47
 14.97     579.00      24.06
 15.07     623.00      24.96
 15.17     664.00      25.77
 15.27     602.00      24.54
 15.37     638.00      25.26
 15.47     627.00      25.04
 15.57     618.00      24.86
 15.67     629.30      25.09
 15.77     609.00      24.68
 15.87     607.00      24.64
 15.97     604.00      24.58
 16.07     652.00      25.53
 16.17     567.00      23.81
 16.27     623.23      24.96
 16.37     602.00      24.54
 16.47     669.00      25.87
 16.57     617.00      24.84
 16.67     586.88      24.23
 16.77     647.00      25.44
 16.87     631.00      25.12
 16.97     659.80      25.69
 17.07     618.00      24.86
 17.17     641.77      25.33
 17.27     619.42      24.89
 17.37     644.00      25.38
 17.47     622.00      24.94
 17.57     576.00      24.00
 17.67     590.41      24.30
 17.77     665.00      25.79
 17.87     622.00      24.94
 17.97     602.00      24.54
 18.07     635.57      25.21
 18.17     631.68      25.13
 18.27     582.62      24.14
 18.37     621.60      24.93
 18.47     632.50      25.15
 18.57     619.00      24.88
 18.67     623.00      24.96
 18.77     603.00      24.56
 18.87     565.00      23.77
 18.97     564.00      23.75
 19.07     658.00      25.65
 19.17     598.62      24.47
 19.27     581.98      24.12
 19.37     640.62      25.31
 19.47     573.00      23.94
 19.57     584.00      24.17
 19.67     604.00      24.58
 19.77     562.00      23.71
 19.87     561.00      23.69
 19.97     614.00      24.78
 20.07     570.52      23.89
 20.17     657.93      25.65
 20.27     557.00      23.60
 20.37     582.13      24.13
 20.47     571.07      23.90
 20.57     582.00      24.12
 20.67     568.78      23.85
 20.77     577.00      24.02
 20.87     612.00      24.74
 20.97     599.00      24.47
 21.07     583.00      24.15
 21.17     644.93      25.40
 21.27     580.00      24.08
 21.37     597.00      24.43
 21.47     622.00      24.94
 21.57     610.00      24.70
 21.67     591.00      24.31
 21.77     562.24      23.71
 21.87     575.26      23.98
 21.97     537.00      23.17
 22.07     604.00      24.58
 22.17     644.72      25.39
 22.27     574.09      23.96
 22.37     595.00      24.39
 22.47     603.68      24.57
 22.57     628.03      25.06
 22.67     613.00      24.76
 22.77     633.00      25.16
 22.87     583.00      24.15
 22.97     598.00      24.45
 23.07     613.00      24.76
 23.17     614.00      24.78
 23.27     556.43      23.59
 23.37     600.00      24.49
 23.47     583.00      24.15
 23.57     596.00      24.41
 23.67     603.00      24.56
 23.77     611.00      24.72
 23.87     583.00      24.15
 23.97     611.06      24.72
 24.07     623.82      24.98
 24.17     596.98      24.43
 24.27     600.00      24.49
 24.37     622.00      24.94
 24.47     642.81      25.35
 24.57     658.00      25.65
 24.67     673.78      25.96
 24.77     704.83      26.55
 24.87     674.00      25.96
 24.97     680.93      26.09
 25.07     713.00      26.70
 25.17     670.00      25.88
 25.27     664.59      25.78
 25.37     606.87      24.63
 25.47     589.28      24.28
 25.57     626.00      25.02
 25.67     625.00      25.00
 25.77     593.00      24.35
 25.87     693.00      26.32
 25.97     584.32      24.17
 26.07     568.00      23.83
 26.17     657.00      25.63
 26.27     656.00      25.61
 26.37     630.00      25.10
 26.47     650.00      25.50
 26.57     570.25      23.88
 26.67     564.58      23.76
 26.77     630.00      25.10
 26.87     659.53      25.68
 26.97     629.00      25.08
 27.07     688.00      26.23
 27.17     641.00      25.32
 27.27     694.00      26.34
 27.37     681.38      26.10
 27.47     713.00      26.70
 27.57     654.37      25.58
 27.67     688.78      26.24
 27.77     788.43      28.08
 27.87     856.71      29.27
 27.97    1161.36      34.08
 28.07    1389.00      37.27
 28.17    1902.00      43.61
 28.27    2649.78      51.48
 28.37    3036.00      55.10
 28.47    2901.35      53.86
 28.57    2584.00      50.83
 28.67    1985.00      44.55
 28.77    1729.40      41.59
 28.87    1723.38      41.51
 28.97    1877.00      43.32
 29.07    1917.00      43.78
 29.17    1884.61      43.41
 29.27    1630.00      40.37
 29.37    1313.00      36.24
 29.47    1056.00      32.50
 29.57     947.00      30.77
 29.67     810.00      28.46
 29.77     798.00      28.25
 29.87     738.00      27.17
 29.97     745.00      27.29
 30.07     747.00      27.33
 30.17     670.00      25.88
 30.27     713.00      26.70
 30.37     717.00      26.78
 30.47     660.24      25.70
 30.57     694.00      26.34
 30.67     666.00      25.81
 30.77     691.00      26.29
 30.87     731.00      27.04
 30.97     688.65      26.24
 31.07     703.52      26.52
 31.17     760.00      27.57
 31.27     709.00      26.63
 31.37     720.00      26.83
 31.47     638.00      25.26
 31.57     628.00      25.06
 31.67     606.83      24.63
 31.77     547.80      23.41
 31.87     613.00      24.76
 31.97     634.00      25.18
 32.07     619.00      24.88
 32.17     582.00      24.12
 32.27     621.00      24.92
 32.37     620.00      24.90
 32.47     596.73      24.43
 32.57     599.00      24.47
 32.67     613.00      24.76
 32.77     611.00      24.72
 32.87     612.37      24.75
 32.97     658.00      25.65
 33.07     628.77      25.08
 33.17     580.00      24.08
 33.27     631.00      25.12
 33.37     595.00      24.39
 33.47     563.71      23.74
 33.57     578.23      24.05
 33.67     616.25      24.82
 33.77     667.00      25.83
 33.87     756.90      27.51
 33.97     866.00      29.43
 34.07     942.34      30.70
 34.17    1104.11      33.23
 34.27    1075.00      32.79
 34.37    1028.00      32.06
 34.47     956.08      30.92
 34.57     780.17      27.93
 34.67     655.00      25.59
 34.77     636.00      25.22
 34.87     657.00      25.63
 34.97     580.25      24.09
 35.07     547.61      23.40
 35.17     638.11      25.26
 35.27     588.13      24.25
 35.37     616.91      24.84
 35.47     562.00      23.71
 35.57     542.00      23.28
 35.67     587.15      24.23
 35.77     524.00      22.89
 35.87     550.00      23.45
 35.97     610.70      24.71
 36.07     562.00      23.71
 36.17     530.00      23.02
 36.27     551.00      23.47
 36.37     557.00      23.60
 36.47     598.03      24.45
 36.57     577.40      24.03
 36.67     570.00      23.87
 36.77     550.00      23.45
 36.87     542.00      23.28
 36.97     521.00      22.83
 37.07     521.00      22.83
 37.17     550.00      23.45
 37.27     575.00      23.98
 37.37     597.07      24.44
 37.47     601.00      24.52
 37.57     584.00      24.17
 37.67     528.00      22.98
 37.77     600.71      24.51
 37.87     567.23      23.82
 37.97     628.00      25.06
 38.07     582.97      24.14
 38.17     579.16      24.07
 38.27     625.50      25.01
 38.37     607.64      24.65
 38.47     597.00      24.43
 38.57     569.00      23.85
 38.67     558.00      23.62
 38.77     564.37      23.76
 38.87     597.07      24.43
 38.97     544.00      23.32
 39.07     593.11      24.35
 39.17     526.00      22.93
 39.27     517.64      22.75
 39.37     575.88      24.00
 39.47     564.00      23.75
 39.57     509.39      22.57
 39.67     549.36      23.44
 39.77     577.00      24.02
 39.87     508.75      22.56
 39.97     591.55      24.32
 40.07     580.00      24.08
 40.17     531.69      23.06
 40.27     529.03      23.00
 40.37     559.47      23.65
 40.47     524.00      22.89
 40.57     537.00      23.17
 40.67     524.00      22.89
 40.77     510.11      22.59
 40.87     555.71      23.57
 40.97     526.00      22.93
 41.07     476.00      21.82
 41.17     526.00      22.93
 41.27     582.56      24.14
 41.37     543.00      23.30
 41.47     557.00      23.60
 41.57     587.16      24.23
 41.67     551.98      23.49
 41.77     527.12      22.96
 41.87     540.00      23.24
 41.97     552.00      23.49
 42.07     589.00      24.27
 42.17     515.00      22.69
 42.27     547.00      23.39
 42.37     556.00      23.58
 42.47     572.63      23.93
 42.57     566.00      23.79
 42.67     580.00      24.08
 42.77     589.00      24.27
 42.87     609.00      24.68
 42.97     571.00      23.90
 43.07     638.46      25.27
 43.17     614.00      24.78
 43.27     597.00      24.43
 43.37     634.24      25.18
 43.47     558.00      23.62
 43.57     573.00      23.94
 43.67     559.00      23.64
 43.77     540.00      23.24
 43.87     544.00      23.32
 43.97     556.00      23.58
 44.07     596.89      24.43
 44.17     527.00      22.96
 44.27     584.43      24.17
 44.37     544.00      23.32
 44.47     512.00      22.63
 44.57     575.00      23.98
 44.67     561.10      23.69
 44.77     559.00      23.64
 44.87     515.67      22.71
 44.97     548.00      23.41
 45.07     566.25      23.80
 45.17     579.78      24.08
 45.27     543.00      23.30
 45.37     542.00      23.28
 45.47     551.00      23.47
 45.57     523.40      22.88
 45.67     537.00      23.17
 45.77     559.00      23.64
 45.87     556.00      23.58
 45.97     582.00      24.12
 46.07     531.67      23.06
 46.17     522.11      22.85
 46.27     585.00      24.19
 46.37     574.00      23.96
 46.47     547.00      23.39
 46.57     536.00      23.15
 46.67     565.73      23.79
 46.77     582.95      24.14
 46.87     534.21      23.11
 46.97     601.00      24.52
 47.07     588.00      24.25
 47.17     547.00      23.39
 47.27     557.00      23.60
 47.37     526.49      22.95
 47.47     541.16      23.26
 47.57     522.00      22.85
 47.67     577.30      24.03
 47.77     573.00      23.94
 47.87     613.00      24.76
 47.97     684.00      26.15
 48.07     658.29      25.66
 48.17     635.00      25.20
 48.27     681.82      26.11
 48.37     649.00      25.48
 48.47     621.89      24.94
 48.57     647.34      25.44
 48.67     589.86      24.29
 48.77     607.00      24.64
 48.87     565.00      23.77
 48.97     622.20      24.94
 49.07     546.48      23.38
 49.17     610.45      24.71
 49.27     555.00      23.56
 49.37     628.00      25.06
 49.47     640.87      25.32
 49.57     621.96      24.94
 49.67     689.00      26.25
 49.77     779.00      27.91
 49.87     905.00      30.08
 49.97    1126.00      33.56
 50.07    1395.00      37.35
 50.17    1778.00      42.17
 50.27    2241.97      47.35
 50.37    2459.00      49.59
 50.47    2615.00      51.14
 50.57    2486.00      49.86
 50.67    2189.00      46.79
 50.77    1777.87      42.16
 50.87    1369.00      37.00
 50.97    1010.00      31.78
 51.07     981.81      31.33
 51.17     775.00      27.84
 51.27     753.00      27.44
 51.37     703.00      26.51
 51.47     685.60      26.18
 51.57     656.00      25.61
 51.67     655.00      25.59
 51.77     672.00      25.92
 51.87     654.00      25.57
 51.97     584.00      24.17
 52.07     645.00      25.40
 52.17     633.00      25.16
 52.27     626.65      25.03
 52.37     625.00      25.00
 52.47     656.72      25.63
 52.57     623.00      24.96
 52.67     581.04      24.10
 52.77     616.00      24.82
 52.87     625.95      25.02
 52.97     644.00      25.38
 53.07     635.94      25.22
 53.17     743.00      27.26
 53.27     780.00      27.93
 53.37     879.00      29.65
 53.47     970.00      31.14
 53.57    1033.65      32.15
 53.67    1202.00      34.67
 53.77    1181.75      34.38
 53.87    1175.00      34.28
 53.97    1156.00      34.00
 54.07    1062.00      32.59
 54.17    1016.00      31.87
 54.27     872.23      29.53
 54.37     802.00      28.32
 54.47     699.00      26.44
 54.57     671.00      25.90
 54.67     675.00      25.98
 54.77     694.00      26.34
 54.87     667.95      25.84
 54.97     680.00      26.08
 55.07     625.00      25.00
 55.17     565.60      23.78
 55.27     623.00      24.96
 55.37     609.00      24.68
 55.47     607.00      24.64
 55.57     633.00      25.16
 55.67     639.00      25.28
 55.77     668.76      25.86
 55.87     676.46      26.01
 55.97     672.69      25.94
 56.07     695.00      26.36
 56.17     673.00      25.94
 56.27     739.27      27.19
 56.37     806.00      28.39
 56.47     962.68      31.03
 56.57    1099.00      33.15
 56.67    1357.00      36.84
 56.77    1584.00      39.80
 56.87    1918.00      43.79
 56.97    2156.00      46.43
 57.07    2481.00      49.81
 57.17    2591.00      50.90
 57.27    2491.00      49.91
 57.37    2292.00      47.87
 57.47    1953.00      44.19
 57.57    1704.00      41.28
 57.67    1418.00      37.66
 57.77    1146.00      33.85
 57.87    1003.00      31.67
 57.97     855.31      29.25
 58.07     810.65      28.47
 58.17     795.00      28.20
 58.27     752.00      27.42
 58.37     793.29      28.17
 58.47     735.97      27.13
 58.57     856.00      29.26
 58.67     829.02      28.79
 58.77     914.00      30.23
 58.87    1074.00      32.77
 58.97    1142.18      33.80
 59.07    1190.63      34.51
 59.17    1167.00      34.16
 59.27    1245.00      35.28
 59.37    1329.00      36.46
 59.47    1285.00      35.85
 59.57    1202.29      34.67
 59.67    1170.28      34.21
 59.77    1177.00      34.31
 59.87    1134.00      33.67
 59.97    1143.50      33.82
 60.07    1206.00      34.73
 60.17    1292.00      35.94
 60.27    1423.00      37.72
 60.37    1525.00      39.05
 60.47    1611.00      40.14
 60.57    1629.00      40.36
 60.67    1542.00      39.27
 60.77    1462.00      38.24
 60.87    1349.00      36.73
 60.97    1131.00      33.63
 61.07     996.00      31.56
 61.17     891.91      29.86
 61.27     811.00      28.48
 61.37     822.02      28.67
 61.47     754.20      27.46
 61.57     777.00      27.87
 61.67     809.00      28.44
 61.77     840.31      28.99
 61.87     872.00      29.53
 61.97     988.07      31.43
 62.07    1093.00      33.06
 62.17    1103.00      33.21
 62.27    1293.80      35.97
 62.37    1373.00      37.05
 62.47    1383.71      37.20
 62.57    1429.00      37.80
 62.67    1337.00      36.57
 62.77    1257.00      35.45
 62.87    1175.30      34.28
 62.97    1062.92      32.60
 63.07     980.84      31.32
 63.17     733.00      27.07
 63.27     713.00      26.70
 63.37     709.00      26.63
 63.47     666.69      25.82
 63.57     644.00      25.38
 63.67     700.00      26.46
 63.77     691.44      26.30
 63.87     600.12      24.50
 63.97     644.00      25.38
 64.07     706.09      26.57
 64.17     739.00      27.18
 64.27     704.23      26.54
 64.37     739.00      27.18
 64.47     884.06      29.73
 64.57     952.00      30.85
 64.67    1058.00      32.53
 64.77    1105.00      33.24
 64.87    1158.00      34.03
 64.97    1102.98      33.21
 65.07    1214.00      34.84
 65.17    1190.00      34.50
 65.27    1132.00      33.65
 65.37    1079.24      32.85
 65.47    1006.59      31.73
 65.57     879.00      29.65
 65.67     891.72      29.86
 65.77     795.00      28.20
 65.87     729.00      27.00
 65.97     766.49      27.69
 66.07     690.00      26.27
 66.17     677.00      26.02
 66.27     671.00      25.90
 66.37     645.00      25.40
 66.47     664.00      25.77
 66.57     610.00      24.70
 66.67     627.38      25.05
 66.77     633.00      25.16
 66.87     661.47      25.72
 66.97     661.00      25.71
 67.07     687.01      26.21
 67.17     623.88      24.98
 67.27     695.70      26.38
 67.37     720.00      26.83
 67.47     755.36      27.48
 67.57     857.00      29.27
 67.67     923.00      30.38
 67.77    1067.00      32.66
 67.87    1259.53      35.49
 67.97    1501.86      38.75
 68.07    1757.74      41.93
 68.17    1973.00      44.42
 68.27    2125.28      46.10
 68.37    2289.22      47.85
 68.47    2422.00      49.21
 68.57    2398.00      48.97
 68.67    2215.00      47.06
 68.77    2096.00      45.78
 68.87    1735.00      41.65
 68.97    1577.00      39.71
 69.07    1337.00      36.57
 69.17    1085.00      32.94
 69.27     996.41      31.57
 69.37     945.09      30.74
 69.47     871.00      29.51
 69.57     805.25      28.38
 69.67     660.00      25.69
 69.77     661.00      25.71
 69.87     675.00      25.98
 69.97     671.00      25.90
 70.07     659.00      25.67
 70.17     643.00      25.36
 70.27     624.88      25.00
 70.37     609.46      24.69
 70.47     644.00      25.38
 70.57     654.00      25.57
 70.67     609.19      24.68
 70.77     626.00      25.02
 70.87     654.00      25.57
 70.97     657.00      25.63
 71.07     682.00      26.12
 71.17     715.00      26.74
 71.27     680.00      26.08
 71.37     749.00      27.37
 71.47     747.39      27.34
 71.57     854.73      29.24
 71.67     974.61      31.22
 71.77    1122.00      33.50
 71.87    1208.00      34.76
 71.97    1368.00      36.99
 72.07    1509.00      38.85
 72.17    1692.00      41.13
 72.27    1813.00      42.58
 72.37    1859.00      43.12
 72.47    1857.00      43.09
 72.57    1812.83      42.58
 72.67    1756.00      41.90
 72.77    1578.20      39.73
 72.87    1415.72      37.63
 72.97    1257.00      35.45
 73.07    1209.00      34.77
 73.17     996.00      31.56
 73.27     873.00      29.55
 73.37     867.03      29.45
 73.47     808.82      28.44
 73.57     711.00      26.66
 73.67     702.00      26.50
 73.77     708.00      26.61
 73.87     684.68      26.17
 73.97     647.00      25.44
 74.07     635.02      25.20
 74.17     589.82      24.29
 74.27     592.47      24.34
 74.37     598.17      24.46
 74.47     611.00      24.72
 74.57     574.85      23.98
 74.67     650.00      25.50
 74.77     640.00      25.30
 74.87     680.00      26.08
 74.97     671.00      25.90
 75.07     648.00      25.46
 75.17     655.00      25.59
 75.27     666.00      25.81
 75.37     645.00      25.40
 75.47     661.00      25.71
 75.57     688.00      26.23
 75.67     555.35      23.57
 75.77     633.00      25.16
 75.87     620.00      24.90
 75.97     622.00      24.94
 76.07     625.76      25.02
 76.17     593.57      24.36
 76.27     677.00      26.02
 76.37     706.00      26.57
 76.47     726.00      26.94
 76.57     744.02      27.28
 76.67     766.00      27.68
 76.77     786.00      28.04
 76.87     790.00      28.11
 76.97     799.00      28.27
 77.07     836.13      28.92
 77.17     814.00      28.53
 77.27     747.74      27.34
 77.37     790.00      28.11
 77.47     650.00      25.50
 77.57     643.64      25.37
 77.67     648.10      25.46
 77.77     646.00      25.42
 77.87     574.00      23.96
 77.97     617.14      24.84
 78.07     640.64      25.31
 78.17     553.00      23.52
 78.27     584.20      24.17
 78.37     588.00      24.25
 78.47     553.00      23.52
 78.57     606.63      24.63
 78.67     558.00      23.62
 78.77     561.00      23.69
 78.87     603.70      24.57
 78.97     550.28      23.46
 79.07     566.00      23.79
 79.17     518.00      22.76
 79.27     618.00      24.86
 79.37     571.45      23.91
 79.47     580.62      24.10
 79.57     508.00      22.54
 79.67     557.00      23.60
 79.77     548.00      23.41
 79.87     527.99      22.98
 79.97     534.07      23.11
 80.07     564.00      23.75
 80.17     603.00      24.56
 80.27     563.00      23.73
 80.37     599.00      24.47
 80.47     621.00      24.92
 80.57     637.14      25.24
 80.67     675.76      26.00
 80.77     681.00      26.10
 80.87     737.00      27.15
 80.97     777.00      27.87
 81.07     794.77      28.19
 81.17     836.00      28.91
 81.27     859.95      29.32
 81.37     980.00      31.30
 81.47     897.58      29.96
 81.57     942.00      30.69
 81.67     964.00      31.05
 81.77     919.36      30.32
 81.87     984.00      31.37
 81.97     898.00      29.97
 82.07     863.41      29.38
 82.17     830.62      28.82
 82.27     877.85      29.63
 82.37     793.00      28.16
 82.47     790.00      28.11
 82.57     733.00      27.07
 82.67     710.26      26.65
 82.77     695.00      26.36
 82.87     722.41      26.88
 82.97     614.80      24.80
 83.07     636.00      25.22
 83.17     535.00      23.13
 83.27     602.00      24.54
 83.37     584.00      24.17
 83.47     596.00      24.41
 83.57     585.00      24.19
 83.67     594.00      24.37
 83.77     554.00      23.54
 83.87     597.00      24.43
 83.97     573.28      23.94
 84.07     625.37      25.01
 84.17     597.00      24.43
 84.27     613.70      24.77
 84.37     643.00      25.36
 84.47     663.93      25.77
 84.57     563.80      23.74
 84.67     626.00      25.02
 84.77     602.00      24.54
 84.87     566.77      23.81
 84.97     589.21      24.27
 85.07     550.00      23.45
 85.17     570.00      23.87
 85.27     589.00      24.27
 85.37     523.00      22.87
 85.47     578.69      24.06
 85.57     574.58      23.97
 85.67     576.00      24.00
 85.77     557.00      23.60
 85.87     551.33      23.48
 85.97     547.00      23.39
 86.07     549.00      23.43
 86.17     571.19      23.90
 86.27     579.00      24.06
 86.37     599.00      24.47
 86.47     623.00      24.96
 86.57     588.74      24.26
 86.67     599.05      24.48
 86.77     582.00      24.12
 86.87     549.00      23.43
 86.97     569.00      23.85
 87.07     635.00      25.20
 87.17     614.00      24.78
 87.27     621.00      24.92
 87.37     616.53      24.83
 87.47     664.00      25.77
 87.57     644.00      25.38
 87.67     706.00      26.57
 87.77     632.31      25.15
 87.87     700.00      26.46
 87.97     650.00      25.50
 88.07     609.86      24.70
 88.17     687.00      26.21
 88.27     656.00      25.61
 88.37     680.00      26.08
 88.47     593.58      24.36
 88.57     640.79      25.31
 88.67     632.00      25.14
 88.77     584.00      24.17
 88.87     567.00      23.81
 88.97     610.00      24.70
 89.07     581.62      24.12
 89.17     655.00      25.59
 89.27     620.00      24.90
 89.37     609.00      24.68
 89.47     657.08      25.63
 89.57     630.00      25.10
 89.67     610.00      24.70
 89.77     609.59      24.69
 89.87     575.88      24.00
 89.97     583.00      24.15
 90.07     643.75      25.37
 90.17     593.65      24.36
 90.27     597.00      24.43
 90.37     657.96      25.65
 90.47     586.00      24.21
 90.57     586.00      24.21
 90.67     604.00      24.58
 90.77     553.00      23.52
 90.87     613.68      24.77
 90.97     525.84      22.93
 91.07     571.87      23.91
 91.17     491.00      22.16
 91.27     573.48      23.95
 91.37     544.00      23.32
 91.47     473.00      21.75
 91.57     577.00      24.02
 91.67     551.03      23.47
 91.77     551.00      23.47
 91.87     579.97      24.08
 91.97     532.00      23.07
 92.07     529.00      23.00
 92.17     556.00      23.58
 92.27     567.00      23.81
 92.37     538.32      23.20
 92.47     567.46      23.82
 92.57     600.00      24.49
 92.67     564.00      23.75
 92.77     583.00      24.15
 92.87     617.32      24.85
 92.97     582.00      24.12
 93.07     630.00      25.10
 93.17     663.00      25.75
 93.27     703.00      26.51
 93.37     694.91      26.36
 93.47     718.00      26.80
 93.57     745.35      27.30
 93.67     788.46      28.08
 93.77     808.96      28.44
 93.87     782.00      27.96
 93.97     768.25      27.72
 94.07     814.00      28.53
 94.17     813.00      28.51
 94.27     848.00      29.12
 94.37     895.00      29.92
 94.47     832.79      28.86
 94.57     906.00      30.10
 94.67     868.00      29.46
 94.77     927.00      30.45
 94.87     922.76      30.38
 94.97     929.00      30.48
 95.07     918.00      30.30
 95.17     962.00      31.02
 95.27     919.65      30.33
 95.37     944.00      30.72
 95.47     933.00      30.55
 95.57     960.00      30.98
 95.67     958.00      30.95
 95.77     931.64      30.52
 95.87     864.00      29.39
 95.97     784.34      28.01
 96.07     797.00      28.23
 96.17     789.01      28.09
 96.27     793.00      28.16
 96.37     759.00      27.55
 96.47     782.12      27.97
 96.57     790.00      28.11
 96.67     717.00      26.78
 96.77     772.03      27.79
 96.87     819.00      28.62
 96.97     778.92      27.91
 97.07     868.06      29.46
 97.17     930.63      30.51
 97.27    1019.00      31.92
 97.37    1092.19      33.05
 97.47    1104.00      33.23
 97.57    1149.43      33.90
 97.67    1341.81      36.63
 97.77    1393.00      37.32
 97.87    1410.00      37.55
 97.97    1481.00      38.48
 98.07    1560.77      39.51
 98.17    1532.00      39.14
 98.27    1422.63      37.72
 98.37    1518.00      38.96
 98.47    1569.00      39.61
 98.57    1345.00      36.67
 98.67    1370.00      37.01
 98.77    1301.00      36.07
 98.87    1213.00      34.83
 98.97    1129.50      33.61
 99.07    1104.00      33.23
 99.17    1028.00      32.06
 99.27     998.00      31.59
 99.37     916.00      30.27
 99.47     900.17      30.00
 99.57     946.00      30.76
 99.67     883.01      29.72
 99.77     899.78      30.00
 99.87    1002.32      31.66
 99.97    1105.00      33.24
100.07    1100.00      33.17
100.17    1264.00      35.55
100.27    1284.93      35.85
100.37    1295.00      35.99
100.47    1380.19      37.15
100.57    1487.00      38.56
100.67    1587.00      39.84
100.77    1628.64      40.36
100.87    1860.00      43.13
100.97    1900.81      43.60
101.07    1865.23      43.19
101.17    1962.00      44.29
101.27    1982.00      44.52
101.37    2028.00      45.03
101.47    1969.00      44.37
101.57    1976.62      44.46
101.67    1940.00      44.05
101.77    1970.00      44.38
101.87    1954.00      44.20
101.97    1840.00      42.90
102.07    1631.00      40.39
102.17    1734.07      41.64
102.27    1601.00      40.01
102.37    1452.00      38.11
102.47    1437.00      37.91
102.57    1392.51      37.32
102.67    1347.00      36.70
102.77    1235.00      35.14
102.87    1267.00      35.59
102.97    1261.00      35.51
103.07    1131.00      33.63
103.17    1208.63      34.77
103.27    1142.00      33.79
103.37    1147.00      33.87
103.47    1032.00      32.12
103.57    1037.00      32.20
103.67    1032.00      32.12
103.77    1011.00      31.80
103.87     960.00      30.98
103.97     885.67      29.76
104.07     845.00      29.07
104.17     856.34      29.26
104.27     781.00      27.95
104.37     745.14      27.30
104.47     735.00      27.11
104.57     707.00      26.59
104.67     706.00      26.57
104.77     663.88      25.77
104.87     685.67      26.19
104.97     648.00      25.46
105.07     616.48      24.83
105.17     567.67      23.83
105.27     632.00      25.14
105.37     643.00      25.36
105.47     612.00      24.74
105.57     585.00      24.19
105.67     550.28      23.46
105.77     569.00      23.85
105.87     528.62      22.99
105.97     569.00      23.85
106.07     589.00      24.27
106.17     605.00      24.60
106.27     550.95      23.47
106.37     551.29      23.48
106.47     565.00      23.77
106.57     582.96      24.14
106.67     582.08      24.13
106.77     601.04      24.52
106.87     624.00      24.98
106.97     668.00      25.85
107.07     680.00      26.08
107.17     652.00      25.53
107.27     625.00      25.00
107.37     645.00      25.40
107.47     686.25      26.20
107.57     665.00      25.79
107.67     654.77      25.59
107.77     713.09      26.70
107.87     729.00      27.00
107.97     682.75      26.13
108.07     742.00      27.24
108.17     695.10      26.36
108.27     749.22      27.37
108.37     703.00      26.51
108.47     691.70      26.30
108.57     711.00      26.66
108.67     703.00      26.51
108.77     701.00      26.48
108.87     724.00      26.91
108.97     701.20      26.48
109.07     700.00      26.46
109.17     671.62      25.92
109.27     776.00      27.86
109.37     705.00      26.55
109.47     664.00      25.77
109.57     721.00      26.85
109.67     697.00      26.40
109.77     732.98      27.07
109.87     750.00      27.39
109.97     731.92      27.05
110.07     719.00      26.81
110.17     649.89      25.49
110.27     720.00      26.83
110.37     736.17      27.13
110.47     650.00      25.50
110.57     612.19      24.74
110.67     677.49      26.03
110.77     628.00      25.06
110.87     677.00      26.02
110.97     623.00      24.96
111.07     561.69      23.70
111.17     597.02      24.43
111.27     616.52      24.83
111.37     575.34      23.99
111.47     627.00      25.04
111.57     568.46      23.84
111.67     525.45      22.92
111.77     539.00      23.22
111.87     555.00      23.56
111.97     576.00      24.00
112.07     614.00      24.78
112.17     567.00      23.81
112.27     562.94      23.73
112.37     586.00      24.21
112.47     526.01      22.93
112.57     560.00      23.66
112.67     559.00      23.64
112.77     574.00      23.96
112.87     580.62      24.10
112.97     598.00      24.45
113.07     564.07      23.75
113.17     581.00      24.10
113.27     577.48      24.03
113.37     589.00      24.27
113.47     646.92      25.43
113.57     565.00      23.77
113.67     598.00      24.45
113.77     609.00      24.68
113.87     616.00      24.82
113.97     610.41      24.71
114.07     657.00      25.63
114.17     699.84      26.45
114.27     713.68      26.71
114.37     660.00      25.69
114.47     675.42      25.99
114.57     741.19      27.22
114.67     836.00      28.91
114.77     822.00      28.67
114.87     877.00      29.61
114.97     948.10      30.79
115.07    1056.00      32.50
115.17    1075.00      32.79
115.27    1216.52      34.88
115.37    1439.00      37.93
115.47    1497.17      38.69
115.57    1800.07      42.43
115.67    2035.00      45.11
115.77    2248.00      47.41
115.87    2513.00      50.13
115.97    2778.00      52.71
116.07    2944.95      54.27
116.17    3348.00      57.86
116.27    3731.00      61.08
116.37    4090.00      63.95
116.47    4465.00      66.82
116.57    4776.38      69.11
116.67    5249.47      72.45
116.77    5555.00      74.53
116.87    5803.17      76.18
116.97    6272.00      79.20
117.07    6617.00      81.34
117.17    6828.00      82.63
117.27    7045.00      83.93
117.37    7049.40      83.96
117.47    7375.45      85.88
117.57    7044.28      83.93
117.67    7145.00      84.53
117.77    6933.00      83.26
117.87    6699.00      81.85
117.97    6483.00      80.52
118.07    6089.57      78.04
118.17    5615.00      74.93
118.27    5537.00      74.41
118.37    5239.14      72.38
118.47    4698.48      68.55
118.57    4362.00      66.05
118.67    4091.00      63.96
118.77    3572.86      59.77
118.87    3268.09      57.17
118.97    3062.00      55.34
119.07    2684.00      51.81
119.17    2561.65      50.61
119.27    2192.49      46.82
119.37    1994.00      44.65
119.47    1770.13      42.07
119.57    1646.00      40.57
119.67    1502.26      38.76
119.77    1381.00      37.16
119.87    1272.00      35.67
119.97    1226.31      35.02
120.07    1059.00      32.54
120.17    1029.00      32.08
120.27     974.00      31.21
120.37     890.00      29.83
120.47     891.00      29.85
120.57     845.00      29.07
120.67     846.98      29.10
120.77     820.51      28.64
120.87     755.00      27.48
120.97     709.00      26.63
121.07     715.00      26.74
121.17     687.00      26.21
121.27     683.00      26.13
121.37     685.00      26.17
121.47     720.46      26.84
121.57     617.00      24.84
121.67     670.56      25.90
121.77     659.64      25.68
121.87     635.00      25.20
121.97     689.54      26.26
122.07     591.00      24.31
122.17     668.00      25.85
122.27     580.00      24.08
122.37     658.07      25.65
122.47     666.07      25.81
122.57     640.00      25.30
122.67     661.00      25.71
122.77     611.11      24.72
122.87     662.15      25.73
122.97     673.00      25.94
123.07     645.00      25.40
123.17     665.00      25.79
123.27     643.00      25.36
123.37     720.29      26.84
123.47     682.30      26.12
123.57     715.00      26.74
123.67     658.00      25.65
123.77     704.21      26.54
123.87     653.54      25.56
123.97     720.00      26.83
124.07     724.42      26.92
124.17     687.32      26.22
124.27     672.00      25.92
124.37     649.37      25.48
124.47     685.00      26.17
124.57     665.30      25.79
124.67     705.00      26.55
124.77     714.53      26.73
124.87     667.00      25.83
124.97     677.00      26.02
