  9.97     649.00      25.48
 10.07     647.00      25.44
 10.17     626.00      25.02
 10.27     558.00      23.62
 10.37     531.96      23.06
 10.47     577.00      24.02
 10.57     603.00      24.56
 10.67     604.00      24.58
 10.77     511.17      22.61
 10.87     590.00      24.29
 10.97     553.85      23.53
 11.07     594.79      24.39
 11.17     596.00      24.41
 11.27     576.29      24.01
 11.37     566.02      23.79
 11.47     518.94      22.78
 11.57     597.69      24.45
 11.67     556.11      23.58
 11.77     604.00      24.58
 11.87     633.00      25.16
 11.97     622.36      24.95
 12.07     675.00      25.98
 12.17     668.00      25.85
 12.27     684.00      26.15
 12.37     641.00      25.32
 12.47     596.00      24.41
 12.57     630.47      25.11
 12.67     605.00      24.60
 12.77     584.76      24.18
 12.87     578.46      24.05
 12.97     534.85      23.13
 13.07     570.00      23.87
 13.17     540.53      23.25
 13.27     604.24      24.58
 13.37     567.67      23.83
 13.47     595.00      24.39
 13.57     507.00      22.52
 13.67     524.00      22.89
 13.77     549.00      23.43
 13.87     523.58      22.88
 13.97     575.00      23.98
 14.07     542.00      23.28
 14.17     560.00      23.66
 14.27     578.00      24.04
 14.37     559.00      23.64
 14.47     514.00      22.67
 14.57     524.00      22.89
 14.67     553.00      23.52
 14.77     570.00      23.87
 14.87     521.95      22.85
 14.97     541.00      23.26
 15.07     562.00      23.71
 15.17     589.00      24.27
 15.27     536.00      23.15
 15.37     581.43      24.11
 15.47     583.62      24.16
 15.57     561.00      23.69
 15.67     519.00      22.78
 15.77     540.00      23.24
 15.87     554.88      23.56
 15.97     517.00      22.74
 16.07     539.00      23.22
 16.17     533.00      23.09
 16.27     599.35      24.48
 16.37     604.04      24.58
 16.47     592.00      24.33
 16.57     594.00      24.37
 16.67     552.53      23.51
 16.77     509.00      22.56
 16.87     563.66      23.74
 16.97     510.00      22.58
 17.07     544.09      23.33
 17.17     526.00      22.93
 17.27     500.00      22.36
 17.37     557.18      23.60
 17.47     600.40      24.50
 17.57     511.00      22.61
 17.67     548.00      23.41
 17.77     544.00      23.32
 17.87     561.07      23.69
 17.97     593.71      24.37
 18.07     601.14      24.52
 18.17     442.00      21.02
 18.27     533.00      23.09
 18.37     567.00      23.81
 18.47     590.00      24.29
 18.57     569.00      23.85
 18.67     545.77      23.36
 18.77     526.00      22.93
 18.87     521.13      22.83
 18.97     594.00      24.37
 19.07     540.00      23.24
 19.17     543.00      23.30
 19.27     529.75      23.02
 19.37     527.00      22.96
 19.47     540.00      23.24
 19.57     533.00      23.09
 19.67     536.00      23.15
 19.77     586.12      24.21
 19.87     532.00      23.07
 19.97     568.00      23.83
 20.07     568.00      23.83
 20.17     537.00      23.17
 20.27     558.00      23.62
 20.37     523.00      22.87
 20.47     566.00      23.79
 20.57     566.00      23.79
 20.67     549.21      23.44
 20.77     530.00      23.02
 20.87     533.00      23.09
 20.97     566.00      23.79
 21.07     514.64      22.69
 21.17     578.00      24.04
 21.27     548.14      23.41
 21.37     528.60      22.99
 21.47     539.00      23.22
 21.57     597.78      24.45
 21.67     544.58      23.34
 21.77     586.00      24.21
 21.87     562.00      23.71
 21.97     563.00      23.73
 22.07     596.00      24.41
 22.17     582.00      24.12
 22.27     535.00      23.13
 22.37     554.00      23.54
 22.47     522.00      22.85
 22.57     541.57      23.27
 22.67     550.00      23.45
 22.77     535.00      23.13
 22.87     545.00      23.35
 22.97     542.00      23.28
 23.07     575.62      23.99
 23.17     556.00      23.58
 23.27     550.00      23.45
 23.37     548.29      23.42
 23.47     535.00      23.13
 23.57     543.00      23.30
 23.67     543.00      23.30
 23.77     553.00      23.52
 23.87     509.91      22.58
 23.97     560.00      23.66
 24.07     536.00      23.15
 24.17     595.00      24.39
 24.27     572.00      23.92
 24.37     598.35      24.46
 24.47     580.70      24.10
 24.57     563.92      23.75
 24.67     606.00      24.62
 24.77     617.00      24.84
 24.87     661.00      25.71
 24.97     628.31      25.07
 25.07     648.07      25.46
 25.17     634.00      25.18
 25.27     578.00      24.04
 25.37     533.36      23.09
 25.47     584.69      24.18
 25.57     613.00      24.76
 25.67     538.00      23.19
 25.77     580.58      24.10
 25.87     508.64      22.55
 25.97     548.36      23.42
 26.07     587.91      24.25
 26.17     548.54      23.42
 26.27     519.96      22.80
 26.37     506.02      22.49
 26.47     555.00      23.56
 26.57     571.00      23.90
 26.67     505.57      22.48
 26.77     518.52      22.77
 26.87     617.00      24.84
 26.97     572.00      23.92
 27.07     601.00      24.52
 27.17     583.00      24.15
 27.27     557.00      23.60
 27.37     512.35      22.64
 27.47     524.75      22.91
 27.57     501.00      22.38
 27.67     579.00      24.06
 27.77     618.00      24.86
 27.87     570.67      23.89
 27.97     625.57      25.01
 28.07     678.00      26.04
 28.17     778.00      27.89
 28.27     914.00      30.23
 28.37     906.00      30.10
 28.47     841.00      29.00
 28.57     781.00      27.95
 28.67     662.00      25.73
 28.77     708.55      26.62
 28.87     787.00      28.05
 28.97     807.48      28.42
 29.07     863.90      29.39
 29.17     753.56      27.45
 29.27     701.23      26.48
 29.37     656.03      25.61
 29.47     627.00      25.04
 29.57     599.00      24.47
 29.67     533.38      23.10
 29.77     553.97      23.54
 29.87     509.61      22.57
 29.97     555.00      23.56
 30.07     560.00      23.66
 30.17     576.00      24.00
 30.27     570.27      23.88
 30.37     594.00      24.37
 30.47     551.91      23.49
 30.57     551.00      23.47
 30.67     587.00      24.23
 30.77     626.00      25.02
 30.87     611.05      24.72
 30.97     585.00      24.19
 31.07     654.00      25.57
 31.17     632.69      25.15
 31.27     581.00      24.10
 31.37     553.00      23.52
 31.47     567.00      23.81
 31.57     563.00      23.73
 31.67     571.00      23.90
 31.77     494.00      22.23
 31.87     535.07      23.13
 31.97     616.00      24.82
 32.07     517.00      22.74
 32.17     522.00      22.85
 32.27     520.00      22.80
 32.37     559.73      23.66
 32.47     552.64      23.51
 32.57     544.00      23.32
 32.67     539.00      23.22
 32.77     486.00      22.05
 32.87     620.00      24.90
 32.97     545.71      23.36
 33.07     585.00      24.19
 33.17     592.00      24.33
 33.27     562.00      23.71
 33.37     512.00      22.63
 33.47     593.00      24.35
 33.57     561.00      23.69
 33.67     606.00      24.62
 33.77     667.42      25.83
 33.87     795.00      28.20
 33.97     904.00      30.07
 34.07    1000.00      31.62
 34.17     999.00      31.61
 34.27     907.36      30.12
 34.37     881.37      29.69
 34.47     703.00      26.51
 34.57     677.85      26.04
 34.67     573.28      23.94
 34.77     560.00      23.66
 34.87     583.00      24.15
 34.97     571.00      23.90
 35.07     559.00      23.64
 35.17     539.00      23.22
 35.27     541.00      23.26
 35.37     503.60      22.44
 35.47     556.25      23.58
 35.57     517.07      22.74
 35.67     497.32      22.30
 35.77     475.01      21.79
 35.87     497.00      22.29
 35.97     511.00      22.61
 36.07     490.32      22.14
 36.17     527.00      22.96
 36.27     528.00      22.98
 36.37     524.00      22.89
 36.47     505.00      22.47
 36.57     502.92      22.43
 36.67     471.77      21.72
 36.77     532.92      23.08
 36.87     504.43      22.46
 36.97     471.01      21.70
 37.07     467.00      21.61
 37.17     469.00      21.66
 37.27     514.00      22.67
 37.37     504.89      22.47
 37.47     515.44      22.70
 37.57     490.31      22.14
 37.67     536.00      23.15
 37.77     503.26      22.43
 37.87     561.26      23.69
 37.97     476.00      21.82
 38.07     535.00      23.13
 38.17     480.90      21.93
 38.27     502.00      22.41
 38.37     502.00      22.41
 38.47     509.67      22.58
 38.57     516.00      22.72
 38.67     530.02      23.02
 38.77     474.00      21.77
 38.87     489.58      22.13
 38.97     481.00      21.93
 39.07     552.00      23.49
 39.17     469.00      21.66
 39.27     499.00      22.34
 39.37     469.44      21.67
 39.47     506.00      22.49
 39.57     512.00      22.63
 39.67     528.76      22.99
 39.77     484.00      22.00
 39.87     509.00      22.56
 39.97     496.00      22.27
 40.07     498.00      22.32
 40.17     472.77      21.74
 40.27     536.19      23.16
 40.37     490.00      22.14
 40.47     479.00      21.89
 40.57     526.00      22.93
 40.67     470.00      21.68
 40.77     526.76      22.95
 40.87     510.00      22.58
 40.97     466.39      21.60
 41.07     540.38      23.25
 41.17     458.96      21.42
 41.27     517.00      22.74
 41.37     490.00      22.14
 41.47     501.00      22.38
 41.57     462.00      21.49
 41.67     519.90      22.80
 41.77     518.66      22.77
 41.87     452.00      21.26
 41.97     472.00      21.73
 42.07     484.00      22.00
 42.17     506.00      22.49
 42.27     526.27      22.94
 42.37     513.00      22.65
 42.47     578.50      24.05
 42.57     560.00      23.66
 42.67     570.00      23.87
 42.77     564.00      23.75
 42.87     602.55      24.55
 42.97     601.75      24.53
 43.07     568.90      23.85
 43.17     495.00      22.25
 43.27     525.00      22.91
 43.37     508.00      22.54
 43.47     518.93      22.78
 43.57     537.62      23.19
 43.67     528.00      22.98
 43.77     539.00      23.22
 43.87     488.00      22.09
 43.97     459.00      21.42
 44.07     472.00      21.73
 44.17     512.00      22.63
 44.27     445.00      21.10
 44.37     466.00      21.59
 44.47     463.89      21.54
 44.57     472.00      21.73
 44.67     470.85      21.70
 44.77     495.00      22.25
 44.87     535.00      23.13
 44.97     480.00      21.91
 45.07     503.00      22.43
 45.17     462.38      21.50
 45.27     527.00      22.96
 45.37     476.24      21.82
 45.47     520.00      22.80
 45.57     528.00      22.98
 45.67     495.71      22.26
 45.77     457.07      21.38
 45.87     504.97      22.47
 45.97     486.00      22.05
 46.07     492.00      22.18
 46.17     536.28      23.16
 46.27     473.00      21.75
 46.37     512.00      22.63
 46.47     478.06      21.86
 46.57     491.00      22.16
 46.67     483.00      21.98
 46.77     474.00      21.77
 46.87     509.00      22.56
 46.97     489.00      22.11
 47.07     516.00      22.72
 47.17     539.94      23.24
 47.27     522.00      22.85
 47.37     481.00      21.93
 47.47     517.00      22.74
 47.57     494.24      22.23
 47.67     570.00      23.87
 47.77     567.00      23.81
 47.87     596.00      24.41
 47.97     541.00      23.26
 48.07     551.61      23.49
 48.17     567.09      23.81
 48.27     560.00      23.66
 48.37     558.91      23.64
 48.47     539.00      23.22
 48.57     524.57      22.90
 48.67     515.00      22.69
 48.77     516.00      22.72
 48.87     529.00      23.00
 48.97     541.00      23.26
 49.07     512.67      22.64
 49.17     504.00      22.45
 49.27     550.00      23.45
 49.37     570.19      23.88
 49.47     560.00      23.66
 49.57     676.00      26.00
 49.67     698.00      26.42
 49.77     839.00      28.97
 49.87    1055.00      32.48
 49.97    1390.00      37.28
 50.07    1772.00      42.10
 50.17    2075.00      45.55
 50.27    2317.00      48.14
 50.37    2353.00      48.51
 50.47    2154.00      46.41
 50.57    1840.32      42.90
 50.67    1398.20      37.39
 50.77    1128.00      33.59
 50.87     833.45      28.87
 50.97     766.00      27.68
 51.07     668.00      25.85
 51.17     630.00      25.10
 51.27     600.88      24.51
 51.37     665.00      25.79
 51.47     549.83      23.45
 51.57     596.00      24.41
 51.67     599.00      24.47
 51.77     544.17      23.33
 51.87     566.57      23.80
 51.97     571.00      23.90
 52.07     556.00      23.58
 52.17     543.00      23.30
 52.27     556.00      23.58
 52.37     529.00      23.00
 52.47     524.00      22.89
 52.57     549.00      23.43
 52.67     565.94      23.79
 52.77     568.00      23.83
 52.87     594.00      24.37
 52.97     623.00      24.96
 53.07     699.00      26.44
 53.17     816.00      28.57
 53.27     858.01      29.29
 53.37     941.57      30.69
 53.47    1073.00      32.76
 53.57    1092.00      33.05
 53.67    1174.95      34.28
 53.77    1084.00      32.92
 53.87    1047.00      32.36
 53.97     994.47      31.54
 54.07     852.00      29.19
 54.17     699.00      26.44
 54.27     666.80      25.82
 54.37     631.00      25.12
 54.47     593.00      24.35
 54.57     578.50      24.05
 54.67     536.00      23.15
 54.77     593.30      24.36
 54.87     534.00      23.11
 54.97     580.25      24.09
 55.07     520.22      22.81
 55.17     558.66      23.64
 55.27     589.79      24.29
 55.37     556.00      23.58
 55.47     577.00      24.02
 55.57     604.00      24.58
 55.67     608.00      24.66
 55.77     607.89      24.66
 55.87     601.38      24.52
 55.97     651.00      25.51
 56.07     686.57      26.20
 56.17     708.00      26.61
 56.27     856.16      29.26
 56.37     889.00      29.82
 56.47    1082.00      32.89
 56.57    1373.00      37.05
 56.67    1781.80      42.21
 56.77    2078.00      45.59
 56.87    2259.00      47.53
 56.97    2533.00      50.33
 57.07    2564.00      50.64
 57.17    2282.94      47.78
 57.27    2120.92      46.05
 57.37    1716.00      41.42
 57.47    1453.00      38.12
 57.57    1168.00      34.18
 57.67     933.00      30.55
 57.77     840.00      28.98
 57.87     804.09      28.36
 57.97     676.00      26.00
 58.07     734.00      27.09
 58.17     726.53      26.95
 58.27     791.00      28.12
 58.37     788.12      28.07
 58.47     798.26      28.25
 58.57     841.00      29.00
 58.67     997.15      31.58
 58.77    1056.44      32.50
 58.87    1081.49      32.89
 58.97    1204.00      34.70
 59.07    1222.00      34.96
 59.17    1244.00      35.27
 59.27    1298.15      36.03
 59.37    1221.21      34.95
 59.47    1317.00      36.29
 59.57    1213.90      34.84
 59.67    1234.00      35.13
 59.77    1102.16      33.20
 59.87    1179.00      34.34
 59.97    1293.00      35.96
 60.07    1356.37      36.83
 60.17    1473.00      38.38
 60.27    1501.00      38.74
 60.37    1533.00      39.15
 60.47    1500.47      38.74
 60.57    1344.00      36.66
 60.67    1304.00      36.11
 60.77    1130.17      33.62
 60.87     957.04      30.94
 60.97     854.00      29.22
 61.07     766.64      27.69
 61.17     683.00      26.13
 61.27     709.00      26.63
 61.37     640.00      25.30
 61.47     685.47      26.18
 61.57     718.41      26.80
 61.67     763.24      27.63
 61.77     787.00      28.05
 61.87     962.00      31.02
 61.97    1032.00      32.12
 62.07    1129.00      33.60
 62.17    1296.18      36.00
 62.27    1267.00      35.59
 62.37    1387.06      37.24
 62.47    1321.35      36.35
 62.57    1172.00      34.23
 62.67    1098.62      33.15
 62.77     945.31      30.75
 62.87     792.00      28.14
 62.97     756.00      27.50
 63.07     673.00      25.94
 63.17     614.00      24.78
 63.27     638.55      25.27
 63.37     567.00      23.81
 63.47     585.97      24.21
 63.57     571.00      23.90
 63.67     596.00      24.41
 63.77     620.80      24.92
 63.87     620.00      24.90
 63.97     613.00      24.76
 64.07     606.00      24.62
 64.17     717.00      26.78
 64.27     740.73      27.22
 64.37     772.66      27.80
 64.47     904.06      30.07
 64.57     939.00      30.64
 64.67     921.00      30.35
 64.77    1033.43      32.15
 64.87     957.00      30.94
 64.97     975.00      31.22
 65.07     931.00      30.51
 65.17     842.00      29.02
 65.27     861.88      29.36
 65.37     782.00      27.96
 65.47     743.00      27.26
 65.57     667.29      25.83
 65.67     627.87      25.06
 65.77     582.00      24.12
 65.87     562.22      23.71
 65.97     622.60      24.95
 66.07     587.00      24.23
 66.17     563.00      23.73
 66.27     593.70      24.37
 66.37     531.00      23.04
 66.47     560.00      23.66
 66.57     526.88      22.95
 66.67     548.92      23.43
 66.77     547.00      23.39
 66.87     584.00      24.17
 66.97     565.00      23.77
 67.07     591.03      24.31
 67.17     655.00      25.59
 67.27     678.00      26.04
 67.37     725.86      26.94
 67.47     890.00      29.83
 67.57     986.96      31.42
 67.67    1197.00      34.60
 67.77    1423.00      37.72
 67.87    1608.00      40.10
 67.97    1933.00      43.97
 68.07    2145.00      46.31
 68.17    2380.00      48.79
 68.27    2412.00      49.11
 68.37    2334.08      48.31
 68.47    2061.94      45.41
 68.57    1924.00      43.86
 68.67    1803.00      42.46
 68.77    1383.67      37.20
 68.87    1245.00      35.28
 68.97    1008.89      31.76
 69.07     863.00      29.38
 69.17     778.00      27.89
 69.27     698.02      26.42
 69.37     708.00      26.61
 69.47     668.00      25.85
 69.57     611.00      24.72
 69.67     603.00      24.56
 69.77     607.60      24.65
 69.87     562.00      23.71
 69.97     574.00      23.96
 70.07     613.00      24.76
 70.17     568.48      23.84
 70.27     581.63      24.12
 70.37     632.00      25.14
 70.47     580.89      24.10
 70.57     564.00      23.75
 70.67     569.26      23.86
 70.77     590.00      24.29
 70.87     570.00      23.87
 70.97     643.24      25.36
 71.07     644.29      25.38
 71.17     675.00      25.98
 71.27     670.00      25.88
 71.37     765.24      27.66
 71.47     966.32      31.09
 71.57     983.00      31.35
 71.67    1147.81      33.88
 71.77    1297.00      36.01
 71.87    1457.06      38.17
 71.97    1589.70      39.87
 72.07    1782.62      42.22
 72.17    1805.00      42.49
 72.27    1781.36      42.21
 72.37    1878.00      43.34
 72.47    1668.79      40.85
 72.57    1580.60      39.76
 72.67    1450.00      38.08
 72.77    1213.00      34.83
 72.87    1069.82      32.71
 72.97     958.00      30.95
 73.07     844.60      29.06
 73.17     744.00      27.28
 73.27     730.85      27.03
 73.37     715.00      26.74
 73.47     651.00      25.51
 73.57     638.00      25.26
 73.67     633.00      25.16
 73.77     585.18      24.19
 73.87     623.56      24.97
 73.97     604.00      24.58
 74.07     630.54      25.11
 74.17     569.00      23.85
 74.27     601.53      24.53
 74.37     593.18      24.36
 74.47     557.95      23.62
 74.57     574.00      23.96
 74.67     543.57      23.31
 74.77     673.00      25.94
 74.87     592.56      24.34
 74.97     537.41      23.18
 75.07     552.75      23.51
 75.17     540.74      23.25
 75.27     547.25      23.39
 75.37     539.37      23.22
 75.47     528.72      22.99
 75.57     513.58      22.66
 75.67     597.00      24.43
 75.77     546.00      23.37
 75.87     589.00      24.27
 75.97     588.00      24.25
 76.07     550.40      23.46
 76.17     613.00      24.76
 76.27     656.00      25.61
 76.37     597.00      24.43
 76.47     683.18      26.14
 76.57     702.00      26.50
 76.67     659.63      25.68
 76.77     703.75      26.53
 76.87     686.00      26.19
 76.97     698.00      26.42
 77.07     632.00      25.14
 77.17     632.00      25.14
 77.27     635.00      25.20
 77.37     553.00      23.52
 77.47     574.00      23.96
 77.57     547.00      23.39
 77.67     580.21      24.09
 77.77     536.00      23.15
 77.87     509.00      22.56
 77.97     494.00      22.23
 78.07     540.86      23.26
 78.17     508.00      22.54
 78.27     526.00      22.93
 78.37     500.00      22.36
 78.47     507.62      22.53
 78.57     498.90      22.34
 78.67     508.65      22.55
 78.77     502.37      22.41
 78.87     490.00      22.14
 78.97     522.05      22.85
 79.07     507.00      22.52
 79.17     480.85      21.93
 79.27     526.45      22.94
 79.37     507.00      22.52
 79.47     514.00      22.67
 79.57     510.00      22.58
 79.67     547.68      23.40
 79.77     527.10      22.96
 79.87     526.00      22.93
 79.97     476.37      21.83
 80.07     530.00      23.02
 80.17     529.00      23.00
 80.27     514.00      22.67
 80.37     540.51      23.25
 80.47     524.00      22.89
 80.57     612.00      24.74
 80.67     586.00      24.21
 80.77     572.00      23.92
 80.87     579.74      24.08
 80.97     630.47      25.11
 81.07     625.09      25.00
 81.17     677.00      26.02
 81.27     686.68      26.20
 81.37     741.28      27.23
 81.47     690.00      26.27
 81.57     777.00      27.87
 81.67     695.24      26.37
 81.77     736.00      27.13
 81.87     691.00      26.29
 81.97     696.16      26.38
 82.07     672.00      25.92
 82.17     626.89      25.04
 82.27     683.00      26.13
 82.37     634.00      25.18
 82.47     596.00      24.41
 82.57     623.78      24.98
 82.67     583.02      24.15
 82.77     597.00      24.43
 82.87     571.00      23.90
 82.97     537.00      23.17
 83.07     502.05      22.41
 83.17     523.00      22.87
 83.27     555.00      23.56
 83.37     558.84      23.64
 83.47     531.60      23.06
 83.57     501.00      22.38
 83.67     513.00      22.65
 83.77     530.00      23.02
 83.87     522.00      22.85
 83.97     570.00      23.87
 84.07     547.00      23.39
 84.17     532.00      23.07
 84.27     512.42      22.64
 84.37     516.00      22.72
 84.47     565.92      23.79
 84.57     504.99      22.47
 84.67     498.27      22.32
 84.77     527.00      22.96
 84.87     521.00      22.83
 84.97     542.91      23.30
 85.07     486.00      22.05
 85.17     543.64      23.32
 85.27     521.00      22.83
 85.37     541.66      23.27
 85.47     516.00      22.72
 85.57     499.00      22.34
 85.67     462.00      21.49
 85.77     495.00      22.25
 85.87     496.00      22.27
 85.97     471.98      21.73
 86.07     493.64      22.22
 86.17     470.00      21.68
 86.27     507.68      22.53
 86.37     509.00      22.56
 86.47     518.00      22.76
 86.57     499.78      22.36
 86.67     551.53      23.48
 86.77     554.58      23.55
 86.87     567.14      23.81
 86.97     514.50      22.68
 87.07     610.00      24.70
 87.17     597.15      24.44
 87.27     594.00      24.37
 87.37     605.00      24.60
 87.47     601.38      24.52
 87.57     609.00      24.68
 87.67     621.00      24.92
 87.77     621.63      24.93
 87.87     644.00      25.38
 87.97     650.00      25.50
 88.07     627.00      25.04
 88.17     570.00      23.87
 88.27     587.65      24.24
 88.37     513.00      22.65
 88.47     565.26      23.78
 88.57     573.95      23.96
 88.67     548.50      23.42
 88.77     520.00      22.80
 88.87     596.00      24.41
 88.97     554.00      23.54
 89.07     569.00      23.85
 89.17     560.00      23.66
 89.27     543.00      23.30
 89.37     583.00      24.15
 89.47     561.00      23.69
 89.57     651.00      25.51
 89.67     592.02      24.33
 89.77     615.64      24.81
 89.87     553.00      23.52
 89.97     567.00      23.81
 90.07     553.00      23.52
 90.17     532.00      23.07
 90.27     548.00      23.41
 90.37     533.25      23.09
 90.47     497.00      22.29
 90.57     510.00      22.58
 90.67     508.00      22.54
 90.77     529.62      23.01
 90.87     528.00      22.98
 90.97     545.90      23.36
 91.07     473.00      21.75
 91.17     508.71      22.55
 91.27     517.00      22.74
 91.37     519.01      22.78
 91.47     527.00      22.96
 91.57     526.00      22.93
 91.67     553.00      23.52
 91.77     490.00      22.14
 91.87     485.00      22.02
 91.97     555.27      23.56
 92.07     541.00      23.26
 92.17     535.00      23.13
 92.27     544.00      23.32
 92.37     551.00      23.47
 92.47     541.00      23.26
 92.57     596.00      24.41
 92.67     587.00      24.23
 92.77     617.36      24.85
 92.87     597.50      24.44
 92.97     615.00      24.80
 93.07     620.00      24.90
 93.17     733.00      27.07
 93.27     745.73      27.31
 93.37     750.96      27.40
 93.47     726.00      26.94
 93.57     792.00      28.14
 93.67     716.12      26.76
 93.77     771.00      27.77
 93.87     728.69      26.99
 93.97     819.00      28.62
 94.07     802.90      28.34
 94.17     857.03      29.28
 94.27     834.00      28.88
 94.37     864.00      29.39
 94.47     801.49      28.31
 94.57     863.00      29.38
 94.67     876.00      29.60
 94.77     841.59      29.01
 94.87     830.00      28.81
 94.97     846.00      29.09
 95.07     872.00      29.53
 95.17     888.00      29.80
 95.27     863.00      29.38
 95.37     861.00      29.34
 95.47     823.00      28.69
 95.57     814.00      28.53
 95.67     764.73      27.65
 95.77     741.00      27.22
 95.87     726.00      26.94
 95.97     678.00      26.04
 96.07     679.00      26.06
 96.17     691.00      26.29
 96.27     709.00      26.63
 96.37     670.00      25.88
 96.47     733.18      27.08
 96.57     765.97      27.68
 96.67     812.00      28.50
 96.77     805.72      28.39
 96.87     866.00      29.43
 96.97     987.00      31.42
 97.07    1071.00      32.73
 97.17    1133.89      33.67
 97.27    1200.00      34.64
 97.37    1202.00      34.67
 97.47    1242.67      35.25
 97.57    1360.00      36.88
 97.67    1391.38      37.30
 97.77    1363.08      36.92
 97.87    1405.00      37.48
 97.97    1389.00      37.27
 98.07    1347.00      36.70
 98.17    1270.76      35.65
 98.27    1220.65      34.94
 98.37    1255.00      35.43
 98.47    1088.43      32.99
 98.57    1078.00      32.83
 98.67     981.00      31.32
 98.77     982.88      31.35
 98.87     882.00      29.70
 98.97     895.00      29.92
 99.07     879.00      29.65
 99.17     878.89      29.65
 99.27     804.00      28.35
 99.37     904.85      30.08
 99.47     915.75      30.26
 99.57     950.00      30.82
 99.67    1016.00      31.87
 99.77    1036.00      32.19
 99.87    1124.00      33.53
 99.97    1254.34      35.42
100.07    1272.00      35.67
100.17    1427.00      37.78
100.27    1475.13      38.41
100.37    1651.70      40.64
100.47    1677.00      40.95
100.57    1699.00      41.22
100.67    1931.00      43.94
100.77    1905.00      43.65
100.87    1834.00      42.83
100.97    1969.00      44.37
101.07    1948.81      44.15
101.17    2003.94      44.77
101.27    1927.00      43.90
101.37    1964.81      44.33
101.47    1902.87      43.62
101.57    1809.12      42.53
101.67    1655.00      40.68
101.77    1616.00      40.20
101.87    1565.00      39.56
101.97    1447.00      38.04
102.07    1323.00      36.37
102.17    1326.00      36.41
102.27    1345.83      36.69
102.37    1221.00      34.94
102.47    1148.00      33.88
102.57    1196.00      34.58
102.67    1121.00      33.48
102.77    1156.00      34.00
102.87    1080.00      32.86
102.97    1096.00      33.11
103.07    1089.00      33.00
103.17    1005.31      31.71
103.27     980.00      31.30
103.37     911.00      30.18
103.47     951.00      30.84
103.57     869.00      29.48
103.67     830.00      28.81
103.77     786.00      28.04
103.87     790.83      28.12
103.97     725.00      26.93
104.07     675.00      25.98
104.17     629.00      25.08
104.27     614.23      24.78
104.37     596.00      24.41
104.47     574.00      23.96
104.57     599.00      24.47
104.67     586.00      24.21
104.77     570.00      23.87
104.87     508.00      22.54
104.97     536.00      23.15
105.07     537.00      23.17
105.17     489.94      22.13
105.27     484.93      22.02
105.37     526.81      22.95
105.47     510.00      22.58
105.57     553.99      23.54
105.67     499.88      22.36
105.77     539.62      23.23
105.87     581.00      24.10
105.97     564.00      23.75
106.07     559.00      23.64
106.17     563.03      23.73
106.27     564.00      23.75
106.37     554.00      23.54
106.47     538.81      23.21
106.57     593.00      24.35
106.67     584.00      24.17
106.77     622.00      24.94
106.87     608.00      24.66
106.97     611.00      24.72
107.07     624.97      25.00
107.17     620.00      24.90
107.27     612.61      24.75
107.37     631.00      25.12
107.47     661.30      25.72
107.57     724.78      26.92
107.67     697.00      26.40
107.77     622.00      24.94
107.87     712.00      26.68
107.97     717.32      26.78
108.07     669.00      25.87
108.17     654.00      25.57
108.27     702.57      26.51
108.37     677.00      26.02
108.47     692.88      26.32
108.57     633.69      25.17
108.67     678.29      26.04
108.77     699.82      26.45
108.87     676.00      26.00
108.97     653.00      25.55
109.07     649.00      25.48
109.17     678.00      26.04
109.27     676.00      26.00
109.37     668.00      25.85
109.47     713.14      26.70
109.57     675.32      25.99
109.67     649.40      25.48
109.77     666.25      25.81
109.87     626.94      25.04
109.97     638.00      25.26
110.07     582.53      24.14
110.17     655.00      25.59
110.27     632.00      25.14
110.37     605.66      24.61
110.47     585.00      24.19
110.57     542.89      23.30
110.67     581.63      24.12
110.77     561.93      23.71
110.87     589.38      24.28
110.97     530.00      23.02
111.07     550.00      23.45
111.17     547.00      23.39
111.27     532.00      23.07
111.37     553.14      23.52
111.47     542.00      23.28
111.57     530.00      23.02
111.67     524.58      22.90
111.77     556.59      23.59
111.87     499.00      22.34
111.97     553.00      23.52
112.07     567.16      23.82
112.17     571.25      23.90
112.27     513.00      22.65
112.37     576.00      24.00
112.47     537.00      23.17
112.57     579.00      24.06
112.67     546.00      23.37
112.77     579.16      24.07
112.87     541.00      23.26
112.97     593.00      24.35
113.07     588.00      24.25
113.17     616.00      24.82
113.27     572.01      23.92
113.37     649.00      25.48
113.47     608.20      24.66
113.57     621.00      24.92
113.67     628.00      25.06
113.77     622.00      24.94
113.87     677.00      26.02
113.97     697.00      26.40
114.07     714.00      26.72
114.17     818.00      28.60
114.27     750.00      27.39
114.37     813.13      28.52
114.47     881.00      29.68
114.57     930.00      30.50
114.67    1027.00      32.05
114.77    1183.00      34.39
114.87    1313.00      36.24
114.97    1502.00      38.76
115.07    1661.00      40.76
115.17    1823.00      42.70
115.27    2121.00      46.05
115.37    2312.00      48.08
115.47    2504.00      50.04
115.57    2866.00      53.54
115.67    3089.19      55.58
115.77    3467.00      58.88
115.87    3663.28      60.53
115.97    4141.40      64.35
116.07    4325.00      65.76
116.17    4816.00      69.40
116.27    5114.00      71.51
116.37    5634.00      75.06
116.47    5975.00      77.30
116.57    6139.00      78.35
116.67    6538.00      80.86
116.77    6564.00      81.02
116.87    6663.00      81.63
116.97    6795.00      82.43
117.07    6880.00      82.95
117.17    6716.00      81.95
117.27    6663.69      81.63
117.37    6409.68      80.06
117.47    6066.79      77.89
117.57    5971.00      77.27
117.67    5518.00      74.28
117.77    5203.00      72.13
117.87    4862.00      69.73
117.97    4676.00      68.38
118.07    4196.00      64.78
118.17    3929.00      62.68
118.27    3567.01      59.72
118.37    3219.00      56.74
118.47    2971.00      54.51
118.57    2622.39      51.21
118.67    2252.94      47.47
118.77    2015.48      44.89
118.87    1880.00      43.36
118.97    1650.49      40.63
119.07    1484.00      38.52
119.17    1441.90      37.97
119.27    1295.57      35.99
119.37    1186.00      34.44
119.47    1081.79      32.89
119.57     965.49      31.07
119.67     875.00      29.58
119.77     820.49      28.64
119.87     840.07      28.98
119.97     785.00      28.02
120.07     733.00      27.07
120.17     649.06      25.48
120.27     673.00      25.94
120.37     632.39      25.15
120.47     621.00      24.92
120.57     649.00      25.48
120.67     610.93      24.72
120.77     580.00      24.08
120.87     559.00      23.64
120.97     590.00      24.29
121.07     551.30      23.48
121.17     600.00      24.49
121.27     564.83      23.77
121.37     555.00      23.56
121.47     591.00      24.31
121.57     584.78      24.18
121.67     558.00      23.62
121.77     586.00      24.21
121.87     560.00      23.66
121.97     550.00      23.45
122.07     541.04      23.26
122.17     545.00      23.35
122.27     596.00      24.41
122.37     578.00      24.04
122.47     611.73      24.73
122.57     631.00      25.12
122.67     627.68      25.05
122.77     601.59      24.53
122.87     642.00      25.34
122.97     659.00      25.67
123.07     602.91      24.55
123.17     652.98      25.55
123.27     649.00      25.48
123.37     675.37      25.99
123.47     587.99      24.25
123.57     628.00      25.06
123.67     596.07      24.41
123.77     648.53      25.47
123.87     669.48      25.87
123.97     581.02      24.10
124.07     673.00      25.94
124.17     628.51      25.07
124.27     610.00      24.70
124.37     556.00      23.58
124.47     557.78      23.62
124.57     647.00      25.44
124.67     578.00      24.04
124.77     548.36      23.42
124.87     624.00      24.98
124.97     568.00      23.83
