  9.97     620.00      24.90
 10.07     590.00      24.29
 10.17     603.00      24.56
 10.27     586.00      24.21
 10.37     623.00      24.96
 10.47     607.00      24.64
 10.57     566.00      23.79
 10.67     544.50      23.33
 10.77     613.00      24.76
 10.87     584.00      24.17
 10.97     629.00      25.08
 11.07     543.20      23.31
 11.17     570.00      23.87
 11.27     594.48      24.38
 11.37     554.00      23.54
 11.47     621.38      24.93
 11.57     579.77      24.08
 11.67     626.35      25.03
 11.77     579.46      24.07
 11.87     658.00      25.65
 11.97     628.00      25.06
 12.07     695.00      26.36
 12.17     657.00      25.63
 12.27     679.00      26.06
 12.37     670.00      25.88
 12.47     575.00      23.98
 12.57     588.00      24.25
 12.67     568.00      23.83
 12.77     631.28      25.13
 12.87     536.00      23.15
 12.97     623.43      24.97
 13.07     599.19      24.48
 13.17     592.33      24.34
 13.27     540.00      23.24
 13.37     565.31      23.78
 13.47     585.46      24.20
 13.57     538.00      23.19
 13.67     620.85      24.92
 13.77     528.00      22.98
 13.87     562.93      23.73
 13.97     610.00      24.70
 14.07     548.00      23.41
 14.17     605.00      24.60
 14.27     514.00      22.67
 14.37     551.00      23.47
 14.47     577.00      24.02
 14.57     593.47      24.36
 14.67     555.00      23.56
 14.77     540.00      23.24
 14.87     567.14      23.81
 14.97     532.00      23.07
 15.07     533.76      23.10
 15.17     585.26      24.19
 15.27     604.00      24.58
 15.37     606.32      24.62
 15.47     528.00      22.98
 15.57     566.00      23.79
 15.67     572.00      23.92
 15.77     560.00      23.66
 15.87     529.08      23.00
 15.97     538.61      23.21
 16.07     548.00      23.41
 16.17     540.00      23.24
 16.27     577.00      24.02
 16.37     594.00      24.37
 16.47     568.21      23.84
 16.57     549.00      23.43
 16.67     595.00      24.39
 16.77     544.15      23.33
 16.87     599.00      24.47
 16.97     590.00      24.29
 17.07     577.00      24.02
 17.17     567.00      23.81
 17.27     524.34      22.90
 17.37     542.12      23.28
 17.47     562.91      23.73
 17.57     544.23      23.33
 17.67     521.00      22.83
 17.77     602.94      24.55
 17.87     567.00      23.81
 17.97     523.88      22.89
 18.07     573.00      23.94
 18.17     587.17      24.23
 18.27     527.28      22.96
 18.37     606.30      24.62
 18.47     525.61      22.93
 18.57     570.00      23.87
 18.67     563.00      23.73
 18.77     609.34      24.68
 18.87     589.29      24.28
 18.97     561.00      23.69
 19.07     581.34      24.11
 19.17     536.00      23.15
 19.27     556.00      23.58
 19.37     566.94      23.81
 19.47     520.00      22.80
 19.57     561.00      23.69
 19.67     539.00      23.22
 19.77     581.47      24.11
 19.87     576.46      24.01
 19.97     552.00      23.49
 20.07     564.00      23.75
 20.17     566.00      23.79
 20.27     566.71      23.81
 20.37     582.00      24.12
 20.47     519.00      22.78
 20.57     563.00      23.73
 20.67     555.00      23.56
 20.77     523.00      22.87
 20.87     554.00      23.54
 20.97     555.69      23.57
 21.07     551.67      23.49
 21.17     544.00      23.32
 21.27     601.88      24.53
 21.37     559.25      23.65
 21.47     578.00      24.04
 21.57     559.00      23.64
 21.67     527.00      22.96
 21.77     550.73      23.47
 21.87     562.00      23.71
 21.97     532.00      23.07
 22.07     555.68      23.57
 22.17     584.48      24.18
 22.27     583.28      24.15
 22.37     545.00      23.35
 22.47     554.00      23.54
 22.57     530.00      23.02
 22.67     507.91      22.54
 22.77     598.50      24.46
 22.87     531.83      23.06
 22.97     565.00      23.77
 23.07     577.00      24.02
 23.17     603.00      24.56
 23.27     575.00      23.98
 23.37     538.00      23.19
 23.47     578.00      24.04
 23.57     548.00      23.41
 23.67     553.00      23.52
 23.77     584.00      24.17
 23.87     563.00      23.73
 23.97     570.00      23.87
 24.07     524.53      22.90
 24.17     556.00      23.58
 24.27     550.00      23.45
 24.37     559.00      23.64
 24.47     605.00      24.60
 24.57     624.00      24.98
 24.67     602.00      24.54
 24.77     618.00      24.86
 24.87     614.00      24.78
 24.97     599.00      24.47
 25.07     597.00      24.43
 25.17     541.97      23.28
 25.27     594.00      24.37
 25.37     576.00      24.00
 25.47     521.00      22.83
 25.57     501.78      22.40
 25.67     551.07      23.47
 25.77     563.00      23.73
 25.87     578.00      24.04
 25.97     525.34      22.92
 26.07     540.14      23.24
 26.17     592.00      24.33
 26.27     572.00      23.92
 26.37     540.00      23.24
 26.47     544.00      23.32
 26.57     549.00      23.43
 26.67     584.00      24.17
 26.77     564.00      23.75
 26.87     516.30      22.72
 26.97     532.30      23.07
 27.07     549.54      23.44
 27.17     587.97      24.25
 27.27     560.00      23.66
 27.37     550.00      23.45
 27.47     590.00      24.29
 27.57     552.25      23.50
 27.67     531.35      23.05
 27.77     545.00      23.35
 27.87     641.71      25.33
 27.97     697.00      26.40
 28.07     786.00      28.04
 28.17     918.63      30.31
 28.27     951.32      30.84
 28.37     894.00      29.90
 28.47     772.86      27.80
 28.57     726.00      26.94
 28.67     721.43      26.86
 28.77     735.19      27.11
 28.87     836.00      28.91
 28.97     792.00      28.14
 29.07     772.00      27.78
 29.17     696.00      26.38
 29.27     694.74      26.36
 29.37     606.00      24.62
 29.47     561.00      23.69
 29.57     596.00      24.41
 29.67     637.00      25.24
 29.77     566.00      23.79
 29.87     613.00      24.76
 29.97     556.80      23.60
 30.07     535.70      23.15
 30.17     540.59      23.25
 30.27     548.86      23.43
 30.37     525.00      22.91
 30.47     565.00      23.77
 30.57     598.32      24.46
 30.67     580.36      24.09
 30.77     570.00      23.87
 30.87     636.44      25.23
 30.97     582.85      24.14
 31.07     603.00      24.56
 31.17     596.83      24.43
 31.27     576.00      24.00
 31.37     532.00      23.07
 31.47     552.65      23.51
 31.57     558.00      23.62
 31.67     503.81      22.45
 31.77     562.00      23.71
 31.87     501.82      22.40
 31.97     501.89      22.40
 32.07     498.00      22.32
 32.17     546.00      23.37
 32.27     505.45      22.48
 32.37     560.58      23.68
 32.47     584.00      24.17
 32.57     571.16      23.90
 32.67     592.00      24.33
 32.77     535.35      23.14
 32.87     526.00      22.93
 32.97     505.74      22.49
 33.07     563.00      23.73
 33.17     530.00      23.02
 33.27     548.00      23.41
 33.37     580.00      24.08
 33.47     585.00      24.19
 33.57     565.00      23.77
 33.67     661.00      25.71
 33.77     748.00      27.35
 33.87     844.92      29.07
 33.97    1037.00      32.20
 34.07    1066.00      32.65
 34.17    1059.16      32.54
 34.27     884.00      29.73
 34.37     746.00      27.31
 34.47     673.22      25.95
 34.57     561.16      23.69
 34.67     553.37      23.52
 34.77     511.15      22.61
 34.87     527.00      22.96
 34.97     495.40      22.26
 35.07     551.00      23.47
 35.17     520.89      22.82
 35.27     553.29      23.52
 35.37     485.00      22.02
 35.47     509.00      22.56
 35.57     536.46      23.16
 35.67     504.62      22.46
 35.77     510.86      22.60
 35.87     511.27      22.61
 35.97     520.76      22.82
 36.07     518.00      22.76
 36.17     543.00      23.30
 36.27     521.00      22.83
 36.37     542.00      23.28
 36.47     488.93      22.11
 36.57     489.95      22.13
 36.67     470.00      21.68
 36.77     516.00      22.72
 36.87     507.00      22.52
 36.97     494.00      22.23
 37.07     502.00      22.41
 37.17     520.00      22.80
 37.27     540.21      23.24
 37.37     559.98      23.66
 37.47     539.00      23.22
 37.57     535.00      23.13
 37.67     560.80      23.68
 37.77     517.00      22.74
 37.87     523.14      22.87
 37.97     541.00      23.26
 38.07     480.00      21.91
 38.17     529.00      23.00
 38.27     532.00      23.07
 38.37     486.88      22.07
 38.47     518.60      22.77
 38.57     464.10      21.54
 38.67     510.00      22.58
 38.77     492.07      22.18
 38.87     498.00      22.32
 38.97     519.00      22.78
 39.07     467.81      21.63
 39.17     514.13      22.67
 39.27     488.00      22.09
 39.37     513.45      22.66
 39.47     510.55      22.60
 39.57     515.00      22.69
 39.67     456.00      21.35
 39.77     532.41      23.07
 39.87     456.00      21.35
 39.97     466.46      21.60
 40.07     516.00      22.72
 40.17     507.00      22.52
 40.27     500.54      22.37
 40.37     486.30      22.05
 40.47     495.00      22.25
 40.57     463.00      21.52
 40.67     519.00      22.78
 40.77     531.00      23.04
 40.87     531.00      23.04
 40.97     461.00      21.47
 41.07     501.00      22.38
 41.17     527.85      22.98
 41.27     496.00      22.27
 41.37     472.00      21.73
 41.47     510.96      22.60
 41.57     518.00      22.76
 41.67     502.83      22.42
 41.77     498.00      22.32
 41.87     482.22      21.96
 41.97     502.00      22.41
 42.07     497.00      22.29
 42.17     474.00      21.77
 42.27     499.18      22.34
 42.37     500.00      22.36
 42.47     558.00      23.62
 42.57     578.00      24.04
 42.67     630.87      25.12
 42.77     596.00      24.41
 42.87     606.80      24.63
 42.97     554.00      23.54
 43.07     526.00      22.93
 43.17     510.00      22.58
 43.27     520.40      22.81
 43.37     496.00      22.27
 43.47     493.00      22.20
 43.57     553.00      23.52
 43.67     532.00      23.07
 43.77     491.49      22.17
 43.87     487.69      22.08
 43.97     470.00      21.68
 44.07     542.00      23.28
 44.17     501.00      22.38
 44.27     524.00      22.89
 44.37     510.00      22.58
 44.47     526.76      22.95
 44.57     514.00      22.67
 44.67     485.00      22.02
 44.77     471.05      21.70
 44.87     513.00      22.65
 44.97     498.21      22.32
 45.07     549.00      23.43
 45.17     462.20      21.50
 45.27     529.46      23.01
 45.37     500.94      22.38
 45.47     546.00      23.37
 45.57     543.00      23.30
 45.67     482.30      21.96
 45.77     498.78      22.33
 45.87     540.53      23.25
 45.97     516.00      22.72
 46.07     499.00      22.34
 46.17     499.00      22.34
 46.27     490.00      22.14
 46.37     482.00      21.95
 46.47     469.00      21.66
 46.57     527.00      22.96
 46.67     521.45      22.84
 46.77     494.00      22.23
 46.87     509.00      22.56
 46.97     483.00      21.98
 47.07     508.00      22.54
 47.17     542.03      23.28
 47.27     487.00      22.07
 47.37     554.00      23.54
 47.47     558.00      23.62
 47.57     556.00      23.58
 47.67     556.00      23.58
 47.77     611.00      24.72
 47.87     598.35      24.46
 47.97     628.00      25.06
 48.07     547.20      23.39
 48.17     586.29      24.21
 48.27     561.00      23.69
 48.37     563.18      23.73
 48.47     540.00      23.24
 48.57     562.00      23.71
 48.67     503.00      22.43
 48.77     494.00      22.23
 48.87     542.59      23.29
 48.97     528.00      22.98
 49.07     554.26      23.54
 49.17     620.99      24.92
 49.27     599.00      24.47
 49.37     660.00      25.69
 49.47     652.61      25.55
 49.57     803.00      28.34
 49.67     919.00      30.32
 49.77    1123.47      33.52
 49.87    1422.00      37.71
 49.97    1774.54      42.13
 50.07    2215.00      47.06
 50.17    2556.00      50.56
 50.27    2523.00      50.23
 50.37    2355.82      48.54
 50.47    1833.86      42.82
 50.57    1515.96      38.94
 50.67     986.00      31.40
 50.77     819.00      28.62
 50.87     676.00      26.00
 50.97     610.00      24.70
 51.07     627.00      25.04
 51.17     598.06      24.46
 51.27     630.64      25.11
 51.37     531.00      23.04
 51.47     613.00      24.76
 51.57     551.00      23.47
 51.67     562.00      23.71
 51.77     552.00      23.49
 51.87     535.00      23.13
 51.97     567.00      23.81
 52.07     562.00      23.71
 52.17     594.00      24.37
 52.27     552.00      23.49
 52.37     570.57      23.89
 52.47     552.81      23.51
 52.57     575.00      23.98
 52.67     569.00      23.85
 52.77     589.16      24.27
 52.87     631.00      25.12
 52.97     751.00      27.40
 53.07     749.00      27.37
 53.17     841.58      29.01
 53.27     997.84      31.59
 53.37    1183.00      34.39
 53.47    1151.00      33.93
 53.57    1184.00      34.41
 53.67    1142.09      33.79
 53.77     979.24      31.29
 53.87     839.00      28.97
 53.97     732.00      27.06
 54.07     676.00      26.00
 54.17     608.66      24.67
 54.27     617.00      24.84
 54.37     537.00      23.17
 54.47     587.00      24.23
 54.57     517.46      22.75
 54.67     603.00      24.56
 54.77     534.00      23.11
 54.87     604.00      24.58
 54.97     514.00      22.67
 55.07     583.00      24.15
 55.17     570.00      23.87
 55.27     587.00      24.23
 55.37     552.00      23.49
 55.47     581.16      24.11
 55.57     598.24      24.46
 55.67     606.00      24.62
 55.77     604.27      24.58
 55.87     612.22      24.74
 55.97     634.00      25.18
 56.07     720.07      26.83
 56.17     744.09      27.28
 56.27     876.00      29.60
 56.37    1108.00      33.29
 56.47    1380.00      37.15
 56.57    1759.00      41.94
 56.67    2140.00      46.26
 56.77    2440.00      49.40
 56.87    2621.57      51.20
 56.97    2531.00      50.31
 57.07    2401.15      49.00
 57.17    2026.00      45.01
 57.27    1701.00      41.24
 57.37    1361.00      36.89
 57.47     966.05      31.08
 57.57     910.00      30.17
 57.67     743.00      27.26
 57.77     635.00      25.20
 57.87     639.04      25.28
 57.97     693.00      26.32
 58.07     705.00      26.55
 58.17     716.29      26.76
 58.27     774.53      27.83
 58.37     917.71      30.29
 58.47     968.00      31.11
 58.57    1097.72      33.13
 58.67    1288.00      35.89
 58.77    1395.05      37.35
 58.87    1521.00      39.00
 58.97    1577.38      39.72
 59.07    1626.00      40.32
 59.17    1477.00      38.43
 59.27    1493.00      38.64
 59.37    1380.32      37.15
 59.47    1288.00      35.89
 59.57    1100.00      33.17
 59.67    1147.83      33.88
 59.77    1221.00      34.94
 59.87    1213.00      34.83
 59.97    1409.00      37.54
 60.07    1472.00      38.37
 60.17    1636.00      40.45
 60.27    1562.00      39.52
 60.37    1530.00      39.12
 60.47    1443.00      37.99
 60.57    1315.00      36.26
 60.67    1042.00      32.28
 60.77     917.72      30.29
 60.87     827.30      28.76
 60.97     685.00      26.17
 61.07     654.01      25.57
 61.17     626.00      25.02
 61.27     605.00      24.60
 61.37     639.07      25.28
 61.47     713.15      26.70
 61.57     773.00      27.80
 61.67     866.00      29.43
 61.77     943.00      30.71
 61.87    1171.11      34.22
 61.97    1234.00      35.13
 62.07    1361.00      36.89
 62.17    1390.00      37.28
 62.27    1331.00      36.48
 62.37    1335.21      36.54
 62.47    1142.00      33.79
 62.57    1069.04      32.70
 62.67     913.00      30.22
 62.77     828.13      28.78
 62.87     707.87      26.61
 62.97     616.00      24.82
 63.07     561.00      23.69
 63.17     571.00      23.90
 63.27     528.63      22.99
 63.37     569.00      23.85
 63.47     565.00      23.77
 63.57     539.18      23.22
 63.67     570.00      23.87
 63.77     558.79      23.64
 63.87     560.41      23.67
 63.97     602.61      24.55
 64.07     697.05      26.40
 64.17     690.00      26.27
 64.27     832.50      28.85
 64.37     918.38      30.30
 64.47     974.62      31.22
 64.57    1011.00      31.80
 64.67    1076.00      32.80
 64.77     966.37      31.09
 64.87    1008.82      31.76
 64.97     915.00      30.25
 65.07     793.74      28.17
 65.17     776.46      27.87
 65.27     731.00      27.04
 65.37     715.26      26.74
 65.47     654.00      25.57
 65.57     587.00      24.23
 65.67     549.00      23.43
 65.77     569.00      23.85
 65.87     613.00      24.76
 65.97     580.08      24.08
 66.07     586.00      24.21
 66.17     589.95      24.29
 66.27     575.00      23.98
 66.37     511.50      22.62
 66.47     577.15      24.02
 66.57     598.00      24.45
 66.67     586.00      24.21
 66.77     560.77      23.68
 66.87     634.00      25.18
 66.97     628.76      25.08
 67.07     630.00      25.10
 67.17     660.35      25.70
 67.27     780.49      27.94
 67.37     879.53      29.66
 67.47    1049.00      32.39
 67.57    1242.00      35.24
 67.67    1517.31      38.95
 67.77    1779.56      42.18
 67.87    2031.00      45.07
 67.97    2331.00      48.28
 68.07    2342.99      48.40
 68.17    2365.35      48.63
 68.27    2384.09      48.83
 68.37    2009.54      44.83
 68.47    1862.00      43.15
 68.57    1479.00      38.46
 68.67    1295.00      35.99
 68.77    1033.00      32.14
 68.87     882.00      29.70
 68.97     740.00      27.20
 69.07     640.81      25.31
 69.17     634.00      25.18
 69.27     685.00      26.17
 69.37     644.00      25.38
 69.47     602.00      24.54
 69.57     609.00      24.68
 69.67     556.00      23.58
 69.77     553.00      23.52
 69.87     526.23      22.94
 69.97     569.00      23.85
 70.07     551.89      23.49
 70.17     614.00      24.78
 70.27     562.25      23.71
 70.37     595.17      24.40
 70.47     596.93      24.43
 70.57     555.00      23.56
 70.67     549.29      23.44
 70.77     579.00      24.06
 70.87     567.00      23.81
 70.97     639.19      25.28
 71.07     668.00      25.85
 71.17     731.00      27.04
 71.27     809.00      28.44
 71.37     897.98      29.97
 71.47    1098.00      33.14
 71.57    1201.00      34.66
 71.67    1331.00      36.48
 71.77    1667.00      40.83
 71.87    1870.45      43.25
 71.97    1944.00      44.09
 72.07    1922.00      43.84
 72.17    1863.00      43.16
 72.27    1849.00      43.00
 72.37    1681.00      41.00
 72.47    1545.72      39.32
 72.57    1408.63      37.53
 72.67    1219.93      34.93
 72.77    1084.00      32.92
 72.87     968.23      31.12
 72.97     979.50      31.30
 73.07     836.00      28.91
 73.17     801.00      28.30
 73.27     800.56      28.29
 73.37     692.00      26.31
 73.47     730.91      27.04
 73.57     597.00      24.43
 73.67     585.30      24.19
 73.77     573.00      23.94
 73.87     578.00      24.04
 73.97     598.00      24.45
 74.07     610.71      24.71
 74.17     541.29      23.27
 74.27     603.52      24.57
 74.37     603.00      24.56
 74.47     615.57      24.81
 74.57     612.00      24.74
 74.67     647.00      25.44
 74.77     654.00      25.57
 74.87     604.00      24.58
 74.97     579.00      24.06
 75.07     573.00      23.94
 75.17     601.97      24.54
 75.27     546.00      23.37
 75.37     569.00      23.85
 75.47     553.00      23.52
 75.57     551.00      23.47
 75.67     565.00      23.77
 75.77     547.51      23.40
 75.87     582.00      24.12
 75.97     566.46      23.80
 76.07     607.51      24.65
 76.17     657.00      25.63
 76.27     705.00      26.55
 76.37     689.42      26.26
 76.47     683.00      26.13
 76.57     671.49      25.91
 76.67     733.24      27.08
 76.77     647.00      25.44
 76.87     639.00      25.28
 76.97     638.00      25.26
 77.07     588.00      24.25
 77.17     604.00      24.58
 77.27     572.26      23.92
 77.37     553.00      23.52
 77.47     484.00      22.00
 77.57     533.00      23.09
 77.67     527.75      22.97
 77.77     502.00      22.41
 77.87     533.16      23.09
 77.97     542.03      23.28
 78.07     512.49      22.64
 78.17     541.00      23.26
 78.27     514.00      22.67
 78.37     553.14      23.52
 78.47     498.42      22.33
 78.57     492.44      22.19
 78.67     530.00      23.02
 78.77     512.00      22.63
 78.87     534.74      23.12
 78.97     559.00      23.64
 79.07     501.58      22.40
 79.17     527.42      22.97
 79.27     485.00      22.02
 79.37     473.00      21.75
 79.47     497.61      22.31
 79.57     522.93      22.87
 79.67     529.00      23.00
 79.77     511.00      22.61
 79.87     539.00      23.22
 79.97     549.94      23.45
 80.07     529.00      23.00
 80.17     580.00      24.08
 80.27     548.00      23.41
 80.37     624.59      24.99
 80.47     589.00      24.27
 80.57     636.00      25.22
 80.67     669.41      25.87
 80.77     626.11      25.02
 80.87     726.78      26.96
 80.97     684.00      26.15
 81.07     727.00      26.96
 81.17     775.00      27.84
 81.27     769.47      27.74
 81.37     775.00      27.84
 81.47     785.00      28.02
 81.57     790.45      28.11
 81.67     706.67      26.58
 81.77     728.00      26.98
 81.87     710.23      26.65
 81.97     728.00      26.98
 82.07     707.00      26.59
 82.17     660.00      25.69
 82.27     644.70      25.39
 82.37     633.00      25.16
 82.47     629.64      25.09
 82.57     632.00      25.14
 82.67     593.00      24.35
 82.77     576.00      24.00
 82.87     556.41      23.59
 82.97     629.00      25.08
 83.07     554.00      23.54
 83.17     520.98      22.82
 83.27     538.00      23.19
 83.37     534.00      23.11
 83.47     562.00      23.71
 83.57     552.00      23.49
 83.67     604.84      24.59
 83.77     598.15      24.46
 83.87     554.24      23.54
 83.97     606.00      24.62
 84.07     560.00      23.66
 84.17     544.00      23.32
 84.27     524.00      22.89
 84.37     571.00      23.90
 84.47     555.00      23.56
 84.57     560.00      23.66
 84.67     551.99      23.49
 84.77     506.10      22.50
 84.87     551.00      23.47
 84.97     505.00      22.47
 85.07     574.10      23.96
 85.17     561.81      23.70
 85.27     479.00      21.89
 85.37     530.00      23.02
 85.47     550.00      23.45
 85.57     565.00      23.77
 85.67     526.00      22.93
 85.77     522.00      22.85
 85.87     554.00      23.54
 85.97     514.00      22.67
 86.07     518.00      22.76
 86.17     537.00      23.17
 86.27     575.00      23.98
 86.37     543.00      23.30
 86.47     552.00      23.49
 86.57     549.00      23.43
 86.67     523.79      22.89
 86.77     600.00      24.49
 86.87     589.00      24.27
 86.97     578.00      24.04
 87.07     647.00      25.44
 87.17     619.00      24.88
 87.27     645.59      25.41
 87.37     641.00      25.32
 87.47     666.35      25.81
 87.57     646.00      25.42
 87.67     659.90      25.69
 87.77     631.00      25.12
 87.87     582.57      24.14
 87.97     634.00      25.18
 88.07     601.12      24.52
 88.17     615.00      24.80
 88.27     534.00      23.11
 88.37     560.00      23.66
 88.47     598.67      24.47
 88.57     601.31      24.52
 88.67     559.69      23.66
 88.77     610.00      24.70
 88.87     596.00      24.41
 88.97     583.00      24.15
 89.07     547.61      23.40
 89.17     626.01      25.02
 89.27     639.00      25.28
 89.37     627.10      25.04
 89.47     608.00      24.66
 89.57     574.99      23.98
 89.67     580.16      24.09
 89.77     557.00      23.60
 89.87     589.00      24.27
 89.97     526.48      22.95
 90.07     575.77      24.00
 90.17     550.00      23.45
 90.27     532.00      23.07
 90.37     550.51      23.46
 90.47     529.00      23.00
 90.57     504.00      22.45
 90.67     552.00      23.49
 90.77     547.94      23.41
 90.87     527.00      22.96
 90.97     531.04      23.04
 91.07     538.75      23.21
 91.17     494.00      22.23
 91.27     532.00      23.07
 91.37     521.00      22.83
 91.47     520.52      22.81
 91.57     497.01      22.29
 91.67     572.00      23.92
 91.77     500.00      22.36
 91.87     601.00      24.52
 91.97     527.00      22.96
 92.07     558.00      23.62
 92.17     594.00      24.37
 92.27     586.00      24.21
 92.37     602.99      24.56
 92.47     593.00      24.35
 92.57     677.56      26.03
 92.67     656.00      25.61
 92.77     673.00      25.94
 92.87     698.00      26.42
 92.97     709.00      26.63
 93.07     749.00      27.37
 93.17     712.90      26.70
 93.27     828.00      28.77
 93.37     782.00      27.96
 93.47     850.16      29.16
 93.57     847.00      29.10
 93.67     828.94      28.79
 93.77     806.00      28.39
 93.87     874.00      29.56
 93.97     774.88      27.84
 94.07     896.00      29.93
 94.17     831.00      28.83
 94.27     864.00      29.39
 94.37     917.89      30.30
 94.47     841.00      29.00
 94.57     905.00      30.08
 94.67     909.93      30.17
 94.77     925.81      30.43
 94.87     897.00      29.95
 94.97     897.00      29.95
 95.07     804.39      28.36
 95.17     846.00      29.09
 95.27     856.48      29.27
 95.37     807.00      28.41
 95.47     793.12      28.16
 95.57     754.00      27.46
 95.67     726.59      26.96
 95.77     726.11      26.95
 95.87     685.00      26.17
 95.97     686.00      26.19
 96.07     633.95      25.18
 96.17     660.65      25.70
 96.27     725.00      26.93
 96.37     773.00      27.80
 96.47     814.51      28.54
 96.57     900.00      30.00
 96.67     891.00      29.85
 96.77     988.00      31.43
 96.87    1046.00      32.34
 96.97    1084.73      32.94
 97.07    1276.30      35.73
 97.17    1266.00      35.58
 97.27    1282.00      35.81
 97.37    1370.00      37.01
 97.47    1389.94      37.28
 97.57    1411.00      37.56
 97.67    1450.00      38.08
 97.77    1356.51      36.83
 97.87    1378.00      37.12
 97.97    1288.31      35.89
 98.07    1192.00      34.53
 98.17    1145.29      33.84
 98.27    1102.00      33.20
 98.37    1010.00      31.78
 98.47     944.00      30.72
 98.57     864.00      29.39
 98.67     832.00      28.84
 98.77     846.00      29.09
 98.87     775.00      27.84
 98.97     799.54      28.28
 99.07     787.00      28.05
 99.17     878.00      29.63
 99.27     905.00      30.08
 99.37     925.39      30.42
 99.47    1048.00      32.37
 99.57    1130.00      33.62
 99.67    1121.03      33.48
 99.77    1276.00      35.72
 99.87    1434.74      37.88
 99.97    1535.52      39.19
100.07    1630.54      40.38
100.17    1707.00      41.32
100.27    1871.00      43.26
100.37    1929.00      43.92
100.47    1970.99      44.40
100.57    1983.62      44.54
100.67    2136.00      46.22
100.77    2095.00      45.77
100.87    2135.44      46.21
100.97    2041.00      45.18
101.07    1906.70      43.67
101.17    1919.00      43.81
101.27    1745.68      41.78
101.37    1692.60      41.14
101.47    1678.66      40.97
101.57    1515.00      38.92
101.67    1474.00      38.39
101.77    1374.62      37.08
101.87    1304.00      36.11
101.97    1207.00      34.74
102.07    1137.00      33.72
102.17    1122.00      33.50
102.27    1008.00      31.75
102.37    1058.00      32.53
102.47    1072.12      32.74
102.57    1026.00      32.03
102.67    1014.00      31.84
102.77    1015.00      31.86
102.87     948.00      30.79
102.97     964.00      31.05
103.07     944.00      30.72
103.17     907.66      30.13
103.27     853.00      29.21
103.37     747.45      27.34
103.47     810.00      28.46
103.57     758.11      27.53
103.67     732.26      27.06
103.77     612.09      24.74
103.87     637.00      25.24
103.97     566.21      23.80
104.07     613.00      24.76
104.17     560.00      23.66
104.27     577.00      24.02
104.37     572.00      23.92
104.47     571.00      23.90
104.57     589.19      24.27
104.67     584.00      24.17
104.77     543.00      23.30
104.87     561.00      23.69
104.97     510.00      22.58
105.07     558.22      23.63
105.17     556.00      23.58
105.27     532.00      23.07
105.37     539.00      23.22
105.47     550.00      23.45
105.57     572.00      23.92
105.67     571.00      23.90
105.77     577.88      24.04
105.87     567.00      23.81
105.97     542.00      23.28
106.07     559.00      23.64
106.17     589.00      24.27
106.27     580.77      24.10
106.37     622.51      24.95
106.47     615.30      24.81
106.57     648.63      25.47
106.67     683.00      26.13
106.77     625.00      25.00
106.87     645.00      25.40
106.97     699.00      26.44
107.07     715.91      26.76
107.17     652.04      25.54
107.27     635.00      25.20
107.37     750.01      27.39
107.47     687.61      26.22
107.57     690.81      26.28
107.67     730.91      27.04
107.77     736.38      27.14
107.87     645.72      25.41
107.97     678.98      26.06
108.07     667.00      25.83
108.17     675.00      25.98
108.27     675.00      25.98
108.37     678.00      26.04
108.47     713.00      26.70
108.57     684.00      26.15
108.67     661.00      25.71
108.77     728.94      27.00
108.87     679.00      26.06
108.97     665.00      25.79
109.07     682.00      26.12
109.17     670.00      25.88
109.27     653.00      25.55
109.37     704.84      26.55
109.47     624.54      24.99
109.57     594.55      24.38
109.67     642.00      25.34
109.77     640.00      25.30
109.87     622.00      24.94
109.97     567.92      23.83
110.07     558.00      23.62
110.17     600.00      24.49
110.27     523.46      22.88
110.37     563.00      23.73
110.47     576.00      24.00
110.57     549.76      23.45
110.67     524.73      22.91
110.77     513.11      22.65
110.87     535.97      23.15
110.97     545.00      23.35
111.07     539.00      23.22
111.17     506.59      22.51
111.27     565.63      23.78
111.37     574.90      23.98
111.47     534.04      23.11
111.57     541.00      23.26
111.67     580.00      24.08
111.77     528.00      22.98
111.87     555.00      23.56
111.97     588.74      24.26
112.07     555.00      23.56
112.17     560.00      23.66
112.27     564.06      23.75
112.37     573.00      23.94
112.47     579.00      24.06
112.57     617.00      24.84
112.67     652.45      25.54
112.77     613.00      24.76
112.87     691.64      26.30
112.97     641.00      25.32
113.07     693.00      26.32
113.17     750.00      27.39
113.27     701.00      26.48
113.37     785.30      28.02
113.47     839.00      28.97
113.57     850.00      29.15
113.67     851.00      29.17
113.77     943.00      30.71
113.87     949.00      30.81
113.97    1013.00      31.83
114.07    1107.00      33.27
114.17    1098.00      33.14
114.27    1115.00      33.39
114.37    1230.00      35.07
114.47    1319.00      36.32
114.57    1402.33      37.45
114.67    1618.00      40.22
114.77    1698.77      41.22
114.87    1944.44      44.10
114.97    2155.93      46.43
115.07    2397.00      48.96
115.17    2600.00      50.99
115.27    2812.81      53.04
115.37    3010.38      54.87
115.47    3350.00      57.88
115.57    3687.00      60.72
115.67    4059.00      63.71
115.77    4430.00      66.56
115.87    4799.00      69.27
115.97    5106.00      71.46
116.07    5590.00      74.77
116.17    6118.48      78.22
116.27    6305.00      79.40
116.37    6649.00      81.54
116.47    6933.00      83.26
116.57    7082.00      84.15
116.67    7038.00      83.89
116.77    6943.00      83.32
116.87    6807.65      82.51
116.97    6725.00      82.01
117.07    6357.00      79.73
117.17    6082.00      77.99
117.27    5914.80      76.91
117.37    5385.70      73.39
117.47    4941.61      70.30
117.57    4556.00      67.50
117.67    4341.00      65.89
117.77    3953.11      62.87
117.87    3546.06      59.55
117.97    3208.00      56.64
118.07    2985.00      54.64
118.17    2406.14      49.05
118.27    2300.00      47.96
118.37    1879.21      43.35
118.47    1742.00      41.74
118.57    1562.00      39.52
118.67    1293.00      35.96
118.77    1209.00      34.77
118.87    1072.00      32.74
118.97    1075.69      32.80
119.07     926.00      30.43
119.17     865.79      29.42
119.27     784.00      28.00
119.37     754.04      27.46
119.47     678.52      26.05
119.57     716.00      26.76
119.67     678.00      26.04
119.77     654.73      25.59
119.87     629.81      25.10
119.97     608.00      24.66
120.07     647.78      25.45
120.17     561.00      23.69
120.27     605.00      24.60
120.37     567.00      23.81
120.47     608.01      24.66
120.57     624.59      24.99
120.67     580.00      24.08
120.77     554.00      23.54
120.87     576.00      24.00
120.97     528.09      22.98
121.07     568.00      23.83
121.17     552.00      23.49
121.27     569.21      23.86
121.37     595.00      24.39
121.47     596.19      24.42
121.57     577.58      24.03
121.67     583.00      24.15
121.77     581.00      24.10
121.87     586.32      24.21
121.97     557.86      23.62
122.07     632.15      25.14
122.17     649.87      25.49
122.27     639.00      25.28
122.37     657.00      25.63
122.47     619.00      24.88
122.57     615.00      24.80
122.67     646.64      25.43
122.77     682.36      26.12
122.87     634.00      25.18
122.97     676.00      26.00
123.07     655.00      25.59
123.17     673.00      25.94
123.27     618.00      24.86
123.37     596.00      24.41
123.47     662.00      25.73
123.57     621.00      24.92
123.67     596.00      24.41
123.77     604.00      24.58
123.87     619.00      24.88
123.97     664.00      25.77
124.07     613.00      24.76
124.17     656.00      25.61
124.27     605.00      24.60
124.37     636.00      25.22
124.47     637.00      25.24
124.57     568.00      23.83
124.67     607.00      24.64
124.77     614.00      24.78
124.87     587.00      24.23
124.97     569.00      23.85
