  9.97     661.38      25.72
 10.07     724.00      26.91
 10.17     661.95      25.73
 10.27     680.00      26.08
 10.37     711.00      26.66
 10.47     686.00      26.19
 10.57     733.00      27.07
 10.67     696.00      26.38
 10.77     726.00      26.94
 10.87     721.00      26.85
 10.97     686.57      26.20
 11.07     741.57      27.23
 11.17     719.00      26.81
 11.27     749.00      27.37
 11.37     743.00      27.26
 11.47     699.00      26.44
 11.57     736.00      27.13
 11.67     758.00      27.53
 11.77     756.00      27.50
 11.87     760.28      27.57
 11.97     787.00      28.05
 12.07     745.32      27.30
 12.17     864.00      29.39
 12.27     804.00      28.35
 12.37     752.16      27.43
 12.47     760.00      27.57
 12.57     773.38      27.81
 12.67     728.00      26.98
 12.77     660.00      25.69
 12.87     685.55      26.18
 12.97     631.38      25.13
 13.07     640.00      25.30
 13.17     613.00      24.76
 13.27     644.00      25.38
 13.37     710.09      26.65
 13.47     646.86      25.43
 13.57     624.00      24.98
 13.67     688.17      26.23
 13.77     611.00      24.72
 13.87     679.00      26.06
 13.97     681.00      26.10
 14.07     673.00      25.94
 14.17     673.26      25.95
 14.27     642.70      25.35
 14.37     637.00      25.24
 14.47     611.70      24.73
 14.57     654.00      25.57
 14.67     643.71      25.37
 14.77     613.98      24.78
 14.87     616.44      24.83
 14.97     661.00      25.71
 15.07     600.00      24.49
 15.17     634.00      25.18
 15.27     637.00      25.24
 15.37     656.57      25.62
 15.47     641.00      25.32
 15.57     639.00      25.28
 15.67     617.00      24.84
 15.77     603.00      24.56
 15.87     680.72      26.09
 15.97     641.00      25.32
 16.07     616.82      24.84
 16.17     675.21      25.98
 16.27     620.00      24.90
 16.37     622.00      24.94
 16.47     621.00      24.92
 16.57     598.00      24.45
 16.67     604.00      24.58
 16.77     604.00      24.58
 16.87     654.38      25.58
 16.97     626.00      25.02
 17.07     661.00      25.71
 17.17     662.04      25.73
 17.27     641.00      25.32
 17.37     637.00      25.24
 17.47     589.31      24.28
 17.57     604.81      24.59
 17.67     637.00      25.24
 17.77     639.00      25.28
 17.87     608.79      24.67
 17.97     671.00      25.90
 18.07     659.00      25.67
 18.17     611.27      24.72
 18.27     616.31      24.83
 18.37     634.00      25.18
 18.47     618.16      24.86
 18.57     646.00      25.42
 18.67     623.00      24.96
 18.77     595.00      24.39
 18.87     666.00      25.81
 18.97     657.00      25.63
 19.07     575.00      23.98
 19.17     667.00      25.83
 19.27     581.57      24.12
 19.37     619.00      24.88
 19.47     616.00      24.82
 19.57     611.00      24.72
 19.67     627.10      25.04
 19.77     603.00      24.56
 19.87     622.00      24.94
 19.97     600.68      24.51
 20.07     659.91      25.69
 20.17     637.00      25.24
 20.27     568.00      23.83
 20.37     658.35      25.66
 20.47     598.00      24.45
 20.57     639.00      25.28
 20.67     635.05      25.20
 20.77     603.00      24.56
 20.87     598.80      24.47
 20.97     596.00      24.41
 21.07     614.00      24.78
 21.17     600.24      24.50
 21.27     594.55      24.38
 21.37     559.00      23.64
 21.47     615.00      24.80
 21.57     600.94      24.51
 21.67     637.72      25.25
 21.77     568.62      23.85
 21.87     570.00      23.87
 21.97     633.00      25.16
 22.07     577.00      24.02
 22.17     594.27      24.38
 22.27     565.00      23.77
 22.37     646.00      25.42
 22.47     642.00      25.34
 22.57     658.69      25.67
 22.67     619.53      24.89
 22.77     607.00      24.64
 22.87     580.87      24.10
 22.97     623.00      24.96
 23.07     600.17      24.50
 23.17     634.00      25.18
 23.27     621.98      24.94
 23.37     635.00      25.20
 23.47     655.08      25.59
 23.57     601.00      24.52
 23.67     615.00      24.80
 23.77     598.00      24.45
 23.87     610.00      24.70
 23.97     630.00      25.10
 24.07     642.70      25.35
 24.17     580.00      24.08
 24.27     649.49      25.49
 24.37     600.00      24.49
 24.47     632.00      25.14
 24.57     609.00      24.68
 24.67     654.00      25.57
 24.77     693.00      26.32
 24.87     678.00      26.04
 24.97     720.39      26.84
 25.07     731.84      27.05
 25.17     687.00      26.21
 25.27     703.00      26.51
 25.37     678.15      26.04
 25.47     675.25      25.99
 25.57     665.76      25.80
 25.67     631.00      25.12
 25.77     682.00      26.12
 25.87     640.00      25.30
 25.97     625.00      25.00
 26.07     663.40      25.76
 26.17     597.00      24.43
 26.27     623.13      24.96
 26.37     628.00      25.06
 26.47     640.00      25.30
 26.57     596.00      24.41
 26.67     665.00      25.79
 26.77     672.00      25.92
 26.87     669.89      25.88
 26.97     637.00      25.24
 27.07     632.00      25.14
 27.17     654.00      25.57
 27.27     702.00      26.50
 27.37     679.00      26.06
 27.47     718.00      26.80
 27.57     770.00      27.75
 27.67     788.05      28.07
 27.77     870.00      29.50
 27.87     966.00      31.08
 27.97    1263.00      35.54
 28.07    1880.00      43.36
 28.17    2942.00      54.24
 28.27    4896.10      69.97
 28.37    6118.00      78.22
 28.47    6643.00      81.50
 28.57    5794.00      76.12
 28.67    4128.12      64.25
 28.77    3236.00      56.89
 28.87    2729.00      52.24
 28.97    3083.00      55.52
 29.07    3608.00      60.07
 29.17    3596.63      59.97
 29.27    3210.00      56.66
 29.37    2395.00      48.94
 29.47    1649.65      40.62
 29.57    1208.00      34.76
 29.67    1038.00      32.22
 29.77     835.00      28.90
 29.87     833.00      28.86
 29.97     668.87      25.86
 30.07     798.00      28.25
 30.17     717.00      26.78
 30.27     651.90      25.53
 30.37     664.00      25.77
 30.47     687.00      26.21
 30.57     645.00      25.40
 30.67     680.00      26.08
 30.77     639.00      25.28
 30.87     729.74      27.01
 30.97     754.82      27.47
 31.07     824.00      28.71
 31.17     689.28      26.25
 31.27     760.45      27.58
 31.37     659.00      25.67
 31.47     683.85      26.15
 31.57     591.00      24.31
 31.67     639.00      25.28
 31.77     655.44      25.60
 31.87     656.00      25.61
 31.97     654.78      25.59
 32.07     616.00      24.82
 32.17     615.00      24.80
 32.27     585.00      24.19
 32.37     660.00      25.69
 32.47     644.98      25.40
 32.57     566.00      23.79
 32.67     568.00      23.83
 32.77     620.00      24.90
 32.87     643.00      25.36
 32.97     610.00      24.70
 33.07     588.00      24.25
 33.17     574.30      23.96
 33.27     638.00      25.26
 33.37     610.00      24.70
 33.47     599.00      24.47
 33.57     610.21      24.70
 33.67     662.00      25.73
 33.77     698.00      26.42
 33.87     768.00      27.71
 33.97     815.00      28.55
 34.07     940.47      30.67
 34.17    1082.00      32.89
 34.27    1183.00      34.39
 34.37    1154.00      33.97
 34.47    1138.61      33.74
 34.57     948.00      30.79
 34.67     772.00      27.78
 34.77     780.00      27.93
 34.87     665.00      25.79
 34.97     647.00      25.44
 35.07     687.00      26.21
 35.17     586.71      24.22
 35.27     670.00      25.88
 35.37     651.00      25.51
 35.47     529.00      23.00
 35.57     585.00      24.19
 35.67     630.76      25.11
 35.77     626.36      25.03
 35.87     582.00      24.12
 35.97     584.93      24.19
 36.07     581.00      24.10
 36.17     592.00      24.33
 36.27     621.69      24.93
 36.37     603.00      24.56
 36.47     574.06      23.96
 36.57     598.15      24.46
 36.67     543.00      23.30
 36.77     598.05      24.46
 36.87     630.94      25.12
 36.97     592.00      24.33
 37.07     546.24      23.37
 37.17     589.00      24.27
 37.27     567.00      23.81
 37.37     609.51      24.69
 37.47     630.15      25.10
 37.57     578.00      24.04
 37.67     555.51      23.57
 37.77     621.00      24.92
 37.87     644.35      25.38
 37.97     644.00      25.38
 38.07     640.52      25.31
 38.17     693.00      26.32
 38.27     721.69      26.86
 38.37     700.00      26.46
 38.47     655.00      25.59
 38.57     617.40      24.85
 38.67     592.00      24.33
 38.77     662.00      25.73
 38.87     586.17      24.21
 38.97     559.00      23.64
 39.07     634.08      25.18
 39.17     600.00      24.49
 39.27     609.00      24.68
 39.37     615.97      24.82
 39.47     573.00      23.94
 39.57     547.11      23.39
 39.67     614.74      24.79
 39.77     582.00      24.12
 39.87     584.00      24.17
 39.97     561.33      23.69
 40.07     583.00      24.15
 40.17     541.70      23.27
 40.27     535.00      23.13
 40.37     554.85      23.56
 40.47     591.00      24.31
 40.57     559.00      23.64
 40.67     582.28      24.13
 40.77     626.23      25.02
 40.87     550.00      23.45
 40.97     559.00      23.64
 41.07     578.00      24.04
 41.17     605.39      24.60
 41.27     553.00      23.52
 41.37     575.00      23.98
 41.47     618.00      24.86
 41.57     553.00      23.52
 41.67     596.00      24.41
 41.77     564.00      23.75
 41.87     575.65      23.99
 41.97     541.17      23.26
 42.07     576.00      24.00
 42.17     553.00      23.52
 42.27     575.03      23.98
 42.37     567.48      23.82
 42.47     648.16      25.46
 42.57     625.00      25.00
 42.67     582.68      24.14
 42.77     662.09      25.73
 42.87     624.00      24.98
 42.97     675.00      25.98
 43.07     667.33      25.83
 43.17     723.07      26.89
 43.27     626.01      25.02
 43.37     621.00      24.92
 43.47     595.00      24.39
 43.57     633.33      25.17
 43.67     596.00      24.41
 43.77     613.00      24.76
 43.87     576.58      24.01
 43.97     599.82      24.49
 44.07     531.00      23.04
 44.17     617.90      24.86
 44.27     609.58      24.69
 44.37     536.10      23.15
 44.47     629.00      25.08
 44.57     536.98      23.17
 44.67     638.00      25.26
 44.77     600.00      24.49
 44.87     560.70      23.68
 44.97     529.86      23.02
 45.07     577.65      24.03
 45.17     581.00      24.10
 45.27     577.00      24.02
 45.37     524.00      22.89
 45.47     574.00      23.96
 45.57     552.00      23.49
 45.67     546.59      23.38
 45.77     548.00      23.41
 45.87     612.47      24.75
 45.97     590.00      24.29
 46.07     607.17      24.64
 46.17     587.00      24.23
 46.27     595.00      24.39
 46.37     574.00      23.96
 46.47     579.00      24.06
 46.57     611.00      24.72
 46.67     607.00      24.64
 46.77     560.14      23.67
 46.87     571.00      23.90
 46.97     616.00      24.82
 47.07     575.59      23.99
 47.17     590.64      24.30
 47.27     620.00      24.90
 47.37     572.00      23.92
 47.47     641.00      25.32
 47.57     546.47      23.38
 47.67     600.00      24.49
 47.77     657.00      25.63
 47.87     595.00      24.39
 47.97     664.00      25.77
 48.07     622.89      24.96
 48.17     631.00      25.12
 48.27     665.00      25.79
 48.37     655.46      25.60
 48.47     647.00      25.44
 48.57     645.00      25.40
 48.67     634.00      25.18
 48.77     658.86      25.67
 48.87     606.00      24.62
 48.97     599.00      24.47
 49.07     575.00      23.98
 49.17     587.26      24.23
 49.27     601.00      24.52
 49.37     663.12      25.75
 49.47     668.43      25.85
 49.57     695.73      26.38
 49.67     697.00      26.40
 49.77     708.00      26.61
 49.87     881.22      29.69
 49.97    1070.27      32.71
 50.07    1310.00      36.19
 50.17    1704.57      41.29
 50.27    2037.00      45.13
 50.37    2558.00      50.58
 50.47    2855.00      53.43
 50.57    3115.72      55.82
 50.67    2761.00      52.55
 50.77    2419.00      49.18
 50.87    1883.00      43.39
 50.97    1489.00      38.59
 51.07    1164.00      34.12
 51.17     975.71      31.24
 51.27     946.00      30.76
 51.37     777.00      27.87
 51.47     775.96      27.86
 51.57     733.00      27.07
 51.67     734.00      27.09
 51.77     744.17      27.28
 51.87     707.00      26.59
 51.97     660.00      25.69
 52.07     709.00      26.63
 52.17     706.59      26.58
 52.27     674.00      25.96
 52.37     680.00      26.08
 52.47     693.83      26.34
 52.57     650.00      25.50
 52.67     684.00      26.15
 52.77     683.00      26.13
 52.87     623.00      24.96
 52.97     691.00      26.29
 53.07     678.00      26.04
 53.17     744.59      27.29
 53.27     755.00      27.48
 53.37     806.00      28.39
 53.47     914.00      30.23
 53.57     925.84      30.43
 53.67    1128.00      33.59
 53.77    1242.00      35.24
 53.87    1315.79      36.27
 53.97    1363.36      36.92
 54.07    1286.00      35.86
 54.17    1153.78      33.97
 54.27     983.20      31.36
 54.37     927.00      30.45
 54.47     828.00      28.77
 54.57     717.00      26.78
 54.67     734.00      27.09
 54.77     699.00      26.44
 54.87     657.00      25.63
 54.97     631.33      25.13
 55.07     675.86      26.00
 55.17     693.34      26.33
 55.27     593.00      24.35
 55.37     565.00      23.77
 55.47     626.00      25.02
 55.57     620.56      24.91
 55.67     642.00      25.34
 55.77     684.00      26.15
 55.87     688.00      26.23
 55.97     675.83      26.00
 56.07     687.00      26.21
 56.17     653.00      25.55
 56.27     729.45      27.01
 56.37     763.00      27.62
 56.47     851.04      29.17
 56.57     956.00      30.92
 56.67    1085.55      32.95
 56.77    1391.88      37.31
 56.87    1680.00      40.99
 56.97    2061.00      45.40
 57.07    2264.29      47.58
 57.17    2646.00      51.44
 57.27    2678.00      51.75
 57.37    2650.00      51.48
 57.47    2312.06      48.08
 57.57    2093.90      45.76
 57.67    1752.32      41.86
 57.77    1427.00      37.78
 57.87    1126.00      33.56
 57.97    1033.90      32.15
 58.07     926.00      30.43
 58.17     826.00      28.74
 58.27     796.00      28.21
 58.37     784.00      28.00
 58.47     764.00      27.64
 58.57     796.00      28.21
 58.67     857.00      29.27
 58.77     956.01      30.92
 58.87     961.00      31.00
 58.97    1134.90      33.69
 59.07    1204.00      34.70
 59.17    1251.00      35.37
 59.27    1273.00      35.68
 59.37    1336.00      36.55
 59.47    1287.00      35.87
 59.57    1275.00      35.71
 59.67    1257.00      35.45
 59.77    1297.00      36.01
 59.87    1251.00      35.37
 59.97    1277.00      35.74
 60.07    1204.84      34.71
 60.17    1214.79      34.85
 60.27    1365.00      36.95
 60.37    1422.00      37.71
 60.47    1474.12      38.39
 60.57    1640.62      40.50
 60.67    1518.00      38.96
 60.77    1508.00      38.83
 60.87    1409.84      37.55
 60.97    1321.00      36.35
 61.07    1202.35      34.67
 61.17    1016.00      31.87
 61.27     865.00      29.41
 61.37     882.00      29.70
 61.47     766.71      27.69
 61.57     804.00      28.35
 61.67     794.00      28.18
 61.77     790.00      28.11
 61.87     871.13      29.51
 61.97     904.00      30.07
 62.07    1023.69      32.00
 62.17    1140.00      33.76
 62.27    1291.00      35.93
 62.37    1450.66      38.09
 62.47    1490.00      38.60
 62.57    1587.00      39.84
 62.67    1622.00      40.27
 62.77    1500.00      38.73
 62.87    1484.79      38.53
 62.97    1309.96      36.19
 63.07    1230.28      35.08
 63.17     954.00      30.89
 63.27     909.82      30.16
 63.37     856.00      29.26
 63.47     748.57      27.36
 63.57     717.00      26.78
 63.67     692.00      26.31
 63.77     694.00      26.34
 63.87     691.00      26.29
 63.97     718.00      26.80
 64.07     692.00      26.31
 64.17     724.00      26.91
 64.27     745.40      27.30
 64.37     810.00      28.46
 64.47     838.00      28.95
 64.57     916.19      30.27
 64.67    1063.00      32.60
 64.77    1094.00      33.08
 64.87    1150.48      33.92
 64.97    1376.00      37.09
 65.07    1348.06      36.72
 65.17    1403.73      37.47
 65.27    1439.00      37.93
 65.37    1394.00      37.34
 65.47    1289.00      35.90
 65.57    1131.39      33.64
 65.67    1068.00      32.68
 65.77     974.00      31.21
 65.87     834.00      28.88
 65.97     840.00      28.98
 66.07     841.00      29.00
 66.17     677.00      26.02
 66.27     738.07      27.17
 66.37     685.00      26.17
 66.47     745.49      27.30
 66.57     659.93      25.69
 66.67     669.00      25.87
 66.77     649.00      25.48
 66.87     639.60      25.29
 66.97     691.00      26.29
 67.07     710.16      26.65
 67.17     679.00      26.06
 67.27     753.98      27.46
 67.37     725.51      26.94
 67.47     744.00      27.28
 67.57     798.00      28.25
 67.67     832.00      28.84
 67.77     965.25      31.07
 67.87    1071.00      32.73
 67.97    1252.09      35.38
 68.07    1542.55      39.28
 68.17    1765.00      42.01
 68.27    1968.00      44.36
 68.37    2230.00      47.22
 68.47    2386.00      48.85
 68.57    2484.00      49.84
 68.67    2425.58      49.25
 68.77    2427.00      49.26
 68.87    2224.03      47.16
 68.97    1898.08      43.57
 69.07    1728.00      41.57
 69.17    1413.00      37.59
 69.27    1287.00      35.87
 69.37    1094.00      33.08
 69.47     997.00      31.58
 69.57     908.00      30.13
 69.67     851.00      29.17
 69.77     753.66      27.45
 69.87     776.00      27.86
 69.97     769.00      27.73
 70.07     727.00      26.96
 70.17     759.00      27.55
 70.27     687.10      26.21
 70.37     704.00      26.53
 70.47     700.00      26.46
 70.57     619.15      24.88
 70.67     650.00      25.50
 70.77     711.00      26.66
 70.87     666.00      25.81
 70.97     657.00      25.63
 71.07     709.16      26.63
 71.17     714.00      26.72
 71.27     689.00      26.25
 71.37     697.11      26.40
 71.47     772.00      27.78
 71.57     820.00      28.64
 71.67     825.47      28.73
 71.77     995.00      31.54
 71.87    1093.00      33.06
 71.97    1245.00      35.28
 72.07    1349.00      36.73
 72.17    1553.00      39.41
 72.27    1650.00      40.62
 72.37    1768.39      42.05
 72.47    1960.00      44.27
 72.57    1950.43      44.16
 72.67    1846.00      42.97
 72.77    1786.00      42.26
 72.87    1660.00      40.74
 72.97    1607.00      40.09
 73.07    1390.00      37.28
 73.17    1247.00      35.31
 73.27    1031.48      32.12
 73.37     990.00      31.46
 73.47     849.00      29.14
 73.57     813.86      28.53
 73.67     784.51      28.01
 73.77     736.00      27.13
 73.87     717.13      26.78
 73.97     689.00      26.25
 74.07     725.00      26.93
 74.17     684.26      26.16
 74.27     656.00      25.61
 74.37     605.56      24.61
 74.47     624.00      24.98
 74.57     666.00      25.81
 74.67     716.00      26.76
 74.77     681.13      26.10
 74.87     654.00      25.57
 74.97     672.00      25.92
 75.07     687.19      26.21
 75.17     623.00      24.96
 75.27     636.72      25.23
 75.37     682.00      26.12
 75.47     694.00      26.34
 75.57     664.00      25.77
 75.67     674.42      25.97
 75.77     705.00      26.55
 75.87     653.00      25.55
 75.97     644.00      25.38
 76.07     644.28      25.38
 76.17     644.04      25.38
 76.27     677.85      26.04
 76.37     707.00      26.59
 76.47     769.00      27.73
 76.57     757.00      27.51
 76.67     721.00      26.85
 76.77     800.00      28.28
 76.87     869.00      29.48
 76.97     910.20      30.17
 77.07     931.00      30.51
 77.17     893.22      29.89
 77.27     963.94      31.05
 77.37     942.00      30.69
 77.47     903.90      30.06
 77.57     839.08      28.97
 77.67     788.00      28.07
 77.77     787.22      28.06
 77.87     723.00      26.89
 77.97     713.00      26.70
 78.07     650.33      25.50
 78.17     635.00      25.20
 78.27     641.00      25.32
 78.37     623.00      24.96
 78.47     600.54      24.51
 78.57     642.00      25.34
 78.67     635.79      25.21
 78.77     612.70      24.75
 78.87     601.00      24.52
 78.97     621.00      24.92
 79.07     561.00      23.69
 79.17     624.76      25.00
 79.27     577.44      24.03
 79.37     579.00      24.06
 79.47     645.59      25.41
 79.57     555.00      23.56
 79.67     589.00      24.27
 79.77     623.00      24.96
 79.87     604.00      24.58
 79.97     609.45      24.69
 80.07     600.00      24.49
 80.17     569.00      23.85
 80.27     639.00      25.28
 80.37     623.00      24.96
 80.47     628.00      25.06
 80.57     723.53      26.90
 80.67     712.00      26.68
 80.77     772.00      27.78
 80.87     812.00      28.50
 80.97     886.00      29.77
 81.07     934.00      30.56
 81.17    1034.75      32.17
 81.27    1057.68      32.52
 81.37    1151.24      33.93
 81.47    1160.89      34.07
 81.57    1251.00      35.37
 81.67    1332.00      36.50
 81.77    1342.00      36.63
 81.87    1226.94      35.03
 81.97    1193.77      34.55
 82.07    1223.11      34.97
 82.17    1172.41      34.24
 82.27    1075.00      32.79
 82.37     977.29      31.26
 82.47    1003.00      31.67
 82.57     957.00      30.94
 82.67     909.57      30.16
 82.77     838.00      28.95
 82.87     815.49      28.56
 82.97     718.00      26.80
 83.07     673.00      25.94
 83.17     688.99      26.25
 83.27     662.00      25.73
 83.37     666.19      25.81
 83.47     624.00      24.98
 83.57     580.00      24.08
 83.67     622.00      24.94
 83.77     591.54      24.32
 83.87     637.00      25.24
 83.97     614.00      24.78
 84.07     607.00      24.64
 84.17     688.30      26.24
 84.27     664.73      25.78
 84.37     680.80      26.09
 84.47     632.00      25.14
 84.57     604.00      24.58
 84.67     635.00      25.20
 84.77     678.14      26.04
 84.87     694.80      26.36
 84.97     636.00      25.22
 85.07     650.42      25.50
 85.17     581.00      24.10
 85.27     639.09      25.28
 85.37     606.00      24.62
 85.47     574.86      23.98
 85.57     611.86      24.74
 85.67     573.07      23.94
 85.77     586.00      24.21
 85.87     592.88      24.35
 85.97     637.27      25.24
 86.07     604.00      24.58
 86.17     625.52      25.01
 86.27     589.00      24.27
 86.37     569.20      23.86
 86.47     609.84      24.69
 86.57     613.25      24.76
 86.67     615.82      24.82
 86.77     630.00      25.10
 86.87     653.00      25.55
 86.97     611.55      24.73
 87.07     704.00      26.53
 87.17     683.00      26.13
 87.27     647.00      25.44
 87.37     667.00      25.83
 87.47     701.44      26.48
 87.57     691.00      26.29
 87.67     719.30      26.82
 87.77     715.18      26.74
 87.87     666.97      25.83
 87.97     673.53      25.95
 88.07     725.00      26.93
 88.17     694.00      26.34
 88.27     742.00      27.24
 88.37     676.00      26.00
 88.47     714.82      26.74
 88.57     677.00      26.02
 88.67     678.00      26.04
 88.77     679.00      26.06
 88.87     647.00      25.44
 88.97     664.73      25.78
 89.07     660.00      25.69
 89.17     616.00      24.82
 89.27     615.45      24.81
 89.37     654.00      25.57
 89.47     683.54      26.14
 89.57     630.00      25.10
 89.67     626.00      25.02
 89.77     580.00      24.08
 89.87     626.00      25.02
 89.97     558.00      23.62
 90.07     691.00      26.29
 90.17     644.84      25.39
 90.27     683.00      26.13
 90.37     672.00      25.92
 90.47     614.00      24.78
 90.57     670.93      25.90
 90.67     615.00      24.80
 90.77     609.00      24.68
 90.87     610.00      24.70
 90.97     619.00      24.88
 91.07     641.73      25.33
 91.17     594.00      24.37
 91.27     582.00      24.12
 91.37     567.00      23.81
 91.47     542.02      23.28
 91.57     586.00      24.21
 91.67     647.00      25.44
 91.77     624.55      24.99
 91.87     571.00      23.90
 91.97     610.00      24.70
 92.07     554.24      23.54
 92.17     544.70      23.34
 92.27     583.00      24.15
 92.37     549.80      23.45
 92.47     613.00      24.76
 92.57     581.00      24.10
 92.67     582.00      24.12
 92.77     585.00      24.19
 92.87     624.00      24.98
 92.97     669.15      25.87
 93.07     629.00      25.08
 93.17     643.00      25.36
 93.27     705.52      26.56
 93.37     695.00      26.36
 93.47     657.00      25.63
 93.57     692.00      26.31
 93.67     713.67      26.71
 93.77     730.80      27.03
 93.87     786.00      28.04
 93.97     789.00      28.09
 94.07     815.00      28.55
 94.17     828.00      28.77
 94.27     804.02      28.36
 94.37     809.07      28.44
 94.47     905.65      30.09
 94.57     936.00      30.59
 94.67     867.52      29.45
 94.77     926.00      30.43
 94.87     954.00      30.89
 94.97     946.00      30.76
 95.07     953.00      30.87
 95.17     912.00      30.20
 95.27     972.92      31.19
 95.37    1013.00      31.83
 95.47     986.00      31.40
 95.57     989.78      31.46
 95.67     989.35      31.45
 95.77     927.09      30.45
 95.87     954.79      30.90
 95.97     896.36      29.94
 96.07     931.00      30.51
 96.17     868.00      29.46
 96.27     891.00      29.85
 96.37     862.15      29.36
 96.47     840.00      28.98
 96.57     808.00      28.43
 96.67     764.00      27.64
 96.77     787.62      28.06
 96.87     843.46      29.04
 96.97     818.00      28.60
 97.07     860.00      29.33
 97.17     846.23      29.09
 97.27     971.92      31.18
 97.37     999.00      31.61
 97.47    1031.00      32.11
 97.57    1109.08      33.30
 97.67    1156.00      34.00
 97.77    1207.00      34.74
 97.87    1378.16      37.12
 97.97    1341.30      36.62
 98.07    1449.00      38.07
 98.17    1546.00      39.32
 98.27    1526.00      39.06
 98.37    1638.73      40.48
 98.47    1486.58      38.56
 98.57    1563.04      39.54
 98.67    1533.33      39.16
 98.77    1321.00      36.35
 98.87    1386.00      37.23
 98.97    1327.00      36.43
 99.07    1185.59      34.43
 99.17    1191.00      34.51
 99.27    1071.28      32.73
 99.37    1092.00      33.05
 99.47     990.00      31.46
 99.57     955.64      30.91
 99.67     930.39      30.50
 99.77     980.00      31.30
 99.87    1032.05      32.13
 99.97     948.82      30.80
100.07    1056.00      32.50
100.17    1037.00      32.20
100.27    1125.10      33.54
100.37    1244.98      35.28
100.47    1191.68      34.52
100.57    1377.74      37.12
100.67    1489.00      38.59
100.77    1510.00      38.86
100.87    1661.29      40.76
100.97    1708.55      41.33
101.07    1819.00      42.65
101.17    1935.00      43.99
101.27    1975.65      44.45
101.37    2082.00      45.63
101.47    2213.00      47.04
101.57    2070.00      45.50
101.67    2070.00      45.50
101.77    2143.00      46.29
101.87    2132.00      46.17
101.97    2039.00      45.16
102.07    1957.00      44.24
102.17    1879.26      43.35
102.27    1784.00      42.24
102.37    1781.00      42.20
102.47    1761.89      41.97
102.57    1531.00      39.13
102.67    1507.73      38.83
102.77    1438.00      37.92
102.87    1512.57      38.89
102.97    1366.00      36.96
103.07    1245.00      35.28
103.17    1237.00      35.17
103.27    1249.86      35.35
103.37    1243.00      35.26
103.47    1247.23      35.32
103.57    1192.00      34.53
103.67    1095.00      33.09
103.77    1130.96      33.63
103.87    1088.00      32.98
103.97    1045.00      32.33
104.07     966.00      31.08
104.17     971.00      31.16
104.27     946.00      30.76
104.37     886.00      29.77
104.47     795.06      28.20
104.57     790.00      28.11
104.67     773.00      27.80
104.77     761.00      27.59
104.87     777.00      27.87
104.97     661.85      25.73
105.07     622.79      24.96
105.17     760.00      27.57
105.27     612.44      24.75
105.37     681.00      26.10
105.47     620.00      24.90
105.57     612.00      24.74
105.67     579.00      24.06
105.77     613.00      24.76
105.87     627.00      25.04
105.97     601.74      24.53
106.07     578.00      24.04
106.17     584.00      24.17
106.27     596.00      24.41
106.37     555.08      23.56
106.47     557.52      23.61
106.57     614.00      24.78
106.67     589.78      24.29
106.77     594.00      24.37
106.87     669.00      25.87
106.97     599.28      24.48
107.07     637.00      25.24
107.17     618.88      24.88
107.27     674.00      25.96
107.37     663.21      25.75
107.47     699.00      26.44
107.57     688.00      26.23
107.67     676.93      26.02
107.77     770.00      27.75
107.87     774.99      27.84
107.97     796.13      28.22
108.07     740.00      27.20
108.17     728.00      26.98
108.27     759.00      27.55
108.37     785.00      28.02
108.47     722.46      26.88
108.57     803.65      28.35
108.67     778.00      27.89
108.77     810.00      28.46
108.87     817.00      28.58
108.97     708.33      26.61
109.07     748.36      27.36
109.17     742.00      27.24
109.27     760.00      27.57
109.37     792.00      28.14
109.47     819.00      28.62
109.57     706.35      26.58
109.67     777.00      27.87
109.77     716.00      26.76
109.87     784.00      28.00
109.97     821.89      28.67
110.07     791.69      28.14
110.17     790.00      28.11
110.27     749.00      27.37
110.37     779.00      27.91
110.47     704.00      26.53
110.57     706.00      26.57
110.67     748.00      27.35
110.77     672.00      25.92
110.87     702.00      26.50
110.97     696.00      26.38
111.07     692.00      26.31
111.17     668.00      25.85
111.27     631.48      25.13
111.37     683.00      26.13
111.47     639.00      25.28
111.57     609.69      24.69
111.67     653.20      25.56
111.77     646.00      25.42
111.87     605.00      24.60
111.97     605.00      24.60
112.07     572.00      23.92
112.17     588.00      24.25
112.27     547.32      23.39
112.37     597.00      24.43
112.47     614.00      24.78
112.57     593.00      24.35
112.67     628.80      25.08
112.77     589.00      24.27
112.87     585.03      24.19
112.97     579.04      24.06
113.07     630.00      25.10
113.17     580.97      24.10
113.27     638.00      25.26
113.37     613.00      24.76
113.47     645.00      25.40
113.57     651.67      25.53
113.67     654.87      25.59
113.77     596.00      24.41
113.87     611.93      24.74
113.97     638.18      25.26
114.07     659.00      25.67
114.17     644.70      25.39
114.27     617.00      24.84
114.37     697.81      26.42
114.47     655.00      25.59
114.57     722.59      26.88
114.67     718.75      26.81
114.77     728.00      26.98
114.87     816.00      28.57
114.97     811.47      28.49
115.07     944.01      30.72
115.17     880.00      29.66
115.27     979.00      31.29
115.37    1102.36      33.20
115.47    1220.75      34.94
115.57    1322.25      36.36
115.67    1501.89      38.75
115.77    1607.60      40.09
115.87    1872.44      43.27
115.97    2013.00      44.87
116.07    2429.80      49.29
116.17    2598.00      50.97
116.27    2939.00      54.21
116.37    3340.86      57.80
116.47    3577.00      59.81
116.57    3843.76      62.00
116.67    4296.00      65.54
116.77    4663.85      68.29
116.87    4919.00      70.14
116.97    5364.40      73.24
117.07    5766.00      75.93
117.17    6192.43      78.69
117.27    6604.00      81.26
117.37    6773.07      82.30
117.47    7142.00      84.51
117.57    7264.00      85.23
117.67    7344.00      85.70
117.77    7336.00      85.65
117.87    7483.00      86.50
117.97    7265.38      85.24
118.07    7146.32      84.54
118.17    6894.48      83.03
118.27    6565.00      81.02
118.37    6355.00      79.72
118.47    6201.61      78.75
118.57    5560.59      74.57
118.67    5279.00      72.66
118.77    4853.44      69.67
118.87    4655.00      68.23
118.97    4235.83      65.08
119.07    3787.14      61.54
119.17    3520.00      59.33
119.27    3121.42      55.87
119.37    2973.00      54.53
119.47    2614.00      51.13
119.57    2351.00      48.49
119.67    2055.47      45.34
119.77    1905.00      43.65
119.87    1725.00      41.53
119.97    1585.00      39.81
120.07    1409.73      37.55
120.17    1328.86      36.45
120.27    1205.78      34.72
120.37    1160.00      34.06
120.47     993.00      31.51
120.57    1006.02      31.72
120.67     970.00      31.14
120.77     884.88      29.75
120.87     839.00      28.97
120.97     868.83      29.48
121.07     823.00      28.69
121.17     729.00      27.00
121.27     802.00      28.32
121.37     697.48      26.41
121.47     718.00      26.80
121.57     687.00      26.21
121.67     673.00      25.94
121.77     683.00      26.13
121.87     654.88      25.59
121.97     699.20      26.44
122.07     650.98      25.51
122.17     620.00      24.90
122.27     667.80      25.84
122.37     664.00      25.77
122.47     643.00      25.36
122.57     659.05      25.67
122.67     717.39      26.78
122.77     668.00      25.85
122.87     668.00      25.85
122.97     691.00      26.29
123.07     694.00      26.34
123.17     675.63      25.99
123.27     760.26      27.57
123.37     729.98      27.02
123.47     741.00      27.22
123.57     695.54      26.37
123.67     755.00      27.48
123.77     696.38      26.39
123.87     779.00      27.91
123.97     815.00      28.55
124.07     697.00      26.40
124.17     790.00      28.11
124.27     706.00      26.57
124.37     781.00      27.95
124.47     785.00      28.02
124.57     820.00      28.64
124.67     709.00      26.63
124.77     769.58      27.74
124.87     676.17      26.00
124.97     757.08      27.52
