  9.97     738.00      27.17
 10.07     737.26      27.15
 10.17     690.21      26.27
 10.27     748.00      27.35
 10.37     721.11      26.85
 10.47     657.06      25.63
 10.57     738.00      27.17
 10.67     679.00      26.06
 10.77     685.00      26.17
 10.87     715.23      26.74
 10.97     685.00      26.17
 11.07     691.68      26.30
 11.17     700.71      26.47
 11.27     684.89      26.17
 11.37     722.00      26.87
 11.47     745.00      27.29
 11.57     763.00      27.62
 11.67     763.00      27.62
 11.77     765.00      27.66
 11.87     720.24      26.84
 11.97     783.00      27.98
 12.07     820.00      28.64
 12.17     860.00      29.33
 12.27     775.17      27.84
 12.37     821.00      28.65
 12.47     840.00      28.98
 12.57     805.33      28.38
 12.67     732.00      27.06
 12.77     701.00      26.48
 12.87     674.00      25.96
 12.97     690.00      26.27
 13.07     697.00      26.40
 13.17     666.00      25.81
 13.27     665.00      25.79
 13.37     638.00      25.26
 13.47     644.00      25.38
 13.57     646.00      25.42
 13.67     686.00      26.19
 13.77     666.60      25.82
 13.87     707.36      26.60
 13.97     657.00      25.63
 14.07     680.00      26.08
 14.17     671.00      25.90
 14.27     701.00      26.48
 14.37     625.55      25.01
 14.47     622.00      24.94
 14.57     618.01      24.86
 14.67     594.00      24.37
 14.77     663.00      25.75
 14.87     655.00      25.59
 14.97     615.00      24.80
 15.07     630.00      25.10
 15.17     640.00      25.30
 15.27     672.00      25.92
 15.37     678.09      26.04
 15.47     655.00      25.59
 15.57     608.89      24.68
 15.67     649.36      25.48
 15.77     647.00      25.44
 15.87     670.08      25.89
 15.97     635.00      25.20
 16.07     642.00      25.34
 16.17     620.52      24.91
 16.27     609.00      24.68
 16.37     607.16      24.64
 16.47     630.00      25.10
 16.57     681.00      26.10
 16.67     600.00      24.49
 16.77     626.00      25.02
 16.87     684.58      26.16
 16.97     695.00      26.36
 17.07     617.66      24.85
 17.17     615.00      24.80
 17.27     674.04      25.96
 17.37     591.00      24.31
 17.47     664.04      25.77
 17.57     628.00      25.06
 17.67     664.00      25.77
 17.77     636.00      25.22
 17.87     595.88      24.41
 17.97     653.14      25.56
 18.07     635.00      25.20
 18.17     629.21      25.08
 18.27     658.48      25.66
 18.37     604.00      24.58
 18.47     632.00      25.14
 18.57     654.02      25.57
 18.67     687.00      26.21
 18.77     677.00      26.02
 18.87     651.00      25.51
 18.97     586.00      24.21
 19.07     632.68      25.15
 19.17     593.00      24.35
 19.27     635.00      25.20
 19.37     619.00      24.88
 19.47     625.00      25.00
 19.57     624.00      24.98
 19.67     636.00      25.22
 19.77     646.19      25.42
 19.87     633.00      25.16
 19.97     589.80      24.29
 20.07     587.00      24.23
 20.17     686.00      26.19
 20.27     593.00      24.35
 20.37     592.00      24.33
 20.47     627.00      25.04
 20.57     636.00      25.22
 20.67     638.00      25.26
 20.77     603.75      24.57
 20.87     648.32      25.46
 20.97     671.09      25.91
 21.07     625.73      25.01
 21.17     609.00      24.68
 21.27     583.96      24.17
 21.37     617.00      24.84
 21.47     603.00      24.56
 21.57     627.00      25.04
 21.67     604.28      24.58
 21.77     611.00      24.72
 21.87     602.00      24.54
 21.97     579.00      24.06
 22.07     594.00      24.37
 22.17     612.27      24.74
 22.27     623.00      24.96
 22.37     662.29      25.73
 22.47     618.05      24.86
 22.57     621.00      24.92
 22.67     610.11      24.70
 22.77     634.00      25.18
 22.87     661.77      25.72
 22.97     658.81      25.67
 23.07     631.00      25.12
 23.17     635.00      25.20
 23.27     585.00      24.19
 23.37     654.73      25.59
 23.47     651.00      25.51
 23.57     604.00      24.58
 23.67     604.00      24.58
 23.77     637.00      25.24
 23.87     651.88      25.53
 23.97     627.00      25.04
 24.07     626.00      25.02
 24.17     630.00      25.10
 24.27     658.61      25.66
 24.37     663.00      25.75
 24.47     649.48      25.48
 24.57     650.17      25.50
 24.67     684.40      26.16
 24.77     687.00      26.21
 24.87     733.54      27.08
 24.97     691.00      26.29
 25.07     707.00      26.59
 25.17     708.00      26.61
 25.27     689.38      26.26
 25.37     693.00      26.32
 25.47     701.00      26.48
 25.57     608.00      24.66
 25.67     605.00      24.60
 25.77     638.00      25.26
 25.87     619.00      24.88
 25.97     665.00      25.79
 26.07     660.73      25.70
 26.17     613.23      24.76
 26.27     634.00      25.18
 26.37     641.98      25.34
 26.47     661.00      25.71
 26.57     630.02      25.10
 26.67     696.54      26.39
 26.77     707.00      26.59
 26.87     670.00      25.88
 26.97     677.00      26.02
 27.07     651.00      25.51
 27.17     686.00      26.19
 27.27     652.00      25.53
 27.37     722.00      26.87
 27.47     725.00      26.93
 27.57     766.00      27.68
 27.67     825.00      28.72
 27.77     887.23      29.79
 27.87     999.00      31.61
 27.97    1342.61      36.64
 28.07    1999.00      44.71
 28.17    3226.00      56.80
 28.27    5221.97      72.26
 28.37    6844.00      82.73
 28.47    7788.00      88.25
 28.57    6803.00      82.48
 28.67    5270.00      72.59
 28.77    3764.52      61.36
 28.87    3326.00      57.67
 28.97    3589.40      59.91
 29.07    4142.00      64.36
 29.17    4225.00      65.00
 29.27    3795.71      61.61
 29.37    2910.00      53.94
 29.47    2116.64      46.01
 29.57    1534.06      39.17
 29.67    1164.00      34.12
 29.77     945.00      30.74
 29.87     907.00      30.12
 29.97     797.47      28.24
 30.07     776.00      27.86
 30.17     783.00      27.98
 30.27     763.00      27.62
 30.37     670.00      25.88
 30.47     701.60      26.49
 30.57     715.91      26.76
 30.67     688.00      26.23
 30.77     707.00      26.59
 30.87     685.57      26.18
 30.97     737.67      27.16
 31.07     748.00      27.35
 31.17     738.77      27.18
 31.27     787.35      28.06
 31.37     765.00      27.66
 31.47     687.00      26.21
 31.57     691.32      26.29
 31.67     669.00      25.87
 31.77     657.51      25.64
 31.87     592.66      24.34
 31.97     599.00      24.47
 32.07     669.00      25.87
 32.17     626.00      25.02
 32.27     594.47      24.38
 32.37     624.00      24.98
 32.47     657.00      25.63
 32.57     567.00      23.81
 32.67     612.00      24.74
 32.77     600.00      24.49
 32.87     585.42      24.20
 32.97     649.43      25.48
 33.07     624.00      24.98
 33.17     648.96      25.47
 33.27     619.00      24.88
 33.37     606.00      24.62
 33.47     627.00      25.04
 33.57     659.00      25.67
 33.67     645.03      25.40
 33.77     699.00      26.44
 33.87     709.00      26.63
 33.97     881.12      29.68
 34.07     964.00      31.05
 34.17    1059.67      32.55
 34.27    1254.00      35.41
 34.37    1243.00      35.26
 34.47    1098.00      33.14
 34.57    1052.52      32.44
 34.67     912.80      30.21
 34.77     796.07      28.21
 34.87     645.00      25.40
 34.97     720.00      26.83
 35.07     670.00      25.88
 35.17     659.00      25.67
 35.27     633.00      25.16
 35.37     592.00      24.33
 35.47     620.00      24.90
 35.57     577.00      24.02
 35.67     594.00      24.37
 35.77     612.00      24.74
 35.87     637.00      25.24
 35.97     581.96      24.12
 36.07     634.00      25.18
 36.17     597.58      24.45
 36.27     573.84      23.96
 36.37     605.00      24.60
 36.47     641.00      25.32
 36.57     545.82      23.36
 36.67     594.34      24.38
 36.77     562.00      23.71
 36.87     591.00      24.31
 36.97     611.00      24.72
 37.07     622.41      24.95
 37.17     619.00      24.88
 37.27     576.00      24.00
 37.37     572.46      23.93
 37.47     625.00      25.00
 37.57     593.74      24.37
 37.67     614.00      24.78
 37.77     614.44      24.79
 37.87     636.00      25.22
 37.97     655.79      25.61
 38.07     648.00      25.46
 38.17     709.00      26.63
 38.27     700.80      26.47
 38.37     734.43      27.10
 38.47     670.00      25.88
 38.57     712.59      26.69
 38.67     703.84      26.53
 38.77     605.00      24.60
 38.87     581.90      24.12
 38.97     605.00      24.60
 39.07     625.38      25.01
 39.17     587.00      24.23
 39.27     599.00      24.47
 39.37     535.00      23.13
 39.47     571.88      23.91
 39.57     549.30      23.44
 39.67     605.00      24.60
 39.77     579.08      24.06
 39.87     539.94      23.24
 39.97     581.00      24.10
 40.07     563.33      23.73
 40.17     629.50      25.09
 40.27     586.57      24.22
 40.37     605.00      24.60
 40.47     575.00      23.98
 40.57     580.00      24.08
 40.67     614.00      24.78
 40.77     588.00      24.25
 40.87     599.00      24.47
 40.97     510.00      22.58
 41.07     579.71      24.08
 41.17     556.00      23.58
 41.27     592.39      24.34
 41.37     553.00      23.52
 41.47     626.73      25.03
 41.57     610.00      24.70
 41.67     555.00      23.56
 41.77     569.00      23.85
 41.87     587.00      24.23
 41.97     607.00      24.64
 42.07     562.21      23.71
 42.17     585.14      24.19
 42.27     536.00      23.15
 42.37     591.00      24.31
 42.47     594.00      24.37
 42.57     621.00      24.92
 42.67     648.86      25.47
 42.77     616.12      24.82
 42.87     635.00      25.20
 42.97     636.00      25.22
 43.07     607.00      24.64
 43.17     697.00      26.40
 43.27     664.00      25.77
 43.37     599.00      24.47
 43.47     642.00      25.34
 43.57     613.97      24.78
 43.67     618.00      24.86
 43.77     627.00      25.04
 43.87     619.00      24.88
 43.97     617.86      24.86
 44.07     574.31      23.96
 44.17     568.00      23.83
 44.27     597.05      24.43
 44.37     559.00      23.64
 44.47     586.92      24.23
 44.57     553.17      23.52
 44.67     611.00      24.72
 44.77     606.74      24.63
 44.87     610.00      24.70
 44.97     601.00      24.52
 45.07     608.00      24.66
 45.17     563.00      23.73
 45.27     560.47      23.67
 45.37     648.00      25.46
 45.47     639.00      25.28
 45.57     627.00      25.04
 45.67     579.00      24.06
 45.77     571.32      23.90
 45.87     556.00      23.58
 45.97     603.00      24.56
 46.07     625.00      25.00
 46.17     602.00      24.54
 46.27     593.00      24.35
 46.37     565.00      23.77
 46.47     629.00      25.08
 46.57     582.00      24.12
 46.67     633.26      25.16
 46.77     574.00      23.96
 46.87     655.00      25.59
 46.97     588.27      24.25
 47.07     616.00      24.82
 47.17     626.87      25.04
 47.27     576.00      24.00
 47.37     597.00      24.43
 47.47     567.36      23.82
 47.57     586.31      24.21
 47.67     650.00      25.50
 47.77     611.00      24.72
 47.87     676.63      26.01
 47.97     656.79      25.63
 48.07     670.00      25.88
 48.17     640.88      25.32
 48.27     642.43      25.35
 48.37     700.76      26.47
 48.47     637.34      25.25
 48.57     689.00      26.25
 48.67     655.00      25.59
 48.77     619.00      24.88
 48.87     640.00      25.30
 48.97     583.48      24.16
 49.07     629.00      25.08
 49.17     652.43      25.54
 49.27     594.00      24.37
 49.37     622.00      24.94
 49.47     648.00      25.46
 49.57     671.00      25.90
 49.67     743.07      27.26
 49.77     766.63      27.69
 49.87     846.00      29.09
 49.97    1060.53      32.57
 50.07    1158.00      34.03
 50.17    1603.38      40.04
 50.27    2155.00      46.42
 50.37    2690.99      51.87
 50.47    2949.00      54.30
 50.57    3009.00      54.85
 50.67    2923.00      54.06
 50.77    2624.00      51.22
 50.87    2129.00      46.14
 50.97    1620.00      40.25
 51.07    1318.49      36.31
 51.17    1074.24      32.78
 51.27     880.04      29.67
 51.37     805.96      28.39
 51.47     826.00      28.74
 51.57     807.00      28.41
 51.67     702.24      26.50
 51.77     667.63      25.84
 51.87     701.00      26.48
 51.97     711.00      26.66
 52.07     665.96      25.81
 52.17     697.81      26.42
 52.27     701.00      26.48
 52.37     705.00      26.55
 52.47     678.00      26.04
 52.57     702.00      26.50
 52.67     674.00      25.96
 52.77     595.00      24.39
 52.87     667.00      25.83
 52.97     669.00      25.87
 53.07     673.00      25.94
 53.17     699.00      26.44
 53.27     732.94      27.07
 53.37     765.00      27.66
 53.47     864.00      29.39
 53.57     921.00      30.35
 53.67    1095.00      33.09
 53.77    1123.39      33.52
 53.87    1307.00      36.15
 53.97    1356.00      36.82
 54.07    1251.00      35.37
 54.17    1221.00      34.94
 54.27    1102.01      33.20
 54.37    1045.48      32.33
 54.47     849.53      29.15
 54.57     817.00      28.58
 54.67     784.00      28.00
 54.77     728.94      27.00
 54.87     709.00      26.63
 54.97     679.00      26.06
 55.07     641.74      25.33
 55.17     657.00      25.63
 55.27     695.46      26.37
 55.37     661.92      25.73
 55.47     642.00      25.34
 55.57     636.00      25.22
 55.67     710.71      26.66
 55.77     708.61      26.62
 55.87     655.00      25.59
 55.97     683.00      26.13
 56.07     742.10      27.24
 56.17     748.00      27.35
 56.27     707.82      26.60
 56.37     747.81      27.35
 56.47     815.00      28.55
 56.57     961.90      31.01
 56.67    1049.00      32.39
 56.77    1331.00      36.48
 56.87    1581.00      39.76
 56.97    1947.00      44.12
 57.07    2230.00      47.22
 57.17    2487.96      49.88
 57.27    2723.07      52.18
 57.37    2709.00      52.05
 57.47    2543.00      50.43
 57.57    2256.14      47.50
 57.67    1922.74      43.85
 57.77    1537.89      39.22
 57.87    1378.72      37.13
 57.97    1059.00      32.54
 58.07     927.00      30.45
 58.17     852.83      29.20
 58.27     869.00      29.48
 58.37     827.00      28.76
 58.47     770.00      27.75
 58.57     854.67      29.23
 58.67     860.00      29.33
 58.77     881.00      29.68
 58.87     955.00      30.90
 58.97     967.00      31.10
 59.07    1185.00      34.42
 59.17    1186.00      34.44
 59.27    1274.76      35.70
 59.37    1387.17      37.24
 59.47    1337.00      36.57
 59.57    1304.00      36.11
 59.67    1249.47      35.35
 59.77    1277.17      35.74
 59.87    1209.00      34.77
 59.97    1234.00      35.13
 60.07    1225.00      35.00
 60.17    1235.00      35.14
 60.27    1293.24      35.96
 60.37    1468.94      38.33
 60.47    1496.00      38.68
 60.57    1517.64      38.96
 60.67    1592.00      39.90
 60.77    1526.00      39.06
 60.87    1569.55      39.62
 60.97    1394.00      37.34
 61.07    1300.00      36.06
 61.17    1165.48      34.14
 61.27     948.00      30.79
 61.37     887.00      29.78
 61.47     799.00      28.27
 61.57     758.00      27.53
 61.67     756.76      27.51
 61.77     854.55      29.23
 61.87     857.00      29.27
 61.97     981.63      31.33
 62.07    1015.00      31.86
 62.17    1117.71      33.43
 62.27    1352.71      36.78
 62.37    1474.00      38.39
 62.47    1632.00      40.40
 62.57    1697.00      41.19
 62.67    1778.00      42.17
 62.77    1752.00      41.86
 62.87    1567.00      39.59
 62.97    1490.00      38.60
 63.07    1279.75      35.77
 63.17    1083.00      32.91
 63.27     960.00      30.98
 63.37     913.61      30.23
 63.47     800.00      28.28
 63.57     814.03      28.53
 63.67     750.00      27.39
 63.77     722.56      26.88
 63.87     704.00      26.53
 63.97     717.00      26.78
 64.07     713.77      26.72
 64.17     762.93      27.62
 64.27     749.00      27.37
 64.37     808.00      28.43
 64.47     842.00      29.02
 64.57     905.00      30.08
 64.67     996.00      31.56
 64.77    1103.00      33.21
 64.87    1268.46      35.62
 64.97    1372.00      37.04
 65.07    1459.81      38.21
 65.17    1478.00      38.44
 65.27    1552.00      39.40
 65.37    1393.00      37.32
 65.47    1423.00      37.72
 65.57    1331.03      36.48
 65.67    1188.00      34.47
 65.77    1083.00      32.91
 65.87     971.57      31.17
 65.97     896.00      29.93
 66.07     820.89      28.65
 66.17     761.00      27.59
 66.27     783.00      27.98
 66.37     729.00      27.00
 66.47     777.92      27.89
 66.57     671.43      25.91
 66.67     722.53      26.88
 66.77     673.32      25.95
 66.87     647.62      25.45
 66.97     669.70      25.88
 67.07     719.23      26.82
 67.17     677.00      26.02
 67.27     662.76      25.74
 67.37     710.17      26.65
 67.47     734.00      27.09
 67.57     814.00      28.53
 67.67     815.02      28.55
 67.77     942.01      30.69
 67.87    1012.00      31.81
 67.97    1205.76      34.72
 68.07    1444.00      38.00
 68.17    1644.99      40.56
 68.27    1959.37      44.26
 68.37    2225.16      47.17
 68.47    2317.92      48.14
 68.57    2439.00      49.39
 68.67    2515.40      50.15
 68.77    2370.05      48.68
 68.87    2465.00      49.65
 68.97    2154.00      46.41
 69.07    1889.00      43.46
 69.17    1544.68      39.30
 69.27    1451.00      38.09
 69.37    1208.00      34.76
 69.47    1045.00      32.33
 69.57     959.18      30.97
 69.67     909.00      30.15
 69.77     792.00      28.14
 69.87     720.44      26.84
 69.97     821.00      28.65
 70.07     734.00      27.09
 70.17     725.00      26.93
 70.27     651.03      25.52
 70.37     691.00      26.29
 70.47     642.53      25.35
 70.57     670.00      25.88
 70.67     684.00      26.15
 70.77     691.00      26.29
 70.87     704.00      26.53
 70.97     733.00      27.07
 71.07     670.66      25.90
 71.17     714.00      26.72
 71.27     687.00      26.21
 71.37     686.12      26.19
 71.47     785.00      28.02
 71.57     775.00      27.84
 71.67     856.00      29.26
 71.77     888.74      29.81
 71.87    1051.00      32.42
 71.97    1147.00      33.87
 72.07    1252.72      35.39
 72.17    1406.00      37.50
 72.27    1479.00      38.46
 72.37    1712.08      41.38
 72.47    1946.09      44.11
 72.57    1910.37      43.71
 72.67    2050.98      45.29
 72.77    1941.37      44.06
 72.87    1815.00      42.60
 72.97    1643.00      40.53
 73.07    1494.00      38.65
 73.17    1373.09      37.06
 73.27    1123.00      33.51
 73.37    1113.08      33.36
 73.47    1001.96      31.65
 73.57     874.50      29.57
 73.67     828.23      28.78
 73.77     713.28      26.71
 73.87     684.97      26.17
 73.97     713.87      26.72
 74.07     678.52      26.05
 74.17     638.00      25.26
 74.27     653.00      25.55
 74.37     622.39      24.95
 74.47     617.81      24.86
 74.57     640.83      25.31
 74.67     597.00      24.43
 74.77     699.20      26.44
 74.87     708.00      26.61
 74.97     692.00      26.31
 75.07     643.82      25.37
 75.17     621.87      24.94
 75.27     690.00      26.27
 75.37     684.10      26.16
 75.47     655.03      25.59
 75.57     696.43      26.39
 75.67     645.97      25.42
 75.77     639.98      25.30
 75.87     687.83      26.23
 75.97     703.00      26.51
 76.07     653.00      25.55
 76.17     646.10      25.42
 76.27     744.09      27.28
 76.37     698.00      26.42
 76.47     720.00      26.83
 76.57     781.00      27.95
 76.67     858.30      29.30
 76.77     833.00      28.86
 76.87     876.17      29.60
 76.97     966.51      31.09
 77.07    1018.00      31.91
 77.17     999.52      31.62
 77.27    1014.00      31.84
 77.37     917.00      30.28
 77.47     963.00      31.03
 77.57     877.00      29.61
 77.67     874.00      29.56
 77.77     800.00      28.28
 77.87     830.84      28.82
 77.97     726.00      26.94
 78.07     740.39      27.21
 78.17     656.00      25.61
 78.27     689.00      26.25
 78.37     665.00      25.79
 78.47     634.00      25.18
 78.57     621.74      24.93
 78.67     637.00      25.24
 78.77     656.00      25.61
 78.87     680.00      26.08
 78.97     651.00      25.51
 79.07     589.07      24.27
 79.17     666.00      25.81
 79.27     602.00      24.54
 79.37     616.00      24.82
 79.47     594.00      24.37
 79.57     648.29      25.46
 79.67     571.73      23.91
 79.77     611.00      24.72
 79.87     599.00      24.47
 79.97     606.00      24.62
 80.07     657.00      25.63
 80.17     624.00      24.98
 80.27     646.00      25.42
 80.37     668.00      25.85
 80.47     661.00      25.71
 80.57     730.00      27.02
 80.67     725.00      26.93
 80.77     726.21      26.95
 80.87     836.00      28.91
 80.97     831.59      28.84
 81.07     972.80      31.19
 81.17     958.00      30.95
 81.27    1073.98      32.77
 81.37    1187.55      34.46
 81.47    1215.00      34.86
 81.57    1316.00      36.28
 81.67    1457.00      38.17
 81.77    1376.00      37.09
 81.87    1381.00      37.16
 81.97    1342.43      36.64
 82.07    1211.63      34.81
 82.17    1343.00      36.65
 82.27    1234.00      35.13
 82.37    1148.00      33.88
 82.47    1015.49      31.87
 82.57    1005.73      31.71
 82.67     918.82      30.31
 82.77     902.00      30.03
 82.87     791.00      28.12
 82.97     767.21      27.70
 83.07     687.00      26.21
 83.17     727.59      26.97
 83.27     650.00      25.50
 83.37     658.00      25.65
 83.47     632.00      25.14
 83.57     658.19      25.66
 83.67     639.00      25.28
 83.77     625.00      25.00
 83.87     692.72      26.32
 83.97     605.00      24.60
 84.07     590.00      24.29
 84.17     635.00      25.20
 84.27     649.75      25.49
 84.37     641.00      25.32
 84.47     693.00      26.32
 84.57     687.00      26.21
 84.67     672.00      25.92
 84.77     671.00      25.90
 84.87     617.00      24.84
 84.97     634.00      25.18
 85.07     673.00      25.94
 85.17     621.00      24.92
 85.27     643.00      25.36
 85.37     651.00      25.51
 85.47     603.00      24.56
 85.57     600.00      24.49
 85.67     625.00      25.00
 85.77     585.10      24.19
 85.87     601.00      24.52
 85.97     567.36      23.82
 86.07     593.00      24.35
 86.17     576.50      24.01
 86.27     622.00      24.94
 86.37     636.81      25.24
 86.47     617.00      24.84
 86.57     581.28      24.11
 86.67     652.48      25.54
 86.77     627.00      25.04
 86.87     670.00      25.88
 86.97     678.89      26.06
 87.07     691.33      26.29
 87.17     664.53      25.78
 87.27     650.77      25.51
 87.37     658.00      25.65
 87.47     683.00      26.13
 87.57     689.95      26.27
 87.67     711.00      26.66
 87.77     734.00      27.09
 87.87     727.00      26.96
 87.97     712.36      26.69
 88.07     726.00      26.94
 88.17     701.76      26.49
 88.27     733.00      27.07
 88.37     693.00      26.32
 88.47     685.00      26.17
 88.57     683.15      26.14
 88.67     675.36      25.99
 88.77     691.00      26.29
 88.87     704.00      26.53
 88.97     627.00      25.04
 89.07     656.30      25.62
 89.17     654.74      25.59
 89.27     660.25      25.70
 89.37     687.00      26.21
 89.47     607.00      24.64
 89.57     668.00      25.85
 89.67     641.46      25.33
 89.77     683.00      26.13
 89.87     653.00      25.55
 89.97     680.00      26.08
 90.07     696.00      26.38
 90.17     684.00      26.15
 90.27     667.55      25.84
 90.37     689.11      26.25
 90.47     700.88      26.47
 90.57     626.53      25.03
 90.67     599.00      24.47
 90.77     673.00      25.94
 90.87     615.00      24.80
 90.97     667.06      25.83
 91.07     633.00      25.16
 91.17     538.00      23.19
 91.27     587.00      24.23
 91.37     587.96      24.25
 91.47     597.00      24.43
 91.57     594.00      24.37
 91.67     611.00      24.72
 91.77     560.00      23.66
 91.87     568.02      23.83
 91.97     606.23      24.62
 92.07     589.93      24.29
 92.17     627.00      25.04
 92.27     586.00      24.21
 92.37     586.00      24.21
 92.47     570.00      23.87
 92.57     611.00      24.72
 92.67     600.00      24.49
 92.77     652.00      25.53
 92.87     641.00      25.32
 92.97     604.00      24.58
 93.07     633.00      25.16
 93.17     668.00      25.85
 93.27     668.62      25.86
 93.37     724.00      26.91
 93.47     693.00      26.32
 93.57     714.00      26.72
 93.67     774.00      27.82
 93.77     746.00      27.31
 93.87     781.92      27.96
 93.97     843.00      29.03
 94.07     775.12      27.84
 94.17     788.00      28.07
 94.27     852.00      29.19
 94.37     846.00      29.09
 94.47     887.00      29.78
 94.57     933.06      30.55
 94.67     876.90      29.61
 94.77     920.00      30.33
 94.87     977.00      31.26
 94.97     942.38      30.70
 95.07    1040.08      32.25
 95.17    1043.62      32.31
 95.27     980.00      31.30
 95.37    1079.52      32.86
 95.47     985.35      31.39
 95.57     993.00      31.51
 95.67    1033.00      32.14
 95.77    1029.00      32.08
 95.87    1010.00      31.78
 95.97     965.00      31.06
 96.07     970.00      31.14
 96.17     924.00      30.40
 96.27     949.57      30.82
 96.37     891.00      29.85
 96.47     887.02      29.78
 96.57     816.00      28.57
 96.67     746.07      27.31
 96.77     833.83      28.88
 96.87     853.49      29.21
 96.97     828.00      28.77
 97.07     845.00      29.07
 97.17     880.00      29.66
 97.27     839.92      28.98
 97.37     957.00      30.94
 97.47     983.00      31.35
 97.57    1028.00      32.06
 97.67    1141.00      33.78
 97.77    1200.00      34.64
 97.87    1240.40      35.22
 97.97    1344.36      36.67
 98.07    1453.00      38.12
 98.17    1572.00      39.65
 98.27    1472.46      38.37
 98.37    1541.00      39.26
 98.47    1612.00      40.15
 98.57    1504.94      38.79
 98.67    1538.70      39.23
 98.77    1577.70      39.72
 98.87    1468.00      38.31
 98.97    1360.72      36.89
 99.07    1308.00      36.17
 99.17    1248.00      35.33
 99.27    1198.00      34.61
 99.37    1151.31      33.93
 99.47    1062.00      32.59
 99.57    1052.09      32.44
 99.67    1051.00      32.42
 99.77    1011.00      31.80
 99.87     995.00      31.54
 99.97     966.00      31.08
100.07    1036.90      32.20
100.17    1044.53      32.32
100.27    1114.61      33.39
100.37    1140.00      33.76
100.47    1173.78      34.26
100.57    1332.00      36.50
100.67    1480.00      38.47
100.77    1470.00      38.34
100.87    1543.00      39.28
100.97    1683.00      41.02
101.07    1770.71      42.08
101.17    1877.53      43.33
101.27    1859.00      43.12
101.37    1945.00      44.10
101.47    2029.00      45.04
101.57    1987.83      44.59
101.67    2171.58      46.60
101.77    2141.00      46.27
101.87    2091.69      45.73
101.97    2015.00      44.89
102.07    2041.00      45.18
102.17    1964.00      44.32
102.27    1985.89      44.56
102.37    1932.95      43.97
102.47    1847.67      42.98
102.57    1710.00      41.35
102.67    1676.13      40.94
102.77    1544.00      39.29
102.87    1477.00      38.43
102.97    1362.00      36.91
103.07    1418.00      37.66
103.17    1433.23      37.86
103.27    1220.00      34.93
103.37    1272.00      35.67
103.47    1259.00      35.48
103.57    1213.00      34.83
103.67    1205.00      34.71
103.77    1171.38      34.23
103.87    1136.00      33.70
103.97    1072.00      32.74
104.07    1040.39      32.26
104.17    1049.18      32.39
104.27     958.00      30.95
104.37    1000.00      31.62
104.47     913.00      30.22
104.57     899.00      29.98
104.67     865.93      29.43
104.77     809.08      28.44
104.87     754.19      27.46
104.97     748.00      27.35
105.07     765.00      27.66
105.17     702.00      26.50
105.27     687.00      26.21
105.37     670.00      25.88
105.47     638.00      25.26
105.57     666.00      25.81
105.67     620.00      24.90
105.77     617.85      24.86
105.87     647.55      25.45
105.97     598.55      24.47
106.07     612.00      24.74
106.17     603.19      24.56
106.27     619.00      24.88
106.37     583.00      24.15
106.47     629.96      25.10
106.57     629.08      25.08
106.67     623.00      24.96
106.77     590.53      24.30
106.87     656.73      25.63
106.97     599.12      24.48
107.07     611.00      24.72
107.17     666.69      25.82
107.27     665.00      25.79
107.37     669.00      25.87
107.47     668.00      25.85
107.57     675.00      25.98
107.67     781.00      27.95
107.77     715.00      26.74
107.87     726.00      26.94
107.97     745.00      27.29
108.07     731.00      27.04
108.17     744.00      27.28
108.27     813.85      28.53
108.37     778.00      27.89
108.47     776.55      27.87
108.57     749.00      27.37
108.67     749.07      27.37
108.77     733.95      27.09
108.87     726.00      26.94
108.97     783.70      27.99
109.07     783.00      27.98
109.17     731.00      27.04
109.27     728.14      26.98
109.37     744.00      27.28
109.47     780.00      27.93
109.57     701.00      26.48
109.67     725.00      26.93
109.77     727.42      26.97
109.87     726.78      26.96
109.97     781.72      27.96
110.07     800.74      28.30
110.17     803.00      28.34
110.27     739.00      27.18
110.37     731.00      27.04
110.47     732.00      27.06
110.57     753.74      27.45
110.67     716.31      26.76
110.77     728.00      26.98
110.87     772.00      27.78
110.97     683.00      26.13
111.07     667.00      25.83
111.17     676.46      26.01
111.27     644.00      25.38
111.37     657.96      25.65
111.47     614.00      24.78
111.57     613.00      24.76
111.67     602.18      24.54
111.77     645.00      25.40
111.87     640.92      25.32
111.97     605.00      24.60
112.07     624.00      24.98
112.17     647.02      25.44
112.27     588.25      24.25
112.37     612.22      24.74
112.47     633.00      25.16
112.57     624.23      24.98
112.67     638.00      25.26
112.77     583.88      24.16
112.87     598.72      24.47
112.97     576.94      24.02
113.07     623.00      24.96
113.17     601.00      24.52
113.27     560.00      23.66
113.37     624.00      24.98
113.47     626.00      25.02
113.57     580.46      24.09
113.67     603.00      24.56
113.77     676.49      26.01
113.87     630.80      25.12
113.97     654.00      25.57
114.07     643.00      25.36
114.17     642.00      25.34
114.27     625.00      25.00
114.37     719.37      26.82
114.47     721.00      26.85
114.57     732.70      27.07
114.67     685.00      26.17
114.77     727.00      26.96
114.87     829.00      28.79
114.97     896.00      29.93
115.07     801.00      28.30
115.17     835.00      28.90
115.27    1001.00      31.64
115.37     985.00      31.38
115.47    1097.00      33.12
115.57    1252.00      35.38
115.67    1310.46      36.20
115.77    1460.00      38.21
115.87    1728.41      41.57
115.97    1920.80      43.83
116.07    2157.00      46.44
116.17    2376.91      48.75
116.27    2673.00      51.70
116.37    2870.07      53.57
116.47    3204.00      56.60
116.57    3579.00      59.82
116.67    3851.00      62.06
116.77    4261.00      65.28
116.87    4747.81      68.90
116.97    5185.54      72.01
117.07    5371.00      73.29
117.17    5798.00      76.14
117.27    6365.00      79.78
117.37    6753.21      82.18
117.47    6887.00      82.99
117.57    7142.00      84.51
117.67    7380.00      85.91
117.77    7387.69      85.95
117.87    7499.00      86.60
117.97    7541.00      86.84
118.07    7240.07      85.09
118.17    7300.00      85.44
118.27    7046.87      83.95
118.37    6871.22      82.89
118.47    6491.28      80.57
118.57    5980.00      77.33
118.67    5720.00      75.63
118.77    5513.36      74.25
118.87    4931.00      70.22
118.97    4738.00      68.83
119.07    4369.00      66.10
119.17    3982.00      63.10
119.27    3785.00      61.52
119.37    3304.00      57.48
119.47    2979.08      54.58
119.57    2713.00      52.09
119.67    2329.95      48.27
119.77    2169.00      46.57
119.87    2034.00      45.10
119.97    1768.00      42.05
120.07    1636.02      40.45
120.17    1559.00      39.48
120.27    1391.00      37.30
120.37    1307.00      36.15
120.47    1160.00      34.06
120.57    1059.62      32.55
120.67    1037.00      32.20
120.77     988.62      31.44
120.87     913.00      30.22
120.97     897.00      29.95
121.07     867.16      29.45
121.17     793.00      28.16
121.27     827.68      28.77
121.37     775.00      27.84
121.47     794.00      28.18
121.57     780.00      27.93
121.67     708.02      26.61
121.77     696.00      26.38
121.87     710.55      26.66
121.97     688.00      26.23
122.07     704.85      26.55
122.17     734.53      27.10
122.27     662.00      25.73
122.37     673.93      25.96
122.47     693.00      26.32
122.57     669.00      25.87
122.67     713.00      26.70
122.77     685.00      26.17
122.87     683.21      26.14
122.97     722.62      26.88
123.07     720.00      26.83
123.17     760.10      27.57
123.27     723.00      26.89
123.37     699.00      26.44
123.47     716.00      26.76
123.57     771.05      27.77
123.67     775.00      27.84
123.77     775.62      27.85
123.87     734.00      27.09
123.97     791.12      28.13
124.07     778.00      27.89
124.17     734.00      27.09
124.27     778.00      27.89
124.37     789.00      28.09
124.47     811.00      28.48
124.57     781.00      27.95
124.67     740.60      27.21
124.77     805.00      28.37
124.87     851.00      29.17
124.97     758.00      27.53
