  9.97     539.99      23.24
 10.07     625.00      25.00
 10.17     606.40      24.63
 10.27     613.00      24.76
 10.37     615.00      24.80
 10.47     550.00      23.45
 10.57     607.14      24.64
 10.67     571.34      23.90
 10.77     561.64      23.70
 10.87     614.00      24.78
 10.97     559.56      23.65
 11.07     576.00      24.00
 11.17     609.00      24.68
 11.27     558.00      23.62
 11.37     594.69      24.39
 11.47     542.34      23.29
 11.57     602.00      24.54
 11.67     661.00      25.71
 11.77     631.00      25.12
 11.87     570.00      23.87
 11.97     676.00      26.00
 12.07     664.00      25.77
 12.17     738.42      27.17
 12.27     697.41      26.41
 12.37     670.58      25.90
 12.47     609.00      24.68
 12.57     644.00      25.38
 12.67     601.20      24.52
 12.77     567.00      23.81
 12.87     600.00      24.49
 12.97     615.00      24.80
 13.07     546.45      23.38
 13.17     555.00      23.56
 13.27     574.37      23.97
 13.37     599.14      24.48
 13.47     556.00      23.58
 13.57     569.00      23.85
 13.67     566.98      23.81
 13.77     562.00      23.71
 13.87     539.00      23.22
 13.97     586.00      24.21
 14.07     541.69      23.27
 14.17     597.00      24.43
 14.27     574.00      23.96
 14.37     542.50      23.29
 14.47     595.24      24.40
 14.57     520.00      22.80
 14.67     554.00      23.54
 14.77     526.00      22.93
 14.87     566.00      23.79
 14.97     548.00      23.41
 15.07     575.61      23.99
 15.17     568.75      23.85
 15.27     560.77      23.68
 15.37     556.00      23.58
 15.47     573.20      23.94
 15.57     598.09      24.46
 15.67     541.00      23.26
 15.77     545.00      23.35
 15.87     526.25      22.94
 15.97     527.34      22.96
 16.07     585.43      24.20
 16.17     604.05      24.58
 16.27     538.00      23.19
 16.37     560.00      23.66
 16.47     549.00      23.43
 16.57     611.00      24.72
 16.67     561.00      23.69
 16.77     569.00      23.85
 16.87     534.00      23.11
 16.97     534.00      23.11
 17.07     570.00      23.87
 17.17     552.00      23.49
 17.27     536.82      23.17
 17.37     558.00      23.62
 17.47     591.55      24.32
 17.57     557.00      23.60
 17.67     527.00      22.96
 17.77     583.00      24.15
 17.87     564.00      23.75
 17.97     565.00      23.77
 18.07     549.00      23.43
 18.17     516.89      22.74
 18.27     544.00      23.32
 18.37     577.34      24.03
 18.47     563.89      23.75
 18.57     546.00      23.37
 18.67     577.00      24.02
 18.77     522.00      22.85
 18.87     568.00      23.83
 18.97     543.00      23.30
 19.07     540.00      23.24
 19.17     550.07      23.45
 19.27     560.00      23.66
 19.37     594.00      24.37
 19.47     524.82      22.91
 19.57     565.00      23.77
 19.67     503.00      22.43
 19.77     562.00      23.71
 19.87     537.00      23.17
 19.97     558.56      23.63
 20.07     576.71      24.01
 20.17     552.00      23.49
 20.27     599.30      24.48
 20.37     562.00      23.71
 20.47     551.00      23.47
 20.57     492.00      22.18
 20.67     520.00      22.80
 20.77     492.00      22.18
 20.87     581.36      24.11
 20.97     575.75      23.99
 21.07     541.78      23.28
 21.17     538.17      23.20
 21.27     553.00      23.52
 21.37     513.88      22.67
 21.47     527.00      22.96
 21.57     589.14      24.27
 21.67     527.11      22.96
 21.77     532.00      23.07
 21.87     504.00      22.45
 21.97     553.00      23.52
 22.07     564.00      23.75
 22.17     575.00      23.98
 22.27     569.04      23.85
 22.37     539.00      23.22
 22.47     543.00      23.30
 22.57     551.00      23.47
 22.67     542.00      23.28
 22.77     556.00      23.58
 22.87     548.72      23.42
 22.97     549.61      23.44
 23.07     547.00      23.39
 23.17     572.00      23.92
 23.27     532.71      23.08
 23.37     527.07      22.96
 23.47     518.23      22.76
 23.57     582.27      24.13
 23.67     561.00      23.69
 23.77     553.00      23.52
 23.87     532.00      23.07
 23.97     585.52      24.20
 24.07     509.33      22.57
 24.17     546.50      23.38
 24.27     589.83      24.29
 24.37     574.00      23.96
 24.47     559.29      23.65
 24.57     640.00      25.30
 24.67     608.94      24.68
 24.77     621.00      24.92
 24.87     588.34      24.26
 24.97     643.05      25.36
 25.07     558.98      23.64
 25.17     525.76      22.93
 25.27     533.26      23.09
 25.37     556.00      23.58
 25.47     560.84      23.68
 25.57     580.00      24.08
 25.67     546.71      23.38
 25.77     511.00      22.61
 25.87     557.00      23.60
 25.97     523.87      22.89
 26.07     559.00      23.64
 26.17     513.00      22.65
 26.27     562.58      23.72
 26.37     583.00      24.15
 26.47     576.00      24.00
 26.57     550.00      23.45
 26.67     555.00      23.56
 26.77     539.46      23.23
 26.87     577.34      24.03
 26.97     553.00      23.52
 27.07     559.24      23.65
 27.17     535.00      23.13
 27.27     573.77      23.95
 27.37     559.00      23.64
 27.47     563.82      23.74
 27.57     522.00      22.85
 27.67     570.00      23.87
 27.77     615.00      24.80
 27.87     635.00      25.20
 27.97     687.25      26.22
 28.07     750.48      27.39
 28.17     850.73      29.17
 28.27     927.03      30.45
 28.37     919.00      30.32
 28.47     774.00      27.82
 28.57     654.25      25.58
 28.67     700.83      26.47
 28.77     692.25      26.31
 28.87     814.00      28.53
 28.97     805.00      28.37
 29.07     843.65      29.05
 29.17     735.35      27.12
 29.27     643.00      25.36
 29.37     558.00      23.62
 29.47     572.00      23.92
 29.57     592.63      24.34
 29.67     575.00      23.98
 29.77     556.00      23.58
 29.87     545.06      23.35
 29.97     583.00      24.15
 30.07     537.00      23.17
 30.17     607.00      24.64
 30.27     551.00      23.47
 30.37     607.00      24.64
 30.47     537.00      23.17
 30.57     554.37      23.55
 30.67     555.00      23.56
 30.77     600.00      24.49
 30.87     658.00      25.65
 30.97     615.05      24.80
 31.07     583.00      24.15
 31.17     562.00      23.71
 31.27     566.00      23.79
 31.37     547.00      23.39
 31.47     546.36      23.37
 31.57     541.20      23.26
 31.67     519.31      22.79
 31.77     551.00      23.47
 31.87     536.43      23.16
 31.97     548.98      23.43
 32.07     528.00      22.98
 32.17     513.00      22.65
 32.27     502.20      22.41
 32.37     485.76      22.04
 32.47     577.00      24.02
 32.57     541.00      23.26
 32.67     543.36      23.31
 32.77     563.00      23.73
 32.87     491.98      22.18
 32.97     545.15      23.35
 33.07     560.00      23.66
 33.17     576.41      24.01
 33.27     572.00      23.92
 33.37     544.05      23.32
 33.47     545.86      23.36
 33.57     638.00      25.26
 33.67     679.58      26.07
 33.77     690.95      26.29
 33.87     916.58      30.28
 33.97    1001.00      31.64
 34.07    1075.00      32.79
 34.17    1001.00      31.64
 34.27     841.20      29.00
 34.37     761.00      27.59
 34.47     644.00      25.38
 34.57     540.00      23.24
 34.67     571.00      23.90
 34.77     557.00      23.60
 34.87     558.89      23.64
 34.97     540.00      23.24
 35.07     486.00      22.05
 35.17     538.00      23.19
 35.27     477.00      21.84
 35.37     546.00      23.37
 35.47     530.00      23.02
 35.57     527.00      22.96
 35.67     510.99      22.60
 35.77     490.24      22.14
 35.87     536.00      23.15
 35.97     504.79      22.47
 36.07     528.00      22.98
 36.17     522.00      22.85
 36.27     495.00      22.25
 36.37     498.00      22.32
 36.47     542.96      23.30
 36.57     505.00      22.47
 36.67     517.00      22.74
 36.77     549.46      23.44
 36.87     512.00      22.63
 36.97     519.00      22.78
 37.07     528.22      22.98
 37.17     529.00      23.00
 37.27     524.43      22.90
 37.37     526.00      22.93
 37.47     566.35      23.80
 37.57     550.00      23.45
 37.67     507.09      22.52
 37.77     490.95      22.16
 37.87     512.00      22.63
 37.97     514.00      22.67
 38.07     492.00      22.18
 38.17     480.00      21.91
 38.27     533.00      23.09
 38.37     492.00      22.18
 38.47     502.36      22.41
 38.57     496.00      22.27
 38.67     528.00      22.98
 38.77     489.00      22.11
 38.87     522.00      22.85
 38.97     546.41      23.38
 39.07     500.00      22.36
 39.17     507.01      22.52
 39.27     546.00      23.37
 39.37     471.12      21.71
 39.47     497.55      22.31
 39.57     454.00      21.31
 39.67     548.00      23.41
 39.77     481.74      21.95
 39.87     516.00      22.72
 39.97     490.00      22.14
 40.07     495.47      22.26
 40.17     529.13      23.00
 40.27     542.00      23.28
 40.37     510.00      22.58
 40.47     525.68      22.93
 40.57     519.26      22.79
 40.67     530.00      23.02
 40.77     542.69      23.30
 40.87     476.00      21.82
 40.97     468.56      21.65
 41.07     502.00      22.41
 41.17     492.00      22.18
 41.27     474.48      21.78
 41.37     489.24      22.12
 41.47     477.86      21.86
 41.57     460.00      21.45
 41.67     501.57      22.40
 41.77     519.00      22.78
 41.87     517.96      22.76
 41.97     508.00      22.54
 42.07     488.22      22.10
 42.17     497.00      22.29
 42.27     533.00      23.09
 42.37     529.00      23.00
 42.47     545.19      23.35
 42.57     602.22      24.54
 42.67     598.00      24.45
 42.77     627.00      25.04
 42.87     537.00      23.17
 42.97     540.94      23.26
 43.07     520.00      22.80
 43.17     533.00      23.09
 43.27     497.00      22.29
 43.37     527.00      22.96
 43.47     506.00      22.49
 43.57     480.42      21.92
 43.67     541.00      23.26
 43.77     503.00      22.43
 43.87     484.75      22.02
 43.97     546.83      23.38
 44.07     515.00      22.69
 44.17     523.00      22.87
 44.27     479.27      21.89
 44.37     468.51      21.65
 44.47     534.00      23.11
 44.57     549.00      23.43
 44.67     505.00      22.47
 44.77     505.00      22.47
 44.87     529.00      23.00
 44.97     517.10      22.74
 45.07     480.00      21.91
 45.17     530.29      23.03
 45.27     539.00      23.22
 45.37     527.00      22.96
 45.47     490.00      22.14
 45.57     544.02      23.32
 45.67     488.90      22.11
 45.77     498.51      22.33
 45.87     503.12      22.43
 45.97     497.00      22.29
 46.07     487.00      22.07
 46.17     520.98      22.82
 46.27     532.26      23.07
 46.37     515.05      22.69
 46.47     521.00      22.83
 46.57     533.00      23.09
 46.67     541.00      23.26
 46.77     534.91      23.13
 46.87     495.94      22.27
 46.97     587.00      24.23
 47.07     519.00      22.78
 47.17     516.00      22.72
 47.27     505.00      22.47
 47.37     526.00      22.93
 47.47     543.00      23.30
 47.57     557.00      23.60
 47.67     553.00      23.52
 47.77     617.12      24.84
 47.87     582.00      24.12
 47.97     600.00      24.49
 48.07     573.00      23.94
 48.17     609.76      24.69
 48.27     571.00      23.90
 48.37     546.00      23.37
 48.47     538.00      23.19
 48.57     551.00      23.47
 48.67     572.61      23.93
 48.77     581.06      24.11
 48.87     524.00      22.89
 48.97     513.88      22.67
 49.07     523.00      22.87
 49.17     609.70      24.69
 49.27     563.00      23.73
 49.37     583.00      24.15
 49.47     685.29      26.18
 49.57     680.21      26.08
 49.67     856.00      29.26
 49.77    1143.00      33.81
 49.87    1448.00      38.05
 49.97    1869.00      43.23
 50.07    2269.00      47.63
 50.17    2504.23      50.04
 50.27    2465.00      49.65
 50.37    2242.75      47.36
 50.47    1883.38      43.40
 50.57    1353.00      36.78
 50.67    1064.44      32.63
 50.77     852.00      29.19
 50.87     727.00      26.96
 50.97     678.00      26.04
 51.07     604.00      24.58
 51.17     605.00      24.60
 51.27     599.00      24.47
 51.37     610.00      24.70
 51.47     585.43      24.20
 51.57     590.00      24.29
 51.67     568.98      23.85
 51.77     567.51      23.82
 51.87     562.00      23.71
 51.97     572.59      23.93
 52.07     574.74      23.97
 52.17     554.00      23.54
 52.27     560.00      23.66
 52.37     573.57      23.95
 52.47     581.00      24.10
 52.57     600.00      24.49
 52.67     594.00      24.37
 52.77     618.00      24.86
 52.87     659.40      25.68
 52.97     732.00      27.06
 53.07     837.00      28.93
 53.17     887.00      29.78
 53.27    1092.00      33.05
 53.37    1145.00      33.84
 53.47    1224.41      34.99
 53.57    1160.00      34.06
 53.67    1065.85      32.65
 53.77     946.00      30.76
 53.87     922.36      30.37
 53.97     775.00      27.84
 54.07     658.00      25.65
 54.17     647.52      25.45
 54.27     571.12      23.90
 54.37     603.00      24.56
 54.47     561.00      23.69
 54.57     582.00      24.12
 54.67     556.96      23.60
 54.77     580.00      24.08
 54.87     587.00      24.23
 54.97     573.00      23.94
 55.07     560.00      23.66
 55.17     541.51      23.27
 55.27     601.67      24.53
 55.37     541.00      23.26
 55.47     579.00      24.06
 55.57     563.77      23.74
 55.67     590.00      24.29
 55.77     590.22      24.29
 55.87     598.00      24.45
 55.97     614.00      24.78
 56.07     650.00      25.50
 56.17     779.70      27.92
 56.27     884.85      29.75
 56.37    1179.00      34.34
 56.47    1426.69      37.77
 56.57    1795.00      42.37
 56.67    2274.14      47.69
 56.77    2404.00      49.03
 56.87    2591.00      50.90
 56.97    2582.00      50.81
 57.07    2258.00      47.52
 57.17    1992.86      44.64
 57.27    1652.00      40.64
 57.37    1257.00      35.45
 57.47    1099.01      33.15
 57.57     872.00      29.53
 57.67     806.00      28.39
 57.77     697.00      26.40
 57.87     702.00      26.50
 57.97     688.00      26.23
 58.07     688.00      26.23
 58.17     726.00      26.94
 58.27     765.00      27.66
 58.37     856.75      29.27
 58.47     948.00      30.79
 58.57    1013.00      31.83
 58.67    1116.00      33.41
 58.77    1285.00      35.85
 58.87    1299.90      36.05
 58.97    1417.00      37.64
 59.07    1403.47      37.46
 59.17    1397.00      37.38
 59.27    1435.00      37.88
 59.37    1262.79      35.54
 59.47    1165.06      34.13
 59.57    1244.00      35.27
 59.67    1150.00      33.91
 59.77    1177.56      34.32
 59.87    1243.00      35.26
 59.97    1378.00      37.12
 60.07    1453.00      38.12
 60.17    1446.00      38.03
 60.27    1565.00      39.56
 60.37    1557.23      39.46
 60.47    1433.00      37.85
 60.57    1220.00      34.93
 60.67    1035.00      32.17
 60.77     868.87      29.48
 60.87     807.41      28.41
 60.97     692.00      26.31
 61.07     631.00      25.12
 61.17     695.00      26.36
 61.27     669.00      25.87
 61.37     686.00      26.19
 61.47     694.89      26.36
 61.57     746.00      27.31
 61.67     845.00      29.07
 61.77     955.92      30.92
 61.87    1145.63      33.85
 61.97    1251.31      35.37
 62.07    1357.00      36.84
 62.17    1389.50      37.28
 62.27    1350.45      36.75
 62.37    1400.83      37.43
 62.47    1152.51      33.95
 62.57    1057.00      32.51
 62.67     891.00      29.85
 62.77     762.30      27.61
 62.87     708.32      26.61
 62.97     606.95      24.64
 63.07     618.00      24.86
 63.17     562.00      23.71
 63.27     563.19      23.73
 63.37     563.00      23.73
 63.47     636.00      25.22
 63.57     604.00      24.58
 63.67     598.00      24.45
 63.77     600.00      24.49
 63.87     670.00      25.88
 63.97     711.00      26.66
 64.07     696.00      26.38
 64.17     785.00      28.02
 64.27     836.00      28.91
 64.37     922.00      30.36
 64.47     959.00      30.97
 64.57    1066.00      32.65
 64.67    1044.00      32.31
 64.77    1026.00      32.03
 64.87    1015.08      31.86
 64.97     943.82      30.72
 65.07     878.51      29.64
 65.17     841.33      29.01
 65.27     742.00      27.24
 65.37     651.00      25.51
 65.47     683.00      26.13
 65.57     590.00      24.29
 65.67     586.00      24.21
 65.77     546.00      23.37
 65.87     603.05      24.56
 65.97     591.03      24.31
 66.07     527.00      22.96
 66.17     543.00      23.30
 66.27     509.00      22.56
 66.37     587.32      24.23
 66.47     561.00      23.69
 66.57     555.00      23.56
 66.67     592.18      24.33
 66.77     584.62      24.18
 66.87     633.95      25.18
 66.97     650.26      25.50
 67.07     697.34      26.41
 67.17     662.00      25.73
 67.27     830.04      28.81
 67.37     944.00      30.72
 67.47    1110.00      33.32
 67.57    1266.40      35.59
 67.67    1638.00      40.47
 67.77    1755.00      41.89
 67.87    2094.00      45.76
 67.97    2186.95      46.76
 68.07    2384.00      48.83
 68.17    2447.00      49.47
 68.27    2210.26      47.01
 68.37    2020.00      44.94
 68.47    1749.00      41.82
 68.57    1555.42      39.44
 68.67    1282.00      35.81
 68.77     986.00      31.40
 68.87     906.76      30.11
 68.97     792.00      28.14
 69.07     714.00      26.72
 69.17     657.00      25.63
 69.27     674.00      25.96
 69.37     583.62      24.16
 69.47     579.00      24.06
 69.57     569.00      23.85
 69.67     603.00      24.56
 69.77     586.00      24.21
 69.87     581.00      24.10
 69.97     596.00      24.41
 70.07     563.00      23.73
 70.17     601.00      24.52
 70.27     532.00      23.07
 70.37     565.93      23.79
 70.47     532.90      23.08
 70.57     546.51      23.38
 70.67     571.32      23.90
 70.77     628.00      25.06
 70.87     594.00      24.37
 70.97     613.36      24.77
 71.07     689.00      26.25
 71.17     727.91      26.98
 71.27     858.00      29.29
 71.37     982.20      31.34
 71.47    1161.00      34.07
 71.57    1266.00      35.58
 71.67    1417.00      37.64
 71.77    1568.69      39.61
 71.87    1808.00      42.52
 71.97    1878.00      43.34
 72.07    1902.71      43.62
 72.17    1912.00      43.73
 72.27    1740.12      41.71
 72.37    1655.75      40.69
 72.47    1533.00      39.15
 72.57    1339.32      36.60
 72.67    1089.55      33.01
 72.77     985.00      31.38
 72.87     887.00      29.78
 72.97     865.58      29.42
 73.07     749.24      27.37
 73.17     705.00      26.55
 73.27     672.00      25.92
 73.37     672.96      25.94
 73.47     639.98      25.30
 73.57     615.00      24.80
 73.67     624.00      24.98
 73.77     558.00      23.62
 73.87     622.23      24.94
 73.97     633.00      25.16
 74.07     553.26      23.52
 74.17     565.00      23.77
 74.27     538.63      23.21
 74.37     624.00      24.98
 74.47     615.68      24.81
 74.57     607.65      24.65
 74.67     637.00      25.24
 74.77     646.00      25.42
 74.87     586.42      24.22
 74.97     583.98      24.17
 75.07     608.00      24.66
 75.17     589.00      24.27
 75.27     587.00      24.23
 75.37     567.00      23.81
 75.47     566.77      23.81
 75.57     528.42      22.99
 75.67     556.00      23.58
 75.77     566.00      23.79
 75.87     610.25      24.70
 75.97     592.00      24.33
 76.07     621.00      24.92
 76.17     606.95      24.64
 76.27     744.00      27.28
 76.37     712.00      26.68
 76.47     745.80      27.31
 76.57     651.00      25.51
 76.67     724.00      26.91
 76.77     705.00      26.55
 76.87     722.00      26.87
 76.97     669.73      25.88
 77.07     612.00      24.74
 77.17     559.00      23.64
 77.27     592.00      24.33
 77.37     527.00      22.96
 77.47     601.89      24.53
 77.57     545.00      23.35
 77.67     544.00      23.32
 77.77     539.12      23.22
 77.87     535.00      23.13
 77.97     546.93      23.39
 78.07     494.00      22.23
 78.17     522.00      22.85
 78.27     513.00      22.65
 78.37     515.00      22.69
 78.47     538.02      23.20
 78.57     491.00      22.16
 78.67     537.76      23.19
 78.77     526.00      22.93
 78.87     541.00      23.26
 78.97     521.15      22.83
 79.07     544.39      23.33
 79.17     526.43      22.94
 79.27     527.00      22.96
 79.37     529.00      23.00
 79.47     500.07      22.36
 79.57     485.00      22.02
 79.67     521.03      22.83
 79.77     557.00      23.60
 79.87     588.39      24.26
 79.97     533.00      23.09
 80.07     597.41      24.44
 80.17     514.00      22.67
 80.27     545.00      23.35
 80.37     599.00      24.47
 80.47     589.00      24.27
 80.57     576.29      24.01
 80.67     631.00      25.12
 80.77     650.13      25.50
 80.87     705.00      26.55
 80.97     727.41      26.97
 81.07     753.01      27.44
 81.17     754.00      27.46
 81.27     731.00      27.04
 81.37     746.39      27.32
 81.47     717.00      26.78
 81.57     733.00      27.07
 81.67     738.00      27.17
 81.77     703.16      26.52
 81.87     751.16      27.41
 81.97     680.10      26.08
 82.07     667.00      25.83
 82.17     643.59      25.37
 82.27     603.00      24.56
 82.37     581.00      24.10
 82.47     624.30      24.99
 82.57     586.00      24.21
 82.67     558.00      23.62
 82.77     562.00      23.71
 82.87     584.47      24.18
 82.97     544.21      23.33
 83.07     533.00      23.09
 83.17     543.00      23.30
 83.27     584.00      24.17
 83.37     560.00      23.66
 83.47     553.81      23.53
 83.57     531.00      23.04
 83.67     551.00      23.47
 83.77     520.00      22.80
 83.87     596.00      24.41
 83.97     542.00      23.28
 84.07     637.00      25.24
 84.17     605.00      24.60
 84.27     537.00      23.17
 84.37     600.55      24.51
 84.47     533.87      23.11
 84.57     537.00      23.17
 84.67     545.57      23.36
 84.77     523.00      22.87
 84.87     522.00      22.85
 84.97     548.00      23.41
 85.07     521.08      22.83
 85.17     544.10      23.33
 85.27     548.00      23.41
 85.37     531.00      23.04
 85.47     546.00      23.37
 85.57     520.53      22.82
 85.67     532.07      23.07
 85.77     541.00      23.26
 85.87     554.00      23.54
 85.97     510.68      22.60
 86.07     547.00      23.39
 86.17     575.00      23.98
 86.27     533.12      23.09
 86.37     530.00      23.02
 86.47     592.00      24.33
 86.57     557.00      23.60
 86.67     574.00      23.96
 86.77     559.00      23.64
 86.87     566.00      23.79
 86.97     635.15      25.20
 87.07     631.36      25.13
 87.17     649.00      25.48
 87.27     621.00      24.92
 87.37     656.00      25.61
 87.47     619.00      24.88
 87.57     665.14      25.79
 87.67     601.93      24.53
 87.77     678.00      26.04
 87.87     606.00      24.62
 87.97     616.00      24.82
 88.07     627.00      25.04
 88.17     603.00      24.56
 88.27     613.00      24.76
 88.37     559.00      23.64
 88.47     613.00      24.76
 88.57     562.00      23.71
 88.67     589.00      24.27
 88.77     576.00      24.00
 88.87     590.00      24.29
 88.97     598.00      24.45
 89.07     613.00      24.76
 89.17     606.11      24.62
 89.27     640.00      25.30
 89.37     561.00      23.69
 89.47     582.52      24.14
 89.57     623.91      24.98
 89.67     577.69      24.04
 89.77     561.54      23.70
 89.87     536.00      23.15
 89.97     583.11      24.15
 90.07     570.00      23.87
 90.17     530.00      23.02
 90.27     521.54      22.84
 90.37     533.00      23.09
 90.47     571.00      23.90
 90.57     533.00      23.09
 90.67     537.00      23.17
 90.77     559.00      23.64
 90.87     503.00      22.43
 90.97     518.00      22.76
 91.07     555.00      23.56
 91.17     565.79      23.79
 91.27     501.00      22.38
 91.37     520.00      22.80
 91.47     549.00      23.43
 91.57     526.68      22.95
 91.67     522.00      22.85
 91.77     528.42      22.99
 91.87     541.00      23.26
 91.97     570.00      23.87
 92.07     538.62      23.21
 92.17     599.00      24.47
 92.27     552.00      23.49
 92.37     586.00      24.21
 92.47     616.00      24.82
 92.57     642.00      25.34
 92.67     634.00      25.18
 92.77     689.00      26.25
 92.87     734.33      27.10
 92.97     728.00      26.98
 93.07     739.00      27.18
 93.17     707.00      26.59
 93.27     799.00      28.27
 93.37     749.00      27.37
 93.47     851.00      29.17
 93.57     830.00      28.81
 93.67     838.00      28.95
 93.77     832.00      28.84
 93.87     826.00      28.74
 93.97     846.99      29.10
 94.07     781.29      27.95
 94.17     835.20      28.90
 94.27     811.85      28.49
 94.37     872.48      29.54
 94.47     876.00      29.60
 94.57     944.00      30.72
 94.67     969.00      31.13
 94.77     919.00      30.32
 94.87     866.00      29.43
 94.97     896.00      29.93
 95.07     857.00      29.27
 95.17     857.43      29.28
 95.27     891.00      29.85
 95.37     743.07      27.26
 95.47     819.00      28.62
 95.57     741.44      27.23
 95.67     752.00      27.42
 95.77     696.00      26.38
 95.87     714.00      26.72
 95.97     706.00      26.57
 96.07     669.20      25.87
 96.17     725.00      26.93
 96.27     752.00      27.42
 96.37     800.00      28.28
 96.47     768.14      27.72
 96.57     811.00      28.48
 96.67     956.00      30.92
 96.77     970.00      31.14
 96.87    1019.39      31.93
 96.97    1128.00      33.59
 97.07    1233.00      35.11
 97.17    1321.47      36.35
 97.27    1380.00      37.15
 97.37    1384.00      37.20
 97.47    1428.13      37.79
 97.57    1497.00      38.69
 97.67    1490.55      38.61
 97.77    1412.22      37.58
 97.87    1457.00      38.17
 97.97    1238.16      35.19
 98.07    1213.00      34.83
 98.17    1147.00      33.87
 98.27    1071.00      32.73
 98.37    1077.03      32.82
 98.47    1010.61      31.79
 98.57     891.00      29.85
 98.67     789.00      28.09
 98.77     831.00      28.83
 98.87     826.00      28.74
 98.97     847.00      29.10
 99.07     864.82      29.41
 99.17     868.00      29.46
 99.27     859.58      29.32
 99.37     928.00      30.46
 99.47    1037.00      32.20
 99.57    1133.00      33.66
 99.67    1187.00      34.45
 99.77    1339.00      36.59
 99.87    1366.88      36.97
 99.97    1527.00      39.08
100.07    1602.36      40.03
100.17    1811.28      42.56
100.27    1807.52      42.51
100.37    1908.00      43.68
100.47    2008.00      44.81
100.57    1945.74      44.11
100.67    1970.52      44.39
100.77    2068.13      45.48
100.87    1988.00      44.59
100.97    1955.00      44.22
101.07    1903.00      43.62
101.17    1854.00      43.06
101.27    1812.41      42.57
101.37    1681.00      41.00
101.47    1610.40      40.13
101.57    1435.00      37.88
101.67    1443.00      37.99
101.77    1396.85      37.37
101.87    1283.00      35.82
101.97    1209.34      34.78
102.07    1222.00      34.96
102.17    1215.19      34.86
102.27    1174.00      34.26
102.37    1122.00      33.50
102.47    1117.00      33.42
102.57    1038.00      32.22
102.67    1025.00      32.02
102.77    1051.00      32.42
102.87    1058.00      32.53
102.97     999.00      31.61
103.07     878.50      29.64
103.17     881.00      29.68
103.27     865.60      29.42
103.37     786.00      28.04
103.47     758.55      27.54
103.57     755.00      27.48
103.67     700.00      26.46
103.77     688.16      26.23
103.87     621.35      24.93
103.97     627.24      25.04
104.07     645.67      25.41
104.17     580.00      24.08
104.27     594.00      24.37
104.37     544.70      23.34
104.47     575.07      23.98
104.57     510.11      22.59
104.67     567.00      23.81
104.77     528.00      22.98
104.87     556.81      23.60
104.97     498.00      22.32
105.07     553.00      23.52
105.17     519.24      22.79
105.27     541.00      23.26
105.37     583.00      24.15
105.47     528.00      22.98
105.57     498.11      22.32
105.67     527.05      22.96
105.77     539.00      23.22
105.87     531.65      23.06
105.97     538.52      23.21
106.07     569.00      23.85
106.17     594.00      24.37
106.27     593.00      24.35
106.37     630.91      25.12
106.47     588.00      24.25
106.57     584.04      24.17
106.67     611.24      24.72
106.77     648.54      25.47
106.87     635.00      25.20
106.97     689.00      26.25
107.07     730.05      27.02
107.17     684.00      26.15
107.27     692.00      26.31
107.37     729.53      27.01
107.47     688.00      26.23
107.57     642.00      25.34
107.67     649.00      25.48
107.77     709.41      26.63
107.87     667.48      25.84
107.97     689.00      26.25
108.07     717.00      26.78
108.17     653.55      25.56
108.27     647.31      25.44
108.37     723.28      26.89
108.47     708.00      26.61
108.57     721.00      26.85
108.67     784.00      28.00
108.77     680.78      26.09
108.87     728.00      26.98
108.97     720.00      26.83
109.07     689.00      26.25
109.17     641.00      25.32
109.27     643.00      25.36
109.37     670.54      25.89
109.47     634.00      25.18
109.57     642.00      25.34
109.67     646.00      25.42
109.77     645.00      25.40
109.87     639.00      25.28
109.97     589.82      24.29
110.07     584.00      24.17
110.17     538.70      23.21
110.27     523.17      22.87
110.37     562.00      23.71
110.47     545.00      23.35
110.57     527.00      22.96
110.67     526.50      22.95
110.77     504.86      22.47
110.87     545.00      23.35
110.97     492.34      22.19
111.07     531.00      23.04
111.17     574.00      23.96
111.27     556.00      23.58
111.37     519.79      22.80
111.47     614.00      24.78
111.57     576.00      24.00
111.67     525.00      22.91
111.77     530.00      23.02
111.87     579.00      24.06
111.97     556.00      23.58
112.07     524.00      22.89
112.17     541.00      23.26
112.27     533.00      23.09
112.37     597.00      24.43
112.47     619.16      24.88
112.57     547.00      23.39
112.67     558.00      23.62
112.77     637.00      25.24
112.87     618.00      24.86
112.97     598.00      24.45
113.07     672.00      25.92
113.17     643.01      25.36
113.27     690.00      26.27
113.37     756.69      27.51
113.47     704.00      26.53
113.57     784.56      28.01
113.67     733.00      27.07
113.77     807.00      28.41
113.87     883.95      29.73
113.97     934.00      30.56
114.07     892.00      29.87
114.17     976.00      31.24
114.27    1024.00      32.00
114.37    1140.82      33.78
114.47    1271.00      35.65
114.57    1417.00      37.64
114.67    1485.54      38.54
114.77    1619.71      40.25
114.87    1937.00      44.01
114.97    2135.00      46.21
115.07    2275.74      47.70
115.17    2418.94      49.18
115.27    2828.36      53.18
115.37    3097.00      55.65
115.47    3423.04      58.51
115.57    3899.00      62.44
115.67    4145.00      64.38
115.77    4631.14      68.05
115.87    4880.13      69.86
115.97    5247.00      72.44
116.07    5487.25      74.08
116.17    6094.00      78.06
116.27    6281.29      79.25
116.37    6517.00      80.73
116.47    6829.00      82.64
116.57    6902.00      83.08
116.67    6813.19      82.54
116.77    6840.45      82.71
116.87    6669.00      81.66
116.97    6453.14      80.33
117.07    6310.00      79.44
117.17    5925.00      76.97
117.27    5502.00      74.18
117.37    5056.00      71.11
117.47    4840.00      69.57
117.57    4518.00      67.22
117.67    4228.00      65.02
117.77    3884.00      62.32
117.87    3586.00      59.88
117.97    3151.00      56.13
118.07    2888.05      53.74
118.17    2451.00      49.51
118.27    2196.07      46.86
118.37    2011.00      44.84
118.47    1858.65      43.11
118.57    1512.00      38.88
118.67    1474.00      38.39
118.77    1254.00      35.41
118.87    1165.00      34.13
118.97    1049.00      32.39
119.07     973.06      31.19
119.17     911.00      30.18
119.27     827.00      28.76
119.37     785.00      28.02
119.47     770.00      27.75
119.57     753.57      27.45
119.67     656.09      25.61
119.77     630.00      25.10
119.87     599.00      24.47
119.97     602.30      24.54
120.07     629.28      25.09
120.17     592.23      24.34
120.27     618.19      24.86
120.37     561.00      23.69
120.47     549.12      23.43
120.57     584.00      24.17
120.67     580.00      24.08
120.77     613.83      24.78
120.87     606.00      24.62
120.97     574.00      23.96
121.07     557.00      23.60
121.17     577.45      24.03
121.27     592.00      24.33
121.37     571.69      23.91
121.47     582.00      24.12
121.57     580.00      24.08
121.67     613.00      24.76
121.77     563.00      23.73
121.87     612.00      24.74
121.97     616.00      24.82
122.07     632.00      25.14
122.17     608.00      24.66
122.27     575.04      23.98
122.37     665.75      25.80
122.47     655.25      25.60
122.57     612.00      24.74
122.67     657.00      25.63
122.77     649.00      25.48
122.87     592.80      24.35
122.97     637.00      25.24
123.07     610.39      24.71
123.17     666.05      25.81
123.27     645.81      25.41
123.37     665.00      25.79
123.47     615.85      24.82
123.57     674.27      25.97
123.67     654.00      25.57
123.77     633.41      25.17
123.87     643.00      25.36
123.97     675.00      25.98
124.07     572.53      23.93
124.17     586.27      24.21
124.27     643.00      25.36
124.37     591.00      24.31
124.47     647.00      25.44
124.57     555.93      23.58
124.67     562.11      23.71
124.77     570.00      23.87
124.87     603.00      24.56
124.97     590.00      24.29
