  9.97     574.00      23.96
 10.07     561.00      23.69
 10.17     627.00      25.04
 10.27     591.00      24.31
 10.37     557.99      23.62
 10.47     575.79      24.00
 10.57     612.00      24.74
 10.67     615.00      24.80
 10.77     594.00      24.37
 10.87     581.00      24.10
 10.97     602.00      24.54
 11.07     598.00      24.45
 11.17     620.00      24.90
 11.27     589.00      24.27
 11.37     579.00      24.06
 11.47     608.69      24.67
 11.57     565.00      23.77
 11.67     565.32      23.78
 11.77     553.62      23.53
 11.87     606.00      24.62
 11.97     683.00      26.13
 12.07     682.00      26.12
 12.17     703.00      26.51
 12.27     671.00      25.90
 12.37     683.87      26.15
 12.47     685.51      26.18
 12.57     569.85      23.87
 12.67     561.00      23.69
 12.77     598.79      24.47
 12.87     561.00      23.69
 12.97     550.00      23.45
 13.07     583.00      24.15
 13.17     563.00      23.73
 13.27     546.38      23.37
 13.37     541.00      23.26
 13.47     544.72      23.34
 13.57     585.00      24.19
 13.67     599.80      24.49
 13.77     567.00      23.81
 13.87     576.77      24.02
 13.97     578.68      24.06
 14.07     579.68      24.08
 14.17     583.69      24.16
 14.27     604.20      24.58
 14.37     607.15      24.64
 14.47     557.00      23.60
 14.57     556.00      23.58
 14.67     570.00      23.87
 14.77     568.56      23.84
 14.87     552.77      23.51
 14.97     585.00      24.19
 15.07     552.44      23.50
 15.17     556.00      23.58
 15.27     563.00      23.73
 15.37     599.00      24.47
 15.47     543.00      23.30
 15.57     510.00      22.58
 15.67     557.05      23.60
 15.77     551.00      23.47
 15.87     580.00      24.08
 15.97     592.91      24.35
 16.07     570.00      23.87
 16.17     590.00      24.29
 16.27     527.76      22.97
 16.37     553.00      23.52
 16.47     567.00      23.81
 16.57     562.00      23.71
 16.67     550.00      23.45
 16.77     562.00      23.71
 16.87     580.49      24.09
 16.97     567.00      23.81
 17.07     552.00      23.49
 17.17     553.74      23.53
 17.27     532.00      23.07
 17.37     548.00      23.41
 17.47     588.04      24.25
 17.57     547.00      23.39
 17.67     548.38      23.42
 17.77     571.00      23.90
 17.87     580.85      24.10
 17.97     529.00      23.00
 18.07     507.00      22.52
 18.17     554.00      23.54
 18.27     555.70      23.57
 18.37     605.14      24.60
 18.47     568.84      23.85
 18.57     593.00      24.35
 18.67     560.73      23.68
 18.77     504.00      22.45
 18.87     543.00      23.30
 18.97     566.00      23.79
 19.07     577.50      24.03
 19.17     587.00      24.23
 19.27     491.00      22.16
 19.37     593.46      24.36
 19.47     558.00      23.62
 19.57     586.10      24.21
 19.67     605.00      24.60
 19.77     558.33      23.63
 19.87     563.00      23.73
 19.97     594.50      24.38
 20.07     564.00      23.75
 20.17     549.00      23.43
 20.27     531.00      23.04
 20.37     556.14      23.58
 20.47     543.00      23.30
 20.57     535.47      23.14
 20.67     549.00      23.43
 20.77     542.00      23.28
 20.87     551.00      23.47
 20.97     518.00      22.76
 21.07     582.00      24.12
 21.17     518.43      22.77
 21.27     539.53      23.23
 21.37     591.00      24.31
 21.47     572.00      23.92
 21.57     578.00      24.04
 21.67     561.00      23.69
 21.77     563.00      23.73
 21.87     577.00      24.02
 21.97     532.70      23.08
 22.07     513.00      22.65
 22.17     582.22      24.13
 22.27     552.00      23.49
 22.37     539.13      23.22
 22.47     568.00      23.83
 22.57     543.40      23.31
 22.67     574.00      23.96
 22.77     578.50      24.05
 22.87     562.00      23.71
 22.97     585.55      24.20
 23.07     541.00      23.26
 23.17     584.00      24.17
 23.27     551.00      23.47
 23.37     568.88      23.85
 23.47     556.00      23.58
 23.57     548.00      23.41
 23.67     518.00      22.76
 23.77     580.00      24.08
 23.87     579.71      24.08
 23.97     558.12      23.62
 24.07     577.73      24.04
 24.17     570.00      23.87
 24.27     535.32      23.14
 24.37     566.00      23.79
 24.47     622.00      24.94
 24.57     601.00      24.52
 24.67     583.23      24.15
 24.77     615.00      24.80
 24.87     633.00      25.16
 24.97     612.00      24.74
 25.07     555.00      23.56
 25.17     596.00      24.41
 25.27     541.89      23.28
 25.37     571.00      23.90
 25.47     577.00      24.02
 25.57     546.00      23.37
 25.67     560.00      23.66
 25.77     522.61      22.86
 25.87     537.01      23.17
 25.97     531.00      23.04
 26.07     525.00      22.91
 26.17     590.00      24.29
 26.27     566.69      23.81
 26.37     534.67      23.12
 26.47     590.00      24.29
 26.57     513.77      22.67
 26.67     538.00      23.19
 26.77     545.00      23.35
 26.87     545.00      23.35
 26.97     604.00      24.58
 27.07     525.02      22.91
 27.17     562.00      23.71
 27.27     598.00      24.45
 27.37     589.00      24.27
 27.47     571.00      23.90
 27.57     563.00      23.73
 27.67     583.99      24.17
 27.77     535.87      23.15
 27.87     596.00      24.41
 27.97     648.67      25.47
 28.07     815.79      28.56
 28.17     927.36      30.45
 28.27     928.00      30.46
 28.37     899.00      29.98
 28.47     815.09      28.55
 28.57     710.00      26.65
 28.67     737.41      27.16
 28.77     728.00      26.98
 28.87     795.00      28.20
 28.97     811.10      28.48
 29.07     854.19      29.23
 29.17     710.00      26.65
 29.27     597.00      24.43
 29.37     566.00      23.79
 29.47     618.00      24.86
 29.57     557.07      23.60
 29.67     639.00      25.28
 29.77     603.82      24.57
 29.87     573.00      23.94
 29.97     564.00      23.75
 30.07     522.15      22.85
 30.17     578.00      24.04
 30.27     611.00      24.72
 30.37     589.00      24.27
 30.47     622.00      24.94
 30.57     554.00      23.54
 30.67     580.00      24.08
 30.77     581.00      24.10
 30.87     645.35      25.40
 30.97     639.17      25.28
 31.07     659.00      25.67
 31.17     625.00      25.00
 31.27     542.00      23.28
 31.37     584.00      24.17
 31.47     548.09      23.41
 31.57     571.00      23.90
 31.67     523.78      22.89
 31.77     542.00      23.28
 31.87     536.00      23.15
 31.97     543.00      23.30
 32.07     548.00      23.41
 32.17     548.76      23.43
 32.27     538.00      23.19
 32.37     512.46      22.64
 32.47     588.00      24.25
 32.57     540.00      23.24
 32.67     584.00      24.17
 32.77     536.00      23.15
 32.87     549.24      23.44
 32.97     553.00      23.52
 33.07     575.00      23.98
 33.17     578.70      24.06
 33.27     552.00      23.49
 33.37     574.42      23.97
 33.47     573.99      23.96
 33.57     579.00      24.06
 33.67     633.43      25.17
 33.77     714.00      26.72
 33.87     892.49      29.87
 33.97    1029.00      32.08
 34.07    1085.00      32.94
 34.17    1060.00      32.56
 34.27     954.00      30.89
 34.37     735.00      27.11
 34.47     644.00      25.38
 34.57     556.74      23.60
 34.67     571.00      23.90
 34.77     561.00      23.69
 34.87     507.39      22.53
 34.97     509.46      22.57
 35.07     535.00      23.13
 35.17     508.00      22.54
 35.27     547.00      23.39
 35.37     565.87      23.79
 35.47     539.72      23.23
 35.57     513.00      22.65
 35.67     580.00      24.08
 35.77     481.58      21.94
 35.87     486.24      22.05
 35.97     543.96      23.32
 36.07     504.00      22.45
 36.17     495.00      22.25
 36.27     513.00      22.65
 36.37     525.00      22.91
 36.47     497.18      22.30
 36.57     539.00      23.22
 36.67     506.00      22.49
 36.77     533.00      23.09
 36.87     513.00      22.65
 36.97     509.00      22.56
 37.07     511.00      22.61
 37.17     524.00      22.89
 37.27     516.00      22.72
 37.37     532.00      23.07
 37.47     489.00      22.11
 37.57     504.23      22.46
 37.67     571.10      23.90
 37.77     527.50      22.97
 37.87     511.21      22.61
 37.97     537.00      23.17
 38.07     550.08      23.45
 38.17     522.95      22.87
 38.27     504.00      22.45
 38.37     499.00      22.34
 38.47     546.17      23.37
 38.57     489.67      22.13
 38.67     519.00      22.78
 38.77     551.65      23.49
 38.87     492.00      22.18
 38.97     483.00      21.98
 39.07     486.00      22.05
 39.17     511.33      22.61
 39.27     511.00      22.61
 39.37     503.00      22.43
 39.47     497.00      22.29
 39.57     472.76      21.74
 39.67     498.97      22.34
 39.77     478.00      21.86
 39.87     518.00      22.76
 39.97     523.00      22.87
 40.07     517.00      22.74
 40.17     493.00      22.20
 40.27     500.00      22.36
 40.37     500.00      22.36
 40.47     518.00      22.76
 40.57     523.09      22.87
 40.67     518.00      22.76
 40.77     536.00      23.15
 40.87     526.00      22.93
 40.97     450.00      21.21
 41.07     496.00      22.27
 41.17     499.00      22.34
 41.27     496.00      22.27
 41.37     500.67      22.38
 41.47     508.00      22.54
 41.57     516.00      22.72
 41.67     498.00      22.32
 41.77     549.50      23.44
 41.87     492.52      22.19
 41.97     522.56      22.86
 42.07     534.00      23.11
 42.17     550.45      23.46
 42.27     526.00      22.93
 42.37     518.42      22.77
 42.47     575.50      23.99
 42.57     579.00      24.06
 42.67     575.00      23.98
 42.77     609.00      24.68
 42.87     576.00      24.00
 42.97     530.00      23.02
 43.07     564.00      23.75
 43.17     492.00      22.18
 43.27     502.00      22.41
 43.37     550.78      23.47
 43.47     543.62      23.32
 43.57     508.00      22.54
 43.67     511.25      22.61
 43.77     460.00      21.45
 43.87     492.00      22.18
 43.97     470.87      21.70
 44.07     501.48      22.39
 44.17     539.41      23.23
 44.27     476.00      21.82
 44.37     488.10      22.09
 44.47     469.30      21.66
 44.57     487.00      22.07
 44.67     496.00      22.27
 44.77     521.00      22.83
 44.87     508.00      22.54
 44.97     512.75      22.64
 45.07     488.00      22.09
 45.17     517.77      22.75
 45.27     534.00      23.11
 45.37     545.00      23.35
 45.47     495.23      22.25
 45.57     462.00      21.49
 45.67     480.00      21.91
 45.77     520.00      22.80
 45.87     505.75      22.49
 45.97     505.00      22.47
 46.07     466.45      21.60
 46.17     498.16      22.32
 46.27     475.00      21.79
 46.37     484.00      22.00
 46.47     485.27      22.03
 46.57     530.58      23.03
 46.67     534.50      23.12
 46.77     477.94      21.86
 46.87     505.00      22.47
 46.97     498.00      22.32
 47.07     502.00      22.41
 47.17     514.00      22.67
 47.27     501.00      22.38
 47.37     527.00      22.96
 47.47     521.00      22.83
 47.57     571.00      23.90
 47.67     562.00      23.71
 47.77     639.00      25.28
 47.87     558.45      23.63
 47.97     604.00      24.58
 48.07     533.66      23.10
 48.17     568.57      23.84
 48.27     561.82      23.70
 48.37     570.85      23.89
 48.47     504.00      22.45
 48.57     560.00      23.66
 48.67     506.20      22.50
 48.77     552.00      23.49
 48.87     531.00      23.04
 48.97     566.00      23.79
 49.07     553.00      23.52
 49.17     591.00      24.31
 49.27     632.92      25.16
 49.37     669.00      25.87
 49.47     718.00      26.80
 49.57     764.27      27.65
 49.67     949.00      30.81
 49.77    1085.92      32.95
 49.87    1506.00      38.81
 49.97    1951.00      44.17
 50.07    2298.09      47.94
 50.17    2458.22      49.58
 50.27    2585.00      50.84
 50.37    2221.00      47.13
 50.47    1822.00      42.68
 50.57    1489.78      38.60
 50.67    1094.75      33.09
 50.77     850.00      29.15
 50.87     704.00      26.53
 50.97     686.71      26.21
 51.07     621.00      24.92
 51.17     655.93      25.61
 51.27     658.00      25.65
 51.37     613.00      24.76
 51.47     531.15      23.05
 51.57     569.00      23.85
 51.67     581.00      24.10
 51.77     541.00      23.26
 51.87     571.22      23.90
 51.97     539.29      23.22
 52.07     511.41      22.61
 52.17     567.00      23.81
 52.27     570.00      23.87
 52.37     546.03      23.37
 52.47     558.00      23.62
 52.57     563.00      23.73
 52.67     586.44      24.22
 52.77     570.59      23.89
 52.87     633.00      25.16
 52.97     643.15      25.36
 53.07     814.83      28.55
 53.17     954.00      30.89
 53.27     999.97      31.62
 53.37    1174.12      34.27
 53.47    1166.97      34.16
 53.57    1132.00      33.65
 53.67    1093.00      33.06
 53.77    1022.00      31.97
 53.87     843.00      29.03
 53.97     735.00      27.11
 54.07     700.00      26.46
 54.17     581.10      24.11
 54.27     619.70      24.89
 54.37     579.13      24.07
 54.47     616.00      24.82
 54.57     544.00      23.32
 54.67     533.00      23.09
 54.77     550.00      23.45
 54.87     591.00      24.31
 54.97     563.00      23.73
 55.07     559.00      23.64
 55.17     572.00      23.92
 55.27     550.00      23.45
 55.37     568.00      23.83
 55.47     568.61      23.85
 55.57     566.00      23.79
 55.67     585.00      24.19
 55.77     598.00      24.45
 55.87     600.08      24.50
 55.97     659.44      25.68
 56.07     666.25      25.81
 56.17     773.00      27.80
 56.27     885.00      29.75
 56.37    1126.00      33.56
 56.47    1501.53      38.75
 56.57    1868.99      43.23
 56.67    2212.00      47.03
 56.77    2568.00      50.68
 56.87    2574.00      50.73
 56.97    2683.32      51.80
 57.07    2431.00      49.31
 57.17    2004.00      44.77
 57.27    1691.00      41.12
 57.37    1284.81      35.84
 57.47    1092.56      33.05
 57.57     907.76      30.13
 57.67     732.00      27.06
 57.77     719.00      26.81
 57.87     712.30      26.69
 57.97     648.00      25.46
 58.07     665.00      25.79
 58.17     691.00      26.29
 58.27     759.00      27.55
 58.37     867.53      29.45
 58.47     926.70      30.44
 58.57    1124.00      33.53
 58.67    1280.00      35.78
 58.77    1337.99      36.58
 58.87    1541.00      39.26
 58.97    1510.00      38.86
 59.07    1497.00      38.69
 59.17    1501.00      38.74
 59.27    1429.67      37.81
 59.37    1355.69      36.82
 59.47    1268.00      35.61
 59.57    1131.86      33.64
 59.67    1076.00      32.80
 59.77    1140.00      33.76
 59.87    1198.00      34.61
 59.97    1321.00      36.35
 60.07    1462.00      38.24
 60.17    1528.73      39.10
 60.27    1544.00      39.29
 60.37    1557.00      39.46
 60.47    1413.00      37.59
 60.57    1201.00      34.66
 60.67    1114.00      33.38
 60.77     941.00      30.68
 60.87     818.14      28.60
 60.97     711.74      26.68
 61.07     628.06      25.06
 61.17     644.34      25.38
 61.27     622.00      24.94
 61.37     656.00      25.61
 61.47     682.00      26.12
 61.57     770.00      27.75
 61.67     804.00      28.35
 61.77     938.00      30.63
 61.87    1101.00      33.18
 61.97    1239.00      35.20
 62.07    1386.00      37.23
 62.17    1404.00      37.47
 62.27    1366.00      36.96
 62.37    1289.63      35.91
 62.47    1199.65      34.64
 62.57    1034.00      32.16
 62.67     914.75      30.24
 62.77     783.00      27.98
 62.87     680.15      26.08
 62.97     640.06      25.30
 63.07     565.00      23.77
 63.17     559.00      23.64
 63.27     570.59      23.89
 63.37     594.00      24.37
 63.47     604.00      24.58
 63.57     525.61      22.93
 63.67     587.78      24.24
 63.77     630.00      25.10
 63.87     628.00      25.06
 63.97     683.21      26.14
 64.07     690.00      26.27
 64.17     806.00      28.39
 64.27     832.70      28.86
 64.37     891.00      29.85
 64.47    1003.00      31.67
 64.57    1052.42      32.44
 64.67     958.80      30.96
 64.77    1055.15      32.48
 64.87     956.69      30.93
 64.97     939.00      30.64
 65.07     860.86      29.34
 65.17     751.48      27.41
 65.27     775.26      27.84
 65.37     727.00      26.96
 65.47     655.00      25.59
 65.57     583.00      24.15
 65.67     566.68      23.81
 65.77     579.00      24.06
 65.87     614.22      24.78
 65.97     606.62      24.63
 66.07     599.97      24.49
 66.17     533.94      23.11
 66.27     598.00      24.45
 66.37     540.00      23.24
 66.47     549.00      23.43
 66.57     521.00      22.83
 66.67     573.00      23.94
 66.77     532.00      23.07
 66.87     574.51      23.97
 66.97     587.85      24.25
 67.07     579.00      24.06
 67.17     699.00      26.44
 67.27     842.00      29.02
 67.37     848.00      29.12
 67.47    1107.00      33.27
 67.57    1247.00      35.31
 67.67    1498.00      38.70
 67.77    1770.00      42.07
 67.87    2039.00      45.16
 67.97    2331.27      48.28
 68.07    2378.00      48.76
 68.17    2498.00      49.98
 68.27    2327.00      48.24
 68.37    2121.67      46.06
 68.47    1757.62      41.92
 68.57    1490.00      38.60
 68.67    1252.00      35.38
 68.77    1043.28      32.30
 68.87     876.00      29.60
 68.97     733.85      27.09
 69.07     718.00      26.80
 69.17     726.00      26.94
 69.27     685.00      26.17
 69.37     584.00      24.17
 69.47     594.00      24.37
 69.57     616.00      24.82
 69.67     539.93      23.24
 69.77     578.00      24.04
 69.87     583.00      24.15
 69.97     548.98      23.43
 70.07     611.00      24.72
 70.17     540.00      23.24
 70.27     564.00      23.75
 70.37     561.00      23.69
 70.47     546.25      23.37
 70.57     590.00      24.29
 70.67     565.00      23.77
 70.77     621.00      24.92
 70.87     612.07      24.74
 70.97     623.00      24.96
 71.07     627.00      25.04
 71.17     709.00      26.63
 71.27     844.21      29.06
 71.37     903.00      30.05
 71.47    1092.00      33.05
 71.57    1221.00      34.94
 71.67    1488.55      38.58
 71.77    1682.06      41.01
 71.87    1824.42      42.71
 71.97    1805.09      42.49
 72.07    1932.96      43.97
 72.17    1891.00      43.49
 72.27    1760.00      41.95
 72.37    1671.00      40.88
 72.47    1474.00      38.39
 72.57    1254.30      35.42
 72.67    1177.70      34.32
 72.77    1081.24      32.88
 72.87     941.00      30.68
 72.97     925.09      30.42
 73.07     818.44      28.61
 73.17     741.00      27.22
 73.27     726.13      26.95
 73.37     668.00      25.85
 73.47     689.00      26.25
 73.57     617.00      24.84
 73.67     657.69      25.65
 73.77     612.00      24.74
 73.87     608.00      24.66
 73.97     545.38      23.35
 74.07     608.34      24.66
 74.17     585.00      24.19
 74.27     526.11      22.94
 74.37     606.00      24.62
 74.47     646.00      25.42
 74.57     561.93      23.71
 74.67     585.48      24.20
 74.77     651.00      25.51
 74.87     639.00      25.28
 74.97     565.94      23.79
 75.07     602.00      24.54
 75.17     556.00      23.58
 75.27     532.00      23.07
 75.37     545.18      23.35
 75.47     513.03      22.65
 75.57     554.00      23.54
 75.67     550.00      23.45
 75.77     578.86      24.06
 75.87     580.00      24.08
 75.97     612.03      24.74
 76.07     621.00      24.92
 76.17     625.00      25.00
 76.27     622.00      24.94
 76.37     691.00      26.29
 76.47     669.08      25.87
 76.57     652.00      25.53
 76.67     669.59      25.88
 76.77     675.00      25.98
 76.87     686.00      26.19
 76.97     671.00      25.90
 77.07     600.00      24.49
 77.17     571.00      23.90
 77.27     601.00      24.52
 77.37     550.41      23.46
 77.47     502.00      22.41
 77.57     516.25      22.72
 77.67     524.95      22.91
 77.77     541.21      23.26
 77.87     532.00      23.07
 77.97     506.18      22.50
 78.07     498.00      22.32
 78.17     525.00      22.91
 78.27     519.65      22.80
 78.37     525.29      22.92
 78.47     510.90      22.60
 78.57     505.00      22.47
 78.67     510.87      22.60
 78.77     513.00      22.65
 78.87     478.00      21.86
 78.97     514.00      22.67
 79.07     499.00      22.34
 79.17     494.14      22.23
 79.27     524.00      22.89
 79.37     502.36      22.41
 79.47     578.00      24.04
 79.57     506.00      22.49
 79.67     527.00      22.96
 79.77     602.00      24.54
 79.87     544.21      23.33
 79.97     561.00      23.69
 80.07     571.00      23.90
 80.17     559.00      23.64
 80.27     565.00      23.77
 80.37     594.00      24.37
 80.47     575.00      23.98
 80.57     633.82      25.18
 80.67     609.77      24.69
 80.77     625.00      25.00
 80.87     701.45      26.48
 80.97     724.54      26.92
 81.07     706.00      26.57
 81.17     748.00      27.35
 81.27     739.65      27.20
 81.37     723.00      26.89
 81.47     733.00      27.07
 81.57     761.00      27.59
 81.67     716.30      26.76
 81.77     730.00      27.02
 81.87     680.00      26.08
 81.97     699.00      26.44
 82.07     680.00      26.08
 82.17     653.00      25.55
 82.27     657.00      25.63
 82.37     637.69      25.25
 82.47     603.76      24.57
 82.57     595.00      24.39
 82.67     545.00      23.35
 82.77     596.00      24.41
 82.87     538.00      23.19
 82.97     546.00      23.37
 83.07     598.00      24.45
 83.17     536.00      23.15
 83.27     580.99      24.10
 83.37     521.94      22.85
 83.47     571.00      23.90
 83.57     574.73      23.97
 83.67     574.11      23.96
 83.77     613.35      24.77
 83.87     582.00      24.12
 83.97     588.18      24.25
 84.07     553.48      23.53
 84.17     561.51      23.70
 84.27     599.00      24.47
 84.37     539.00      23.22
 84.47     551.69      23.49
 84.57     560.06      23.67
 84.67     586.00      24.21
 84.77     554.00      23.54
 84.87     534.57      23.12
 84.97     569.02      23.85
 85.07     568.48      23.84
 85.17     497.52      22.31
 85.27     501.52      22.39
 85.37     556.83      23.60
 85.47     559.00      23.64
 85.57     518.00      22.76
 85.67     555.00      23.56
 85.77     546.08      23.37
 85.87     510.00      22.58
 85.97     491.14      22.16
 86.07     499.00      22.34
 86.17     498.52      22.33
 86.27     507.00      22.52
 86.37     580.70      24.10
 86.47     569.00      23.85
 86.57     513.32      22.66
 86.67     535.87      23.15
 86.77     621.00      24.92
 86.87     585.00      24.19
 86.97     575.21      23.98
 87.07     604.56      24.59
 87.17     649.00      25.48
 87.27     651.00      25.51
 87.37     623.00      24.96
 87.47     624.19      24.98
 87.57     674.00      25.96
 87.67     636.00      25.22
 87.77     668.00      25.85
 87.87     656.00      25.61
 87.97     564.61      23.76
 88.07     635.00      25.20
 88.17     600.00      24.49
 88.27     607.00      24.64
 88.37     536.00      23.15
 88.47     595.00      24.39
 88.57     590.26      24.30
 88.67     585.00      24.19
 88.77     574.00      23.96
 88.87     594.00      24.37
 88.97     633.00      25.16
 89.07     574.00      23.96
 89.17     563.65      23.74
 89.27     579.07      24.06
 89.37     616.00      24.82
 89.47     611.00      24.72
 89.57     569.31      23.86
 89.67     547.00      23.39
 89.77     572.51      23.93
 89.87     555.00      23.56
 89.97     552.60      23.51
 90.07     573.16      23.94
 90.17     547.00      23.39
 90.27     542.00      23.28
 90.37     584.36      24.17
 90.47     524.65      22.91
 90.57     576.00      24.00
 90.67     538.36      23.20
 90.77     528.00      22.98
 90.87     509.00      22.56
 90.97     547.27      23.39
 91.07     529.00      23.00
 91.17     529.00      23.00
 91.27     510.00      22.58
 91.37     523.00      22.87
 91.47     477.00      21.84
 91.57     535.00      23.13
 91.67     514.00      22.67
 91.77     547.00      23.39
 91.87     573.00      23.94
 91.97     550.00      23.45
 92.07     574.00      23.96
 92.17     613.25      24.76
 92.27     545.00      23.35
 92.37     583.00      24.15
 92.47     643.00      25.36
 92.57     627.03      25.04
 92.67     652.00      25.53
 92.77     683.96      26.15
 92.87     738.00      27.17
 92.97     731.00      27.04
 93.07     749.00      27.37
 93.17     725.00      26.93
 93.27     775.45      27.85
 93.37     757.82      27.53
 93.47     795.00      28.20
 93.57     815.00      28.55
 93.67     822.25      28.67
 93.77     871.00      29.51
 93.87     800.00      28.28
 93.97     817.00      28.58
 94.07     857.91      29.29
 94.17     842.00      29.02
 94.27     838.00      28.95
 94.37     871.00      29.51
 94.47     901.00      30.02
 94.57     918.00      30.30
 94.67     951.00      30.84
 94.77     913.33      30.22
 94.87     934.00      30.56
 94.97     909.00      30.15
 95.07     916.77      30.28
 95.17     898.00      29.97
 95.27     834.00      28.88
 95.37     814.00      28.53
 95.47     747.00      27.33
 95.57     767.00      27.69
 95.67     714.00      26.72
 95.77     708.00      26.61
 95.87     730.28      27.02
 95.97     636.06      25.22
 96.07     642.00      25.34
 96.17     679.00      26.06
 96.27     759.40      27.56
 96.37     713.00      26.70
 96.47     802.00      28.32
 96.57     839.49      28.97
 96.67     905.00      30.08
 96.77     968.00      31.11
 96.87    1013.01      31.83
 96.97    1154.00      33.97
 97.07    1163.00      34.10
 97.17    1293.00      35.96
 97.27    1308.17      36.17
 97.37    1459.05      38.20
 97.47    1456.00      38.16
 97.57    1376.93      37.11
 97.67    1410.32      37.55
 97.77    1441.50      37.97
 97.87    1353.00      36.78
 97.97    1312.39      36.23
 98.07    1269.03      35.62
 98.17    1124.07      33.53
 98.27    1138.00      33.73
 98.37    1035.00      32.17
 98.47     894.00      29.90
 98.57     940.34      30.67
 98.67     871.00      29.51
 98.77     809.00      28.44
 98.87     816.47      28.57
 98.97     728.00      26.98
 99.07     853.00      29.21
 99.17     875.00      29.58
 99.27     924.50      30.41
 99.37     894.88      29.91
 99.47    1053.56      32.46
 99.57    1096.00      33.11
 99.67    1226.00      35.01
 99.77    1302.00      36.08
 99.87    1356.26      36.83
 99.97    1445.00      38.01
100.07    1613.00      40.16
100.17    1776.00      42.14
100.27    1783.17      42.23
100.37    1896.76      43.55
100.47    2030.56      45.06
100.57    2025.00      45.00
100.67    2131.72      46.17
100.77    2118.53      46.03
100.87    2097.00      45.79
100.97    2001.95      44.74
101.07    1996.00      44.68
101.17    1893.00      43.51
101.27    1792.00      42.33
101.37    1642.00      40.52
101.47    1563.11      39.54
101.57    1583.00      39.79
101.67    1484.24      38.53
101.77    1422.58      37.72
101.87    1321.00      36.35
101.97    1288.00      35.89
102.07    1172.35      34.24
102.17    1142.00      33.79
102.27    1130.00      33.62
102.37    1056.00      32.50
102.47    1094.00      33.08
102.57    1050.00      32.40
102.67    1083.62      32.92
102.77    1020.00      31.94
102.87     996.00      31.56
102.97    1020.00      31.94
103.07     880.77      29.68
103.17     873.00      29.55
103.27     897.07      29.95
103.37     775.84      27.85
103.47     749.37      27.37
103.57     747.60      27.34
103.67     679.00      26.06
103.77     707.00      26.59
103.87     610.04      24.70
103.97     647.00      25.44
104.07     612.82      24.76
104.17     567.76      23.83
104.27     556.00      23.58
104.37     535.48      23.14
104.47     587.62      24.24
104.57     566.00      23.79
104.67     578.50      24.05
104.77     508.16      22.54
104.87     553.84      23.53
104.97     554.00      23.54
105.07     542.00      23.28
105.17     551.00      23.47
105.27     563.00      23.73
105.37     523.00      22.87
105.47     582.34      24.13
105.57     552.00      23.49
105.67     586.00      24.21
105.77     536.00      23.15
105.87     551.00      23.47
105.97     588.00      24.25
106.07     576.00      24.00
106.17     602.10      24.54
106.27     562.00      23.71
106.37     616.22      24.82
106.47     611.80      24.73
106.57     583.25      24.15
106.67     619.00      24.88
106.77     626.00      25.02
106.87     617.00      24.84
106.97     652.88      25.55
107.07     648.00      25.46
107.17     697.00      26.40
107.27     669.00      25.87
107.37     657.00      25.63
107.47     642.00      25.34
107.57     657.00      25.63
107.67     725.13      26.93
107.77     675.00      25.98
107.87     702.00      26.50
107.97     691.00      26.29
108.07     695.00      26.36
108.17     681.00      26.10
108.27     651.18      25.52
108.37     671.00      25.90
108.47     663.00      25.75
108.57     672.00      25.92
108.67     735.69      27.12
108.77     686.00      26.19
108.87     686.00      26.19
108.97     660.00      25.69
109.07     697.00      26.40
109.17     684.43      26.16
109.27     668.00      25.85
109.37     642.00      25.34
109.47     648.00      25.46
109.57     605.59      24.61
109.67     594.87      24.39
109.77     638.91      25.28
109.87     645.00      25.40
109.97     641.00      25.32
110.07     580.62      24.10
110.17     565.03      23.77
110.27     590.00      24.29
110.37     555.00      23.56
110.47     532.93      23.09
110.57     538.00      23.19
110.67     602.00      24.54
110.77     566.00      23.79
110.87     539.00      23.22
110.97     568.77      23.85
111.07     578.00      24.04
111.17     525.00      22.91
111.27     550.00      23.45
111.37     554.00      23.54
111.47     525.00      22.91
111.57     538.00      23.19
111.67     530.00      23.02
111.77     581.51      24.11
111.87     561.20      23.69
111.97     554.00      23.54
112.07     563.00      23.73
112.17     530.00      23.02
112.27     583.48      24.16
112.37     647.00      25.44
112.47     629.00      25.08
112.57     644.42      25.39
112.67     572.00      23.92
112.77     605.00      24.60
112.87     632.00      25.14
112.97     678.00      26.04
113.07     679.73      26.07
113.17     701.00      26.48
113.27     732.00      27.06
113.37     746.00      27.31
113.47     800.30      28.29
113.57     763.69      27.63
113.67     833.00      28.86
113.77     879.00      29.65
113.87     954.00      30.89
113.97     950.00      30.82
114.07     956.31      30.92
114.17    1066.00      32.65
114.27    1130.00      33.62
114.37    1191.00      34.51
114.47    1282.00      35.81
114.57    1353.69      36.79
114.67    1548.00      39.34
114.77    1706.00      41.30
114.87    1927.00      43.90
114.97    2150.00      46.37
115.07    2311.50      48.08
115.17    2556.00      50.56
115.27    2879.80      53.66
115.37    3189.83      56.48
115.47    3495.84      59.13
115.57    3692.11      60.76
115.67    4102.00      64.05
115.77    4481.23      66.94
115.87    4706.00      68.60
115.97    5268.00      72.58
116.07    5639.00      75.09
116.17    6042.00      77.73
116.27    6335.44      79.60
116.37    6546.00      80.91
116.47    6845.97      82.74
116.57    6704.00      81.88
116.67    7080.00      84.14
116.77    7050.00      83.96
116.87    6758.73      82.21
116.97    6754.00      82.18
117.07    6403.00      80.02
117.17    6205.00      78.77
117.27    5878.46      76.67
117.37    5316.00      72.91
117.47    4976.00      70.54
117.57    4756.75      68.97
117.67    4274.02      65.38
117.77    3973.00      63.03
117.87    3471.03      58.92
117.97    3221.00      56.75
118.07    2930.00      54.13
118.17    2565.00      50.65
118.27    2214.24      47.06
118.37    2010.00      44.83
118.47    1727.66      41.57
118.57    1500.00      38.73
118.67    1418.16      37.66
118.77    1281.62      35.80
118.87    1158.00      34.03
118.97    1024.00      32.00
119.07     965.00      31.06
119.17     861.03      29.34
119.27     857.00      29.27
119.37     805.58      28.38
119.47     703.00      26.51
119.57     669.00      25.87
119.67     717.62      26.79
119.77     620.24      24.90
119.87     664.00      25.77
119.97     630.70      25.11
120.07     612.00      24.74
120.17     572.96      23.94
120.27     590.00      24.29
120.37     585.00      24.19
120.47     605.75      24.61
120.57     582.00      24.12
120.67     558.00      23.62
120.77     555.00      23.56
120.87     535.00      23.13
120.97     568.00      23.83
121.07     610.34      24.71
121.17     531.00      23.04
121.27     616.37      24.83
121.37     534.75      23.12
121.47     622.33      24.95
121.57     613.00      24.76
121.67     571.00      23.90
121.77     636.09      25.22
121.87     568.00      23.83
121.97     575.00      23.98
122.07     583.48      24.16
122.17     610.00      24.70
122.27     563.00      23.73
122.37     598.00      24.45
122.47     602.08      24.54
122.57     609.00      24.68
122.67     593.52      24.36
122.77     615.00      24.80
122.87     675.98      26.00
122.97     657.04      25.63
123.07     683.18      26.14
123.17     677.00      26.02
123.27     656.34      25.62
123.37     626.54      25.03
123.47     639.00      25.28
123.57     637.00      25.24
123.67     664.00      25.77
123.77     670.04      25.89
123.87     598.00      24.45
123.97     641.00      25.32
124.07     639.84      25.30
124.17     639.82      25.29
124.27     607.00      24.64
124.37     619.00      24.88
124.47     601.00      24.52
124.57     592.00      24.33
124.67     543.53      23.31
124.77     558.35      23.63
124.87     587.00      24.23
124.97     567.00      23.81
