  9.97     575.00      23.98
 10.07     570.00      23.87
 10.17     597.53      24.44
 10.27     556.00      23.58
 10.37     588.43      24.26
 10.47     559.00      23.64
 10.57     570.86      23.89
 10.67     543.00      23.30
 10.77     604.01      24.58
 10.87     524.85      22.91
 10.97     533.35      23.09
 11.07     622.00      24.94
 11.17     606.64      24.63
 11.27     570.00      23.87
 11.37     597.15      24.44
 11.47     530.32      23.03
 11.57     618.96      24.88
 11.67     535.71      23.15
 11.77     602.00      24.54
 11.87     634.00      25.18
 11.97     678.00      26.04
 12.07     664.00      25.77
 12.17     676.00      26.00
 12.27     691.00      26.29
 12.37     700.52      26.47
 12.47     617.29      24.85
 12.57     604.09      24.58
 12.67     606.00      24.62
 12.77     604.00      24.58
 12.87     610.89      24.72
 12.97     595.00      24.39
 13.07     533.00      23.09
 13.17     586.88      24.23
 13.27     585.00      24.19
 13.37     550.61      23.47
 13.47     553.79      23.53
 13.57     541.00      23.26
 13.67     552.94      23.51
 13.77     559.00      23.64
 13.87     547.00      23.39
 13.97     569.00      23.85
 14.07     570.00      23.87
 14.17     548.00      23.41
 14.27     554.00      23.54
 14.37     539.00      23.22
 14.47     586.00      24.21
 14.57     558.00      23.62
 14.67     556.00      23.58
 14.77     520.00      22.80
 14.87     588.87      24.27
 14.97     535.00      23.13
 15.07     610.30      24.70
 15.17     529.70      23.02
 15.27     548.00      23.41
 15.37     588.63      24.26
 15.47     572.00      23.92
 15.57     529.22      23.00
 15.67     565.00      23.77
 15.77     549.38      23.44
 15.87     572.62      23.93
 15.97     592.63      24.34
 16.07     548.00      23.41
 16.17     583.06      24.15
 16.27     589.21      24.27
 16.37     599.09      24.48
 16.47     576.00      24.00
 16.57     588.00      24.25
 16.67     511.00      22.61
 16.77     542.00      23.28
 16.87     560.00      23.66
 16.97     543.00      23.30
 17.07     548.00      23.41
 17.17     570.20      23.88
 17.27     538.00      23.19
 17.37     581.00      24.10
 17.47     566.00      23.79
 17.57     550.00      23.45
 17.67     543.98      23.32
 17.77     587.00      24.23
 17.87     535.36      23.14
 17.97     525.22      22.92
 18.07     543.00      23.30
 18.17     548.23      23.41
 18.27     523.28      22.88
 18.37     607.00      24.64
 18.47     556.00      23.58
 18.57     562.77      23.72
 18.67     602.85      24.55
 18.77     603.00      24.56
 18.87     553.00      23.52
 18.97     554.00      23.54
 19.07     564.00      23.75
 19.17     536.85      23.17
 19.27     542.29      23.29
 19.37     554.00      23.54
 19.47     590.00      24.29
 19.57     594.21      24.38
 19.67     536.00      23.15
 19.77     543.00      23.30
 19.87     571.95      23.92
 19.97     584.00      24.17
 20.07     592.00      24.33
 20.17     567.00      23.81
 20.27     569.39      23.86
 20.37     557.25      23.61
 20.47     591.00      24.31
 20.57     531.30      23.05
 20.67     543.69      23.32
 20.77     555.58      23.57
 20.87     511.62      22.62
 20.97     520.94      22.82
 21.07     535.12      23.13
 21.17     537.00      23.17
 21.27     538.51      23.21
 21.37     546.85      23.38
 21.47     590.21      24.29
 21.57     553.00      23.52
 21.67     572.00      23.92
 21.77     562.00      23.71
 21.87     543.00      23.30
 21.97     565.24      23.77
 22.07     590.45      24.30
 22.17     581.12      24.11
 22.27     534.00      23.11
 22.37     588.89      24.27
 22.47     513.65      22.66
 22.57     546.00      23.37
 22.67     598.96      24.47
 22.77     507.26      22.52
 22.87     528.00      22.98
 22.97     534.00      23.11
 23.07     502.00      22.41
 23.17     541.00      23.26
 23.27     518.27      22.77
 23.37     560.00      23.66
 23.47     559.00      23.64
 23.57     557.00      23.60
 23.67     546.58      23.38
 23.77     537.00      23.17
 23.87     564.00      23.75
 23.97     553.00      23.52
 24.07     582.60      24.14
 24.17     594.85      24.39
 24.27     567.16      23.82
 24.37     584.87      24.18
 24.47     621.00      24.92
 24.57     618.25      24.86
 24.67     601.00      24.52
 24.77     657.00      25.63
 24.87     644.00      25.38
 24.97     624.00      24.98
 25.07     637.67      25.25
 25.17     569.11      23.86
 25.27     512.41      22.64
 25.37     533.00      23.09
 25.47     565.00      23.77
 25.57     529.38      23.01
 25.67     564.00      23.75
 25.77     535.00      23.13
 25.87     523.00      22.87
 25.97     577.60      24.03
 26.07     586.00      24.21
 26.17     561.00      23.69
 26.27     553.00      23.52
 26.37     549.06      23.43
 26.47     546.00      23.37
 26.57     516.00      22.72
 26.67     505.85      22.49
 26.77     527.00      22.96
 26.87     553.00      23.52
 26.97     582.00      24.12
 27.07     556.00      23.58
 27.17     581.81      24.12
 27.27     577.00      24.02
 27.37     511.00      22.61
 27.47     555.00      23.56
 27.57     543.12      23.30
 27.67     585.00      24.19
 27.77     601.00      24.52
 27.87     615.00      24.80
 27.97     676.00      26.00
 28.07     783.00      27.98
 28.17     859.90      29.32
 28.27     972.00      31.18
 28.37     900.00      30.00
 28.47     808.00      28.43
 28.57     718.52      26.81
 28.67     650.00      25.50
 28.77     734.00      27.09
 28.87     842.74      29.03
 28.97     901.63      30.03
 29.07     771.89      27.78
 29.17     687.00      26.21
 29.27     652.00      25.53
 29.37     584.52      24.18
 29.47     625.00      25.00
 29.57     581.00      24.10
 29.67     603.00      24.56
 29.77     582.00      24.12
 29.87     567.00      23.81
 29.97     594.16      24.38
 30.07     580.64      24.10
 30.17     579.00      24.06
 30.27     492.00      22.18
 30.37     586.00      24.21
 30.47     590.00      24.29
 30.57     525.28      22.92
 30.67     583.00      24.15
 30.77     630.00      25.10
 30.87     651.72      25.53
 30.97     617.00      24.84
 31.07     624.10      24.98
 31.17     589.00      24.27
 31.27     548.00      23.41
 31.37     512.99      22.65
 31.47     515.37      22.70
 31.57     525.89      22.93
 31.67     569.00      23.85
 31.77     559.00      23.64
 31.87     531.00      23.04
 31.97     548.00      23.41
 32.07     559.00      23.64
 32.17     564.00      23.75
 32.27     513.00      22.65
 32.37     500.17      22.36
 32.47     504.51      22.46
 32.57     552.00      23.49
 32.67     511.00      22.61
 32.77     544.00      23.32
 32.87     587.00      24.23
 32.97     541.00      23.26
 33.07     580.00      24.08
 33.17     540.00      23.24
 33.27     574.00      23.96
 33.37     571.28      23.90
 33.47     584.00      24.17
 33.57     583.80      24.16
 33.67     694.00      26.34
 33.77     741.91      27.24
 33.87     915.00      30.25
 33.97     983.00      31.35
 34.07    1036.13      32.19
 34.17    1054.00      32.47
 34.27     920.35      30.34
 34.37     711.24      26.67
 34.47     689.46      26.26
 34.57     603.00      24.56
 34.67     538.00      23.19
 34.77     576.94      24.02
 34.87     571.00      23.90
 34.97     524.00      22.89
 35.07     522.00      22.85
 35.17     520.00      22.80
 35.27     505.00      22.47
 35.37     494.72      22.24
 35.47     554.00      23.54
 35.57     532.86      23.08
 35.67     502.23      22.41
 35.77     521.21      22.83
 35.87     511.00      22.61
 35.97     475.00      21.79
 36.07     532.00      23.07
 36.17     540.00      23.24
 36.27     527.92      22.98
 36.37     558.24      23.63
 36.47     483.66      21.99
 36.57     488.00      22.09
 36.67     470.69      21.70
 36.77     454.00      21.31
 36.87     492.54      22.19
 36.97     483.00      21.98
 37.07     533.49      23.10
 37.17     503.00      22.43
 37.27     565.00      23.77
 37.37     478.00      21.86
 37.47     526.00      22.93
 37.57     501.00      22.38
 37.67     498.62      22.33
 37.77     549.00      23.43
 37.87     481.30      21.94
 37.97     549.00      23.43
 38.07     512.00      22.63
 38.17     538.00      23.19
 38.27     488.00      22.09
 38.37     480.95      21.93
 38.47     500.97      22.38
 38.57     460.00      21.45
 38.67     485.74      22.04
 38.77     546.00      23.37
 38.87     522.98      22.87
 38.97     522.00      22.85
 39.07     523.00      22.87
 39.17     486.00      22.05
 39.27     503.00      22.43
 39.37     465.55      21.58
 39.47     473.00      21.75
 39.57     480.00      21.91
 39.67     529.70      23.02
 39.77     475.00      21.79
 39.87     519.00      22.78
 39.97     509.00      22.56
 40.07     490.00      22.14
 40.17     510.00      22.58
 40.27     507.14      22.52
 40.37     473.00      21.75
 40.47     547.00      23.39
 40.57     476.00      21.82
 40.67     476.72      21.83
 40.77     506.00      22.49
 40.87     526.00      22.93
 40.97     477.00      21.84
 41.07     498.00      22.32
 41.17     490.00      22.14
 41.27     479.51      21.90
 41.37     523.40      22.88
 41.47     524.62      22.90
 41.57     544.93      23.34
 41.67     466.74      21.60
 41.77     477.65      21.86
 41.87     495.00      22.25
 41.97     531.96      23.06
 42.07     484.00      22.00
 42.17     540.60      23.25
 42.27     502.22      22.41
 42.37     531.45      23.05
 42.47     591.00      24.31
 42.57     594.00      24.37
 42.67     635.21      25.20
 42.77     554.00      23.54
 42.87     605.00      24.60
 42.97     593.00      24.35
 43.07     540.04      23.24
 43.17     550.00      23.45
 43.27     525.00      22.91
 43.37     492.42      22.19
 43.47     496.00      22.27
 43.57     535.00      23.13
 43.67     494.00      22.23
 43.77     519.00      22.78
 43.87     487.41      22.08
 43.97     516.00      22.72
 44.07     515.00      22.69
 44.17     502.00      22.41
 44.27     506.04      22.50
 44.37     540.00      23.24
 44.47     485.94      22.04
 44.57     495.00      22.25
 44.67     508.00      22.54
 44.77     534.00      23.11
 44.87     510.00      22.58
 44.97     516.00      22.72
 45.07     491.60      22.17
 45.17     494.00      22.23
 45.27     519.00      22.78
 45.37     528.01      22.98
 45.47     506.09      22.50
 45.57     483.00      21.98
 45.67     490.00      22.14
 45.77     509.00      22.56
 45.87     510.00      22.58
 45.97     516.00      22.72
 46.07     469.47      21.67
 46.17     507.00      22.52
 46.27     516.67      22.73
 46.37     464.00      21.54
 46.47     526.00      22.93
 46.57     476.00      21.82
 46.67     509.00      22.56
 46.77     497.57      22.31
 46.87     498.00      22.32
 46.97     530.00      23.02
 47.07     513.07      22.65
 47.17     525.76      22.93
 47.27     543.00      23.30
 47.37     567.00      23.81
 47.47     504.00      22.45
 47.57     574.00      23.96
 47.67     569.00      23.85
 47.77     622.00      24.94
 47.87     573.00      23.94
 47.97     627.32      25.05
 48.07     550.39      23.46
 48.17     620.00      24.90
 48.27     539.00      23.22
 48.37     536.00      23.15
 48.47     508.00      22.54
 48.57     533.00      23.09
 48.67     552.00      23.49
 48.77     534.26      23.11
 48.87     522.74      22.86
 48.97     586.00      24.21
 49.07     534.00      23.11
 49.17     564.00      23.75
 49.27     607.00      24.64
 49.37     652.25      25.54
 49.47     681.00      26.10
 49.57     813.00      28.51
 49.67     833.00      28.86
 49.77    1074.18      32.77
 49.87    1412.00      37.58
 49.97    1920.00      43.82
 50.07    2276.00      47.71
 50.17    2502.00      50.02
 50.27    2478.00      49.78
 50.37    2251.03      47.44
 50.47    1795.69      42.38
 50.57    1398.88      37.40
 50.67    1135.86      33.70
 50.77     907.07      30.12
 50.87     692.00      26.31
 50.97     623.00      24.96
 51.07     681.00      26.10
 51.17     595.41      24.40
 51.27     619.38      24.89
 51.37     602.43      24.54
 51.47     560.00      23.66
 51.57     595.00      24.39
 51.67     538.00      23.19
 51.77     541.85      23.28
 51.87     546.00      23.37
 51.97     563.00      23.73
 52.07     506.30      22.50
 52.17     564.00      23.75
 52.27     574.00      23.96
 52.37     539.65      23.23
 52.47     573.88      23.96
 52.57     583.78      24.16
 52.67     566.00      23.79
 52.77     642.00      25.34
 52.87     647.00      25.44
 52.97     716.28      26.76
 53.07     828.06      28.78
 53.17     905.00      30.08
 53.27    1029.00      32.08
 53.37    1097.66      33.13
 53.47    1216.00      34.87
 53.57    1166.21      34.15
 53.67    1114.00      33.38
 53.77    1029.00      32.08
 53.87     887.00      29.78
 53.97     780.00      27.93
 54.07     657.24      25.64
 54.17     617.17      24.84
 54.27     633.00      25.16
 54.37     591.00      24.31
 54.47     563.17      23.73
 54.57     507.14      22.52
 54.67     591.00      24.31
 54.77     527.58      22.97
 54.87     527.82      22.97
 54.97     584.00      24.17
 55.07     556.00      23.58
 55.17     573.00      23.94
 55.27     581.00      24.10
 55.37     531.00      23.04
 55.47     576.00      24.00
 55.57     593.00      24.35
 55.67     581.00      24.10
 55.77     570.00      23.87
 55.87     562.00      23.71
 55.97     639.00      25.28
 56.07     724.60      26.92
 56.17     736.61      27.14
 56.27     887.00      29.78
 56.37    1115.00      33.39
 56.47    1535.00      39.18
 56.57    1771.00      42.08
 56.67    2192.00      46.82
 56.77    2432.00      49.32
 56.87    2698.27      51.94
 56.97    2567.00      50.67
 57.07    2462.48      49.62
 57.17    2084.00      45.65
 57.27    1741.00      41.73
 57.37    1250.00      35.36
 57.47    1063.00      32.60
 57.57     888.65      29.81
 57.67     790.00      28.11
 57.77     658.92      25.67
 57.87     672.00      25.92
 57.97     646.29      25.42
 58.07     663.00      25.75
 58.17     678.76      26.05
 58.27     773.00      27.80
 58.37     904.97      30.08
 58.47     986.51      31.41
 58.57    1047.06      32.36
 58.67    1233.52      35.12
 58.77    1293.00      35.96
 58.87    1452.38      38.11
 58.97    1467.82      38.31
 59.07    1439.34      37.94
 59.17    1517.00      38.95
 59.27    1337.73      36.57
 59.37    1245.51      35.29
 59.47    1243.00      35.26
 59.57    1196.00      34.58
 59.67    1137.35      33.72
 59.77    1157.00      34.01
 59.87    1245.00      35.28
 59.97    1351.00      36.76
 60.07    1343.24      36.65
 60.17    1584.00      39.80
 60.27    1663.00      40.78
 60.37    1481.27      38.49
 60.47    1365.47      36.95
 60.57    1174.59      34.27
 60.67    1059.00      32.54
 60.77     892.00      29.87
 60.87     805.00      28.37
 60.97     756.60      27.51
 61.07     688.00      26.23
 61.17     613.00      24.76
 61.27     600.94      24.51
 61.37     605.64      24.61
 61.47     651.74      25.53
 61.57     715.55      26.75
 61.67     876.87      29.61
 61.77     945.00      30.74
 61.87    1085.00      32.94
 61.97    1298.04      36.03
 62.07    1373.02      37.05
 62.17    1476.11      38.42
 62.27    1369.50      37.01
 62.37    1255.00      35.43
 62.47    1117.00      33.42
 62.57    1032.00      32.12
 62.67     945.72      30.75
 62.77     795.00      28.20
 62.87     658.71      25.67
 62.97     684.25      26.16
 63.07     549.00      23.43
 63.17     601.00      24.52
 63.27     594.40      24.38
 63.37     578.00      24.04
 63.47     614.00      24.78
 63.57     570.29      23.88
 63.67     603.83      24.57
 63.77     609.00      24.68
 63.87     576.35      24.01
 63.97     670.44      25.89
 64.07     697.00      26.40
 64.17     745.00      27.29
 64.27     931.00      30.51
 64.37     955.00      30.90
 64.47     957.00      30.94
 64.57     989.91      31.46
 64.67    1042.00      32.28
 64.77    1005.00      31.70
 64.87     959.00      30.97
 64.97     926.00      30.43
 65.07     833.00      28.86
 65.17     767.61      27.71
 65.27     753.00      27.44
 65.37     695.00      26.36
 65.47     642.00      25.34
 65.57     617.00      24.84
 65.67     611.00      24.72
 65.77     564.00      23.75
 65.87     559.00      23.64
 65.97     495.00      22.25
 66.07     546.00      23.37
 66.17     588.64      24.26
 66.27     604.96      24.60
 66.37     564.78      23.77
 66.47     552.53      23.51
 66.57     544.00      23.32
 66.67     598.93      24.47
 66.77     557.00      23.60
 66.87     602.00      24.54
 66.97     633.00      25.16
 67.07     675.80      26.00
 67.17     687.00      26.21
 67.27     750.00      27.39
 67.37     912.26      30.20
 67.47    1075.00      32.79
 67.57    1295.00      35.99
 67.67    1577.61      39.72
 67.77    1777.63      42.16
 67.87    2080.00      45.61
 67.97    2245.47      47.39
 68.07    2473.48      49.73
 68.17    2460.00      49.60
 68.27    2309.00      48.05
 68.37    2156.70      46.44
 68.47    1866.34      43.20
 68.57    1483.30      38.51
 68.67    1270.00      35.64
 68.77     999.56      31.62
 68.87     860.00      29.33
 68.97     754.78      27.47
 69.07     791.00      28.12
 69.17     618.00      24.86
 69.27     620.73      24.91
 69.37     615.00      24.80
 69.47     593.23      24.36
 69.57     571.00      23.90
 69.67     605.00      24.60
 69.77     551.00      23.47
 69.87     625.00      25.00
 69.97     539.00      23.22
 70.07     592.85      24.35
 70.17     582.69      24.14
 70.27     596.00      24.41
 70.37     618.00      24.86
 70.47     544.00      23.32
 70.57     569.00      23.85
 70.67     583.00      24.15
 70.77     542.38      23.29
 70.87     570.00      23.87
 70.97     636.00      25.22
 71.07     673.00      25.94
 71.17     691.74      26.30
 71.27     822.00      28.67
 71.37     906.00      30.10
 71.47    1096.00      33.11
 71.57    1203.00      34.68
 71.67    1453.00      38.12
 71.77    1577.00      39.71
 71.87    1794.85      42.37
 71.97    1868.00      43.22
 72.07    1943.00      44.08
 72.17    1780.00      42.19
 72.27    1764.00      42.00
 72.37    1558.46      39.48
 72.47    1449.88      38.08
 72.57    1330.00      36.47
 72.67    1092.49      33.05
 72.77    1022.00      31.97
 72.87     951.57      30.85
 72.97     881.74      29.69
 73.07     740.00      27.20
 73.17     704.00      26.53
 73.27     726.37      26.95
 73.37     639.44      25.29
 73.47     628.38      25.07
 73.57     621.00      24.92
 73.67     588.44      24.26
 73.77     639.27      25.28
 73.87     612.00      24.74
 73.97     610.00      24.70
 74.07     588.00      24.25
 74.17     596.00      24.41
 74.27     631.00      25.12
 74.37     580.00      24.08
 74.47     595.66      24.41
 74.57     592.33      24.34
 74.67     633.00      25.16
 74.77     654.00      25.57
 74.87     630.00      25.10
 74.97     604.00      24.58
 75.07     568.45      23.84
 75.17     569.25      23.86
 75.27     613.00      24.76
 75.37     593.00      24.35
 75.47     549.46      23.44
 75.57     533.00      23.09
 75.67     557.48      23.61
 75.77     580.64      24.10
 75.87     621.28      24.93
 75.97     597.98      24.45
 76.07     600.86      24.51
 76.17     668.00      25.85
 76.27     653.00      25.55
 76.37     683.00      26.13
 76.47     713.00      26.70
 76.57     704.22      26.54
 76.67     675.00      25.98
 76.77     663.00      25.75
 76.87     663.00      25.75
 76.97     636.00      25.22
 77.07     645.00      25.40
 77.17     603.00      24.56
 77.27     590.00      24.29
 77.37     526.13      22.94
 77.47     547.00      23.39
 77.57     558.68      23.64
 77.67     565.29      23.78
 77.77     498.99      22.34
 77.87     550.89      23.47
 77.97     517.00      22.74
 78.07     514.22      22.68
 78.17     506.00      22.49
 78.27     542.00      23.28
 78.37     517.00      22.74
 78.47     503.00      22.43
 78.57     518.00      22.76
 78.67     515.28      22.70
 78.77     522.00      22.85
 78.87     503.26      22.43
 78.97     550.61      23.47
 79.07     483.00      21.98
 79.17     525.00      22.91
 79.27     525.00      22.91
 79.37     518.96      22.78
 79.47     544.47      23.33
 79.57     567.00      23.81
 79.67     519.00      22.78
 79.77     549.00      23.43
 79.87     533.49      23.10
 79.97     540.00      23.24
 80.07     600.14      24.50
 80.17     537.00      23.17
 80.27     539.00      23.22
 80.37     548.77      23.43
 80.47     627.38      25.05
 80.57     575.93      24.00
 80.67     632.00      25.14
 80.77     647.00      25.44
 80.87     699.54      26.45
 80.97     712.00      26.68
 81.07     737.00      27.15
 81.17     776.62      27.87
 81.27     751.00      27.40
 81.37     744.35      27.28
 81.47     807.43      28.42
 81.57     752.00      27.42
 81.67     773.00      27.80
 81.77     726.00      26.94
 81.87     734.00      27.09
 81.97     684.00      26.15
 82.07     683.40      26.14
 82.17     695.41      26.37
 82.27     645.00      25.40
 82.37     669.83      25.88
 82.47     593.00      24.35
 82.57     586.00      24.21
 82.67     564.00      23.75
 82.77     595.00      24.39
 82.87     586.00      24.21
 82.97     488.00      22.09
 83.07     513.00      22.65
 83.17     548.00      23.41
 83.27     520.00      22.80
 83.37     556.00      23.58
 83.47     529.00      23.00
 83.57     597.19      24.44
 83.67     549.00      23.43
 83.77     599.00      24.47
 83.87     576.00      24.00
 83.97     578.00      24.04
 84.07     535.66      23.14
 84.17     530.50      23.03
 84.27     610.47      24.71
 84.37     537.00      23.17
 84.47     548.00      23.41
 84.57     599.17      24.48
 84.67     533.00      23.09
 84.77     563.17      23.73
 84.87     542.00      23.28
 84.97     569.00      23.85
 85.07     549.00      23.43
 85.17     562.98      23.73
 85.27     526.00      22.93
 85.37     495.97      22.27
 85.47     513.00      22.65
 85.57     560.71      23.68
 85.67     552.00      23.49
 85.77     498.00      22.32
 85.87     524.00      22.89
 85.97     555.30      23.56
 86.07     526.00      22.93
 86.17     558.93      23.64
 86.27     494.00      22.23
 86.37     515.00      22.69
 86.47     545.00      23.35
 86.57     549.42      23.44
 86.67     603.64      24.57
 86.77     626.08      25.02
 86.87     587.00      24.23
 86.97     579.00      24.06
 87.07     573.17      23.94
 87.17     664.22      25.77
 87.27     687.00      26.21
 87.37     689.00      26.25
 87.47     683.00      26.13
 87.57     635.00      25.20
 87.67     632.32      25.15
 87.77     656.38      25.62
 87.87     621.00      24.92
 87.97     628.00      25.06
 88.07     655.00      25.59
 88.17     612.00      24.74
 88.27     539.56      23.23
 88.37     585.00      24.19
 88.47     581.00      24.10
 88.57     595.00      24.39
 88.67     524.00      22.89
 88.77     559.46      23.65
 88.87     564.00      23.75
 88.97     584.07      24.17
 89.07     595.00      24.39
 89.17     614.75      24.79
 89.27     581.00      24.10
 89.37     614.00      24.78
 89.47     642.23      25.34
 89.57     597.00      24.43
 89.67     543.00      23.30
 89.77     576.00      24.00
 89.87     537.95      23.19
 89.97     553.00      23.52
 90.07     534.00      23.11
 90.17     557.00      23.60
 90.27     531.00      23.04
 90.37     575.05      23.98
 90.47     517.32      22.74
 90.57     520.00      22.80
 90.67     528.00      22.98
 90.77     534.00      23.11
 90.87     533.00      23.09
 90.97     485.00      22.02
 91.07     532.00      23.07
 91.17     506.00      22.49
 91.27     517.00      22.74
 91.37     567.26      23.82
 91.47     515.00      22.69
 91.57     529.08      23.00
 91.67     527.85      22.97
 91.77     528.34      22.99
 91.87     527.00      22.96
 91.97     556.00      23.58
 92.07     575.32      23.99
 92.17     583.00      24.15
 92.27     598.00      24.45
 92.37     606.00      24.62
 92.47     580.60      24.10
 92.57     646.00      25.42
 92.67     667.00      25.83
 92.77     655.64      25.61
 92.87     791.00      28.12
 92.97     663.00      25.75
 93.07     755.00      27.48
 93.17     786.00      28.04
 93.27     771.09      27.77
 93.37     817.07      28.58
 93.47     849.00      29.14
 93.57     827.00      28.76
 93.67     818.38      28.61
 93.77     878.00      29.63
 93.87     834.38      28.89
 93.97     881.13      29.68
 94.07     818.00      28.60
 94.17     799.00      28.27
 94.27     795.71      28.21
 94.37     817.85      28.60
 94.47     931.00      30.51
 94.57     844.77      29.06
 94.67     891.00      29.85
 94.77     913.65      30.23
 94.87     839.60      28.98
 94.97     887.00      29.78
 95.07     913.00      30.22
 95.17     913.00      30.22
 95.27     860.00      29.33
 95.37     754.67      27.47
 95.47     805.00      28.37
 95.57     808.00      28.43
 95.67     707.28      26.59
 95.77     720.00      26.83
 95.87     715.00      26.74
 95.97     708.00      26.61
 96.07     651.72      25.53
 96.17     732.30      27.06
 96.27     753.74      27.45
 96.37     770.00      27.75
 96.47     778.00      27.89
 96.57     873.42      29.55
 96.67     966.22      31.08
 96.77    1057.00      32.51
 96.87    1102.89      33.21
 96.97    1180.91      34.36
 97.07    1203.73      34.69
 97.17    1278.00      35.75
 97.27    1361.00      36.89
 97.37    1336.00      36.55
 97.47    1378.80      37.13
 97.57    1368.10      36.99
 97.67    1478.53      38.45
 97.77    1339.00      36.59
 97.87    1391.00      37.30
 97.97    1239.00      35.20
 98.07    1211.00      34.80
 98.17    1160.00      34.06
 98.27    1055.17      32.48
 98.37    1039.00      32.23
 98.47     940.00      30.66
 98.57     876.25      29.60
 98.67     841.00      29.00
 98.77     817.00      28.58
 98.87     827.00      28.76
 98.97     818.00      28.60
 99.07     858.46      29.30
 99.17     867.00      29.44
 99.27     940.86      30.67
 99.37     997.00      31.58
 99.47    1016.00      31.87
 99.57    1110.00      33.32
 99.67    1200.00      34.64
 99.77    1326.31      36.42
 99.87    1393.00      37.32
 99.97    1466.04      38.29
100.07    1689.00      41.10
100.17    1786.00      42.26
100.27    1827.42      42.75
100.37    1837.00      42.86
100.47    1995.71      44.67
100.57    2080.00      45.61
100.67    2035.69      45.12
100.77    2101.35      45.84
100.87    2080.37      45.61
100.97    2107.00      45.90
101.07    1959.00      44.26
101.17    1871.00      43.26
101.27    1833.49      42.82
101.37    1691.57      41.13
101.47    1550.00      39.37
101.57    1509.93      38.86
101.67    1446.12      38.03
101.77    1402.93      37.46
101.87    1282.00      35.81
101.97    1252.00      35.38
102.07    1180.00      34.35
102.17    1092.00      33.05
102.27    1091.00      33.03
102.37    1122.01      33.50
102.47    1048.94      32.39
102.57    1083.00      32.91
102.67    1108.28      33.29
102.77    1077.36      32.82
102.87    1033.00      32.14
102.97     979.40      31.30
103.07     930.00      30.50
103.17     879.00      29.65
103.27     844.29      29.06
103.37     816.00      28.57
103.47     744.00      27.28
103.57     764.21      27.64
103.67     691.00      26.29
103.77     708.00      26.61
103.87     675.14      25.98
103.97     610.00      24.70
104.07     625.00      25.00
104.17     538.23      23.20
104.27     565.00      23.77
104.37     562.35      23.71
104.47     583.82      24.16
104.57     570.00      23.87
104.67     571.00      23.90
104.77     542.14      23.28
104.87     572.00      23.92
104.97     511.00      22.61
105.07     556.00      23.58
105.17     560.00      23.66
105.27     547.00      23.39
105.37     547.00      23.39
105.47     506.30      22.50
105.57     548.00      23.41
105.67     572.35      23.92
105.77     525.00      22.91
105.87     532.07      23.07
105.97     566.00      23.79
106.07     555.00      23.56
106.17     608.00      24.66
106.27     628.22      25.06
106.37     596.00      24.41
106.47     614.00      24.78
106.57     565.00      23.77
106.67     629.00      25.08
106.77     677.25      26.02
106.87     614.00      24.78
106.97     621.00      24.92
107.07     711.43      26.67
107.17     664.00      25.77
107.27     723.09      26.89
107.37     744.75      27.29
107.47     675.00      25.98
107.57     748.24      27.35
107.67     674.62      25.97
107.77     659.00      25.67
107.87     696.00      26.38
107.97     738.25      27.17
108.07     638.00      25.26
108.17     690.00      26.27
108.27     719.00      26.81
108.37     631.00      25.12
108.47     694.00      26.34
108.57     649.75      25.49
108.67     682.00      26.12
108.77     711.40      26.67
108.87     677.00      26.02
108.97     715.00      26.74
109.07     663.00      25.75
109.17     702.00      26.50
109.27     687.24      26.22
109.37     653.00      25.55
109.47     597.00      24.43
109.57     626.00      25.02
109.67     628.00      25.06
109.77     617.00      24.84
109.87     614.00      24.78
109.97     596.00      24.41
110.07     634.00      25.18
110.17     586.00      24.21
110.27     610.00      24.70
110.37     603.00      24.56
110.47     573.00      23.94
110.57     499.04      22.34
110.67     558.00      23.62
110.77     588.00      24.25
110.87     549.21      23.44
110.97     527.00      22.96
111.07     530.61      23.03
111.17     506.67      22.51
111.27     581.00      24.10
111.37     499.67      22.35
111.47     552.00      23.49
111.57     541.00      23.26
111.67     514.00      22.67
111.77     526.02      22.94
111.87     511.00      22.61
111.97     521.00      22.83
112.07     537.00      23.17
112.17     578.00      24.04
112.27     641.00      25.32
112.37     584.00      24.17
112.47     552.00      23.49
112.57     668.00      25.85
112.67     597.00      24.43
112.77     636.70      25.23
112.87     654.00      25.57
112.97     640.00      25.30
113.07     640.00      25.30
113.17     678.00      26.04
113.27     712.00      26.68
113.37     728.00      26.98
113.47     752.00      27.42
113.57     831.00      28.83
113.67     790.00      28.11
113.77     790.95      28.12
113.87     909.39      30.16
113.97     889.41      29.82
114.07     942.94      30.71
114.17    1040.00      32.25
114.27    1027.00      32.05
114.37    1195.00      34.57
114.47    1292.00      35.94
114.57    1322.00      36.36
114.67    1564.00      39.55
114.77    1648.34      40.60
114.87    1910.00      43.70
114.97    2093.00      45.75
115.07    2485.00      49.85
115.17    2583.00      50.82
115.27    2799.05      52.91
115.37    3040.00      55.14
115.47    3470.00      58.91
115.57    3779.00      61.47
115.67    4066.00      63.77
115.77    4471.00      66.87
115.87    4805.00      69.32
115.97    5172.00      71.92
116.07    5675.00      75.33
116.17    5837.00      76.40
116.27    6353.35      79.71
116.37    6575.00      81.09
116.47    6696.00      81.83
116.57    6932.72      83.26
116.67    6988.00      83.59
116.77    6923.04      83.20
116.87    6634.19      81.45
116.97    6609.00      81.30
117.07    6417.00      80.11
117.17    6004.00      77.49
117.27    5792.33      76.11
117.37    5272.00      72.61
117.47    4950.00      70.36
117.57    4562.00      67.54
117.67    4341.00      65.89
117.77    4019.00      63.40
117.87    3472.00      58.92
117.97    3270.63      57.19
118.07    2913.00      53.97
118.17    2550.00      50.50
118.27    2247.93      47.41
118.37    2040.21      45.17
118.47    1807.00      42.51
118.57    1571.00      39.64
118.67    1499.42      38.72
118.77    1259.00      35.48
118.87    1122.00      33.50
118.97    1095.00      33.09
119.07    1026.00      32.03
119.17     901.00      30.02
119.27     800.78      28.30
119.37     825.00      28.72
119.47     816.00      28.57
119.57     706.00      26.57
119.67     662.00      25.73
119.77     622.03      24.94
119.87     623.50      24.97
119.97     597.64      24.45
120.07     605.00      24.60
120.17     601.00      24.52
120.27     576.50      24.01
120.37     591.00      24.31
120.47     590.00      24.29
120.57     528.00      22.98
120.67     536.00      23.15
120.77     530.00      23.02
120.87     575.00      23.98
120.97     544.00      23.32
121.07     569.00      23.85
121.17     555.03      23.56
121.27     617.08      24.84
121.37     565.00      23.77
121.47     617.75      24.85
121.57     610.00      24.70
121.67     563.05      23.73
121.77     559.61      23.66
121.87     566.00      23.79
121.97     615.00      24.80
122.07     592.04      24.33
122.17     606.00      24.62
122.27     578.00      24.04
122.37     636.00      25.22
122.47     672.73      25.94
122.57     640.00      25.30
122.67     695.00      26.36
122.77     659.00      25.67
122.87     667.27      25.83
122.97     646.00      25.42
123.07     650.76      25.51
123.17     601.73      24.53
123.27     614.00      24.78
123.37     661.00      25.71
123.47     576.00      24.00
123.57     666.21      25.81
123.67     624.00      24.98
123.77     585.95      24.21
123.87     636.69      25.23
123.97     650.00      25.50
124.07     615.67      24.81
124.17     634.00      25.18
124.27     649.80      25.49
124.37     590.00      24.29
124.47     637.00      25.24
124.57     611.00      24.72
124.67     571.43      23.90
124.77     573.00      23.94
124.87     594.00      24.37
124.97     634.00      25.18
