  9.97     595.00      24.39
 10.07     570.00      23.87
 10.17     519.46      22.79
 10.27     629.28      25.09
 10.37     586.00      24.21
 10.47     623.00      24.96
 10.57     567.00      23.81
 10.67     580.62      24.10
 10.77     613.00      24.76
 10.87     589.00      24.27
 10.97     607.00      24.64
 11.07     603.09      24.56
 11.17     619.45      24.89
 11.27     612.00      24.74
 11.37     547.00      23.39
 11.47     594.00      24.37
 11.57     632.00      25.14
 11.67     616.41      24.83
 11.77     637.00      25.24
 11.87     653.00      25.55
 11.97     656.00      25.61
 12.07     716.00      26.76
 12.17     698.00      26.42
 12.27     672.00      25.92
 12.37     643.00      25.36
 12.47     636.00      25.22
 12.57     624.00      24.98
 12.67     551.50      23.48
 12.77     601.00      24.52
 12.87     538.12      23.20
 12.97     546.00      23.37
 13.07     545.00      23.35
 13.17     588.35      24.26
 13.27     554.00      23.54
 13.37     582.00      24.12
 13.47     501.00      22.38
 13.57     564.00      23.75
 13.67     540.30      23.24
 13.77     539.50      23.23
 13.87     624.95      25.00
 13.97     565.00      23.77
 14.07     594.62      24.38
 14.17     553.00      23.52
 14.27     616.39      24.83
 14.37     522.80      22.86
 14.47     584.94      24.19
 14.57     595.00      24.39
 14.67     537.00      23.17
 14.77     554.00      23.54
 14.87     552.00      23.49
 14.97     534.97      23.13
 15.07     566.00      23.79
 15.17     600.00      24.49
 15.27     588.47      24.26
 15.37     549.00      23.43
 15.47     534.00      23.11
 15.57     522.58      22.86
 15.67     567.00      23.81
 15.77     559.00      23.64
 15.87     556.12      23.58
 15.97     556.68      23.59
 16.07     571.00      23.90
 16.17     569.03      23.85
 16.27     559.00      23.64
 16.37     583.00      24.15
 16.47     601.32      24.52
 16.57     533.00      23.09
 16.67     502.00      22.41
 16.77     577.00      24.02
 16.87     561.00      23.69
 16.97     597.00      24.43
 17.07     589.00      24.27
 17.17     590.47      24.30
 17.27     591.00      24.31
 17.37     556.00      23.58
 17.47     551.00      23.47
 17.57     520.00      22.80
 17.67     574.21      23.96
 17.77     541.00      23.26
 17.87     567.00      23.81
 17.97     595.00      24.39
 18.07     576.00      24.00
 18.17     529.00      23.00
 18.27     531.00      23.04
 18.37     537.00      23.17
 18.47     548.00      23.41
 18.57     587.23      24.23
 18.67     562.00      23.71
 18.77     598.31      24.46
 18.87     580.00      24.08
 18.97     548.00      23.41
 19.07     588.00      24.25
 19.17     535.00      23.13
 19.27     594.00      24.37
 19.37     538.21      23.20
 19.47     539.00      23.22
 19.57     521.00      22.83
 19.67     554.52      23.55
 19.77     592.00      24.33
 19.87     526.00      22.93
 19.97     559.98      23.66
 20.07     509.64      22.58
 20.17     570.00      23.87
 20.27     560.03      23.67
 20.37     545.00      23.35
 20.47     555.00      23.56
 20.57     536.00      23.15
 20.67     558.99      23.64
 20.77     576.05      24.00
 20.87     529.00      23.00
 20.97     557.30      23.61
 21.07     580.00      24.08
 21.17     508.16      22.54
 21.27     562.00      23.71
 21.37     540.00      23.24
 21.47     541.00      23.26
 21.57     508.00      22.54
 21.67     595.00      24.39
 21.77     597.36      24.44
 21.87     512.64      22.64
 21.97     556.17      23.58
 22.07     539.00      23.22
 22.17     540.00      23.24
 22.27     536.00      23.15
 22.37     552.00      23.49
 22.47     555.00      23.56
 22.57     514.54      22.68
 22.67     532.00      23.07
 22.77     592.67      24.34
 22.87     548.32      23.42
 22.97     513.00      22.65
 23.07     559.00      23.64
 23.17     512.00      22.63
 23.27     569.00      23.85
 23.37     551.85      23.49
 23.47     535.00      23.13
 23.57     597.34      24.44
 23.67     510.00      22.58
 23.77     527.00      22.96
 23.87     544.00      23.32
 23.97     593.00      24.35
 24.07     557.00      23.60
 24.17     536.00      23.15
 24.27     551.42      23.48
 24.37     589.43      24.28
 24.47     637.00      25.24
 24.57     586.00      24.21
 24.67     653.55      25.56
 24.77     610.85      24.72
 24.87     665.00      25.79
 24.97     636.00      25.22
 25.07     617.00      24.84
 25.17     575.00      23.98
 25.27     598.00      24.45
 25.37     531.00      23.04
 25.47     563.00      23.73
 25.57     520.60      22.82
 25.67     504.01      22.45
 25.77     558.00      23.62
 25.87     543.00      23.30
 25.97     566.75      23.81
 26.07     520.00      22.80
 26.17     560.00      23.66
 26.27     515.69      22.71
 26.37     566.00      23.79
 26.47     537.20      23.18
 26.57     567.80      23.83
 26.67     543.54      23.31
 26.77     551.87      23.49
 26.87     490.24      22.14
 26.97     609.00      24.68
 27.07     519.15      22.78
 27.17     555.00      23.56
 27.27     558.00      23.62
 27.37     496.67      22.29
 27.47     500.13      22.36
 27.57     558.94      23.64
 27.67     496.35      22.28
 27.77     571.00      23.90
 27.87     609.00      24.68
 27.97     686.00      26.19
 28.07     741.33      27.23
 28.17     861.20      29.35
 28.27    1000.61      31.63
 28.37     874.00      29.56
 28.47     821.90      28.67
 28.57     685.00      26.17
 28.67     702.00      26.50
 28.77     784.15      28.00
 28.87     834.55      28.89
 28.97     811.69      28.49
 29.07     726.00      26.94
 29.17     725.00      26.93
 29.27     675.45      25.99
 29.37     600.00      24.49
 29.47     570.00      23.87
 29.57     544.07      23.33
 29.67     527.10      22.96
 29.77     558.00      23.62
 29.87     566.00      23.79
 29.97     568.48      23.84
 30.07     549.10      23.43
 30.17     556.00      23.58
 30.27     570.00      23.87
 30.37     597.00      24.43
 30.47     580.41      24.09
 30.57     544.00      23.32
 30.67     549.92      23.45
 30.77     669.00      25.87
 30.87     614.92      24.80
 30.97     595.00      24.39
 31.07     636.00      25.22
 31.17     579.00      24.06
 31.27     518.91      22.78
 31.37     530.77      23.04
 31.47     568.45      23.84
 31.57     526.00      22.93
 31.67     563.00      23.73
 31.77     516.00      22.72
 31.87     543.00      23.30
 31.97     481.02      21.93
 32.07     565.00      23.77
 32.17     534.00      23.11
 32.27     536.00      23.15
 32.37     536.73      23.17
 32.47     490.91      22.16
 32.57     552.15      23.50
 32.67     533.00      23.09
 32.77     555.00      23.56
 32.87     536.14      23.15
 32.97     536.00      23.15
 33.07     518.26      22.77
 33.17     550.08      23.45
 33.27     508.00      22.54
 33.37     516.01      22.72
 33.47     588.63      24.26
 33.57     601.27      24.52
 33.67     641.36      25.33
 33.77     765.83      27.67
 33.87     855.00      29.24
 33.97    1080.00      32.86
 34.07    1108.00      33.29
 34.17    1075.56      32.80
 34.27     884.00      29.73
 34.37     752.70      27.44
 34.47     656.00      25.61
 34.57     559.00      23.64
 34.67     546.00      23.37
 34.77     549.00      23.43
 34.87     536.00      23.15
 34.97     575.15      23.98
 35.07     548.00      23.41
 35.17     536.83      23.17
 35.27     541.00      23.26
 35.37     542.98      23.30
 35.47     528.00      22.98
 35.57     506.00      22.49
 35.67     565.40      23.78
 35.77     483.53      21.99
 35.87     562.00      23.71
 35.97     535.00      23.13
 36.07     521.00      22.83
 36.17     516.45      22.73
 36.27     519.00      22.78
 36.37     542.81      23.30
 36.47     523.00      22.87
 36.57     483.00      21.98
 36.67     537.00      23.17
 36.77     537.00      23.17
 36.87     524.00      22.89
 36.97     541.30      23.27
 37.07     490.00      22.14
 37.17     486.76      22.06
 37.27     553.00      23.52
 37.37     496.00      22.27
 37.47     491.00      22.16
 37.57     497.00      22.29
 37.67     547.00      23.39
 37.77     503.00      22.43
 37.87     532.00      23.07
 37.97     496.21      22.28
 38.07     507.00      22.52
 38.17     465.45      21.57
 38.27     551.99      23.49
 38.37     488.00      22.09
 38.47     518.00      22.76
 38.57     502.00      22.41
 38.67     517.48      22.75
 38.77     497.00      22.29
 38.87     515.00      22.69
 38.97     503.00      22.43
 39.07     504.00      22.45
 39.17     549.00      23.43
 39.27     548.47      23.42
 39.37     474.95      21.79
 39.47     508.00      22.54
 39.57     553.60      23.53
 39.67     527.00      22.96
 39.77     500.64      22.38
 39.87     469.00      21.66
 39.97     483.00      21.98
 40.07     493.00      22.20
 40.17     505.00      22.47
 40.27     482.00      21.95
 40.37     521.22      22.83
 40.47     432.00      20.78
 40.57     501.00      22.38
 40.67     497.00      22.29
 40.77     510.78      22.60
 40.87     487.90      22.09
 40.97     470.00      21.68
 41.07     518.00      22.76
 41.17     476.10      21.82
 41.27     475.00      21.79
 41.37     507.00      22.52
 41.47     516.00      22.72
 41.57     529.01      23.00
 41.67     490.09      22.14
 41.77     464.10      21.54
 41.87     507.13      22.52
 41.97     541.38      23.27
 42.07     547.00      23.39
 42.17     499.73      22.35
 42.27     557.00      23.60
 42.37     562.37      23.71
 42.47     559.73      23.66
 42.57     594.84      24.39
 42.67     578.00      24.04
 42.77     582.00      24.12
 42.87     584.00      24.17
 42.97     575.00      23.98
 43.07     536.47      23.16
 43.17     531.00      23.04
 43.27     501.00      22.38
 43.37     483.84      22.00
 43.47     492.00      22.18
 43.57     502.00      22.41
 43.67     530.86      23.04
 43.77     474.00      21.77
 43.87     557.18      23.60
 43.97     529.00      23.00
 44.07     511.00      22.61
 44.17     517.81      22.76
 44.27     524.56      22.90
 44.37     497.00      22.29
 44.47     492.00      22.18
 44.57     536.00      23.15
 44.67     496.00      22.27
 44.77     495.00      22.25
 44.87     537.91      23.19
 44.97     535.00      23.13
 45.07     477.00      21.84
 45.17     519.00      22.78
 45.27     490.00      22.14
 45.37     515.00      22.69
 45.47     489.00      22.11
 45.57     496.00      22.27
 45.67     490.00      22.14
 45.77     548.00      23.41
 45.87     545.02      23.35
 45.97     490.00      22.14
 46.07     494.00      22.23
 46.17     492.00      22.18
 46.27     512.00      22.63
 46.37     466.12      21.59
 46.47     508.00      22.54
 46.57     487.00      22.07
 46.67     478.75      21.88
 46.77     497.00      22.29
 46.87     568.00      23.83
 46.97     538.00      23.19
 47.07     497.00      22.29
 47.17     543.11      23.30
 47.27     491.00      22.16
 47.37     561.97      23.71
 47.47     586.00      24.21
 47.57     588.00      24.25
 47.67     606.00      24.62
 47.77     540.00      23.24
 47.87     572.00      23.92
 47.97     553.46      23.53
 48.07     613.05      24.76
 48.17     586.00      24.21
 48.27     575.00      23.98
 48.37     588.39      24.26
 48.47     543.86      23.32
 48.57     551.11      23.48
 48.67     513.35      22.66
 48.77     537.00      23.17
 48.87     593.00      24.35
 48.97     521.00      22.83
 49.07     533.95      23.11
 49.17     594.00      24.37
 49.27     587.00      24.23
 49.37     645.00      25.40
 49.47     669.00      25.87
 49.57     679.59      26.07
 49.67     928.94      30.48
 49.77    1168.00      34.18
 49.87    1477.00      38.43
 49.97    1826.00      42.73
 50.07    2291.00      47.86
 50.17    2568.36      50.68
 50.27    2575.97      50.75
 50.37    2243.00      47.36
 50.47    1832.00      42.80
 50.57    1465.40      38.28
 50.67    1092.88      33.06
 50.77     909.76      30.16
 50.87     687.00      26.21
 50.97     715.00      26.74
 51.07     647.00      25.44
 51.17     636.16      25.22
 51.27     562.00      23.71
 51.37     621.00      24.92
 51.47     622.50      24.95
 51.57     566.00      23.79
 51.67     531.00      23.04
 51.77     532.00      23.07
 51.87     566.00      23.79
 51.97     559.82      23.66
 52.07     503.79      22.45
 52.17     486.00      22.05
 52.27     582.00      24.12
 52.37     549.00      23.43
 52.47     544.99      23.34
 52.57     578.00      24.04
 52.67     592.00      24.33
 52.77     581.45      24.11
 52.87     637.00      25.24
 52.97     716.00      26.76
 53.07     844.00      29.05
 53.17     963.00      31.03
 53.27    1028.75      32.07
 53.37    1143.80      33.82
 53.47    1165.00      34.13
 53.57    1180.00      34.35
 53.67    1202.18      34.67
 53.77     967.00      31.10
 53.87     865.00      29.41
 53.97     806.00      28.39
 54.07     649.00      25.48
 54.17     664.00      25.77
 54.27     609.00      24.68
 54.37     581.58      24.12
 54.47     567.00      23.81
 54.57     557.00      23.60
 54.67     583.89      24.16
 54.77     568.00      23.83
 54.87     586.25      24.21
 54.97     528.75      22.99
 55.07     583.00      24.15
 55.17     546.12      23.37
 55.27     588.74      24.26
 55.37     607.00      24.64
 55.47     565.00      23.77
 55.57     595.00      24.39
 55.67     615.00      24.80
 55.77     561.00      23.69
 55.87     635.65      25.21
 55.97     630.00      25.10
 56.07     657.00      25.63
 56.17     790.07      28.11
 56.27     896.00      29.93
 56.37    1176.00      34.29
 56.47    1444.72      38.01
 56.57    1852.38      43.04
 56.67    2130.00      46.15
 56.77    2505.00      50.05
 56.87    2603.00      51.02
 56.97    2575.00      50.74
 57.07    2328.00      48.25
 57.17    2129.00      46.14
 57.27    1664.00      40.79
 57.37    1245.33      35.29
 57.47    1043.17      32.30
 57.57     882.00      29.70
 57.67     799.00      28.27
 57.77     748.00      27.35
 57.87     673.00      25.94
 57.97     665.00      25.79
 58.07     710.00      26.65
 58.17     658.94      25.67
 58.27     718.61      26.81
 58.37     788.00      28.07
 58.47     994.00      31.53
 58.57    1037.00      32.20
 58.67    1117.00      33.42
 58.77    1281.00      35.79
 58.87    1364.34      36.94
 58.97    1381.00      37.16
 59.07    1405.71      37.49
 59.17    1405.78      37.49
 59.27    1427.00      37.78
 59.37    1359.00      36.86
 59.47    1143.06      33.81
 59.57    1179.00      34.34
 59.67    1178.00      34.32
 59.77    1217.00      34.89
 59.87    1189.72      34.49
 59.97    1367.00      36.97
 60.07    1337.92      36.58
 60.17    1487.00      38.56
 60.27    1606.00      40.07
 60.37    1427.96      37.79
 60.47    1405.00      37.48
 60.57    1216.27      34.88
 60.67    1107.86      33.28
 60.77     950.00      30.82
 60.87     809.18      28.45
 60.97     662.58      25.74
 61.07     675.00      25.98
 61.17     667.99      25.85
 61.27     647.00      25.44
 61.37     656.00      25.61
 61.47     724.00      26.91
 61.57     769.24      27.74
 61.67     905.92      30.10
 61.77     945.00      30.74
 61.87    1158.36      34.03
 61.97    1259.00      35.48
 62.07    1415.88      37.63
 62.17    1395.00      37.35
 62.27    1372.00      37.04
 62.37    1347.94      36.71
 62.47    1271.83      35.66
 62.57    1009.00      31.76
 62.67     882.00      29.70
 62.77     754.09      27.46
 62.87     656.00      25.61
 62.97     658.00      25.65
 63.07     616.00      24.82
 63.17     612.24      24.74
 63.27     578.00      24.04
 63.37     592.86      24.35
 63.47     570.89      23.89
 63.57     609.13      24.68
 63.67     599.00      24.47
 63.77     586.21      24.21
 63.87     612.00      24.74
 63.97     694.00      26.34
 64.07     744.00      27.28
 64.17     814.00      28.53
 64.27     859.17      29.31
 64.37     961.00      31.00
 64.47     936.20      30.60
 64.57     983.59      31.36
 64.67    1019.00      31.92
 64.77     969.00      31.13
 64.87     973.00      31.19
 64.97     899.00      29.98
 65.07     844.47      29.06
 65.17     799.50      28.28
 65.27     718.00      26.80
 65.37     649.57      25.49
 65.47     645.00      25.40
 65.57     646.27      25.42
 65.67     558.00      23.62
 65.77     640.30      25.30
 65.87     537.00      23.17
 65.97     546.00      23.37
 66.07     603.00      24.56
 66.17     514.00      22.67
 66.27     575.75      23.99
 66.37     511.00      22.61
 66.47     592.56      24.34
 66.57     562.00      23.71
 66.67     588.76      24.26
 66.77     585.00      24.19
 66.87     628.00      25.06
 66.97     602.00      24.54
 67.07     601.00      24.52
 67.17     703.29      26.52
 67.27     773.00      27.80
 67.37     876.00      29.60
 67.47    1100.62      33.18
 67.57    1290.78      35.93
 67.67    1569.00      39.61
 67.77    1871.00      43.26
 67.87    2075.56      45.56
 67.97    2414.00      49.13
 68.07    2391.00      48.90
 68.17    2351.00      48.49
 68.27    2265.00      47.59
 68.37    1992.00      44.63
 68.47    1789.00      42.30
 68.57    1547.00      39.33
 68.67    1216.28      34.88
 68.77    1065.05      32.64
 68.87     911.00      30.18
 68.97     764.00      27.64
 69.07     726.00      26.94
 69.17     660.00      25.69
 69.27     628.00      25.06
 69.37     626.01      25.02
 69.47     579.00      24.06
 69.57     550.00      23.45
 69.67     571.00      23.90
 69.77     588.24      24.25
 69.87     569.90      23.87
 69.97     552.21      23.50
 70.07     594.00      24.37
 70.17     620.00      24.90
 70.27     637.00      25.24
 70.37     544.00      23.32
 70.47     597.00      24.43
 70.57     613.00      24.76
 70.67     548.00      23.41
 70.77     643.45      25.37
 70.87     613.00      24.76
 70.97     653.00      25.55
 71.07     636.91      25.24
 71.17     767.00      27.69
 71.27     876.78      29.61
 71.37     960.59      30.99
 71.47    1118.00      33.44
 71.57    1326.98      36.43
 71.67    1506.00      38.81
 71.77    1599.00      39.99
 71.87    1789.22      42.30
 71.97    1915.26      43.76
 72.07    1856.22      43.08
 72.17    1867.00      43.21
 72.27    1723.00      41.51
 72.37    1601.00      40.01
 72.47    1400.00      37.42
 72.57    1319.00      36.32
 72.67    1128.00      33.59
 72.77     987.00      31.42
 72.87     889.00      29.82
 72.97     795.00      28.20
 73.07     830.96      28.83
 73.17     728.00      26.98
 73.27     690.72      26.28
 73.37     658.00      25.65
 73.47     692.15      26.31
 73.57     641.00      25.32
 73.67     580.86      24.10
 73.77     657.60      25.64
 73.87     575.00      23.98
 73.97     570.00      23.87
 74.07     655.00      25.59
 74.17     585.00      24.19
 74.27     631.00      25.12
 74.37     638.00      25.26
 74.47     637.00      25.24
 74.57     608.00      24.66
 74.67     641.00      25.32
 74.77     532.51      23.08
 74.87     592.34      24.34
 74.97     600.00      24.49
 75.07     579.00      24.06
 75.17     603.00      24.56
 75.27     582.00      24.12
 75.37     609.00      24.68
 75.47     578.00      24.04
 75.57     534.59      23.12
 75.67     589.00      24.27
 75.77     616.51      24.83
 75.87     613.00      24.76
 75.97     665.42      25.80
 76.07     636.00      25.22
 76.17     650.00      25.50
 76.27     626.00      25.02
 76.37     672.23      25.93
 76.47     684.00      26.15
 76.57     699.00      26.44
 76.67     720.00      26.83
 76.77     668.00      25.85
 76.87     706.14      26.57
 76.97     643.00      25.36
 77.07     616.00      24.82
 77.17     564.00      23.75
 77.27     598.00      24.45
 77.37     589.00      24.27
 77.47     605.98      24.62
 77.57     550.00      23.45
 77.67     590.63      24.30
 77.77     527.00      22.96
 77.87     506.00      22.49
 77.97     515.00      22.69
 78.07     491.00      22.16
 78.17     566.31      23.80
 78.27     522.00      22.85
 78.37     529.00      23.00
 78.47     529.00      23.00
 78.57     519.00      22.78
 78.67     516.00      22.72
 78.77     542.00      23.28
 78.87     514.26      22.68
 78.97     479.00      21.89
 79.07     495.00      22.25
 79.17     509.00      22.56
 79.27     573.00      23.94
 79.37     490.00      22.14
 79.47     544.76      23.34
 79.57     514.00      22.67
 79.67     500.00      22.36
 79.77     541.00      23.26
 79.87     537.00      23.17
 79.97     567.00      23.81
 80.07     556.56      23.59
 80.17     603.75      24.57
 80.27     511.00      22.61
 80.37     518.00      22.76
 80.47     627.00      25.04
 80.57     611.00      24.72
 80.67     603.21      24.56
 80.77     635.97      25.22
 80.87     723.74      26.90
 80.97     758.46      27.54
 81.07     695.00      26.36
 81.17     758.00      27.53
 81.27     712.00      26.68
 81.37     755.28      27.48
 81.47     694.00      26.34
 81.57     770.00      27.75
 81.67     791.00      28.12
 81.77     801.00      28.30
 81.87     754.68      27.47
 81.97     637.36      25.25
 82.07     704.00      26.53
 82.17     657.00      25.63
 82.27     649.00      25.48
 82.37     662.00      25.73
 82.47     597.00      24.43
 82.57     615.39      24.81
 82.67     596.09      24.41
 82.77     629.92      25.10
 82.87     568.00      23.83
 82.97     607.48      24.65
 83.07     594.00      24.37
 83.17     591.00      24.31
 83.27     518.05      22.76
 83.37     527.00      22.96
 83.47     562.00      23.71
 83.57     582.02      24.13
 83.67     534.58      23.12
 83.77     530.26      23.03
 83.87     556.00      23.58
 83.97     538.00      23.19
 84.07     617.03      24.84
 84.17     629.59      25.09
 84.27     621.00      24.92
 84.37     551.00      23.47
 84.47     614.00      24.78
 84.57     544.15      23.33
 84.67     608.00      24.66
 84.77     558.00      23.62
 84.87     585.93      24.21
 84.97     514.87      22.69
 85.07     520.00      22.80
 85.17     553.00      23.52
 85.27     506.00      22.49
 85.37     500.52      22.37
 85.47     568.00      23.83
 85.57     531.00      23.04
 85.67     515.00      22.69
 85.77     554.00      23.54
 85.87     563.93      23.75
 85.97     560.00      23.66
 86.07     469.00      21.66
 86.17     539.00      23.22
 86.27     571.00      23.90
 86.37     532.00      23.07
 86.47     581.00      24.10
 86.57     609.94      24.70
 86.67     630.00      25.10
 86.77     631.00      25.12
 86.87     627.00      25.04
 86.97     556.66      23.59
 87.07     623.00      24.96
 87.17     620.00      24.90
 87.27     667.00      25.83
 87.37     672.00      25.92
 87.47     671.36      25.91
 87.57     582.59      24.14
 87.67     639.00      25.28
 87.77     654.00      25.57
 87.87     617.60      24.85
 87.97     632.00      25.14
 88.07     560.86      23.68
 88.17     618.05      24.86
 88.27     597.46      24.44
 88.37     620.00      24.90
 88.47     607.77      24.65
 88.57     603.00      24.56
 88.67     616.42      24.83
 88.77     659.00      25.67
 88.87     604.00      24.58
 88.97     531.60      23.06
 89.07     632.42      25.15
 89.17     579.00      24.06
 89.27     631.00      25.12
 89.37     610.72      24.71
 89.47     597.00      24.43
 89.57     587.00      24.23
 89.67     570.00      23.87
 89.77     555.80      23.58
 89.87     635.60      25.21
 89.97     560.00      23.66
 90.07     574.46      23.97
 90.17     533.00      23.09
 90.27     527.26      22.96
 90.37     551.00      23.47
 90.47     524.00      22.89
 90.57     575.08      23.98
 90.67     572.23      23.92
 90.77     513.00      22.65
 90.87     579.29      24.07
 90.97     486.00      22.05
 91.07     503.11      22.43
 91.17     549.83      23.45
 91.27     503.00      22.43
 91.37     557.75      23.62
 91.47     511.00      22.61
 91.57     514.00      22.67
 91.67     525.00      22.91
 91.77     587.49      24.24
 91.87     538.00      23.19
 91.97     555.00      23.56
 92.07     621.56      24.93
 92.17     607.00      24.64
 92.27     565.00      23.77
 92.37     601.00      24.52
 92.47     619.00      24.88
 92.57     623.00      24.96
 92.67     686.00      26.19
 92.77     719.00      26.81
 92.87     746.32      27.32
 92.97     785.07      28.02
 93.07     724.00      26.91
 93.17     726.00      26.94
 93.27     760.07      27.57
 93.37     865.00      29.41
 93.47     814.00      28.53
 93.57     786.42      28.04
 93.67     819.00      28.62
 93.77     793.47      28.17
 93.87     842.51      29.03
 93.97     828.00      28.77
 94.07     826.73      28.75
 94.17     802.72      28.33
 94.27     834.43      28.89
 94.37     812.31      28.50
 94.47     887.50      29.79
 94.57     930.00      30.50
 94.67     938.48      30.63
 94.77     934.00      30.56
 94.87     888.00      29.80
 94.97     918.00      30.30
 95.07     906.59      30.11
 95.17     830.00      28.81
 95.27     888.00      29.80
 95.37     819.00      28.62
 95.47     751.55      27.41
 95.57     700.05      26.46
 95.67     750.82      27.40
 95.77     745.52      27.30
 95.87     680.00      26.08
 95.97     682.00      26.12
 96.07     730.10      27.02
 96.17     654.01      25.57
 96.27     714.00      26.72
 96.37     765.00      27.66
 96.47     865.81      29.42
 96.57     862.00      29.36
 96.67     986.00      31.40
 96.77    1043.59      32.30
 96.87    1127.00      33.57
 96.97    1126.00      33.56
 97.07    1299.41      36.05
 97.17    1376.33      37.10
 97.27    1413.00      37.59
 97.37    1331.28      36.49
 97.47    1378.15      37.12
 97.57    1467.00      38.30
 97.67    1381.54      37.17
 97.77    1343.00      36.65
 97.87    1321.25      36.35
 97.97    1235.00      35.14
 98.07    1260.00      35.50
 98.17    1159.00      34.04
 98.27    1110.00      33.32
 98.37    1015.00      31.86
 98.47     980.00      31.30
 98.57     914.61      30.24
 98.67     820.00      28.64
 98.77     829.00      28.79
 98.87     887.59      29.79
 98.97     842.00      29.02
 99.07     794.72      28.19
 99.17     900.80      30.01
 99.27     875.00      29.58
 99.37     966.00      31.08
 99.47    1038.00      32.22
 99.57    1121.00      33.48
 99.67    1232.00      35.10
 99.77    1394.00      37.34
 99.87    1405.00      37.48
 99.97    1627.00      40.34
100.07    1636.20      40.45
100.17    1727.11      41.56
100.27    1850.00      43.01
100.37    1917.00      43.78
100.47    1913.64      43.75
100.57    1999.00      44.71
100.67    1948.29      44.14
100.77    2145.74      46.32
100.87    2078.00      45.59
100.97    2020.00      44.94
101.07    1931.43      43.95
101.17    1805.00      42.49
101.27    1755.28      41.90
101.37    1672.00      40.89
101.47    1520.66      39.00
101.57    1472.00      38.37
101.67    1400.55      37.42
101.77    1340.00      36.61
101.87    1255.00      35.43
101.97    1190.00      34.50
102.07    1161.00      34.07
102.17    1109.00      33.30
102.27    1064.00      32.62
102.37    1058.00      32.53
102.47    1070.00      32.71
102.57    1071.00      32.73
102.67    1121.00      33.48
102.77    1089.00      33.00
102.87     951.00      30.84
102.97    1009.23      31.77
103.07     922.55      30.37
103.17     886.00      29.77
103.27     843.36      29.04
103.37     833.00      28.86
103.47     833.42      28.87
103.57     709.00      26.63
103.67     738.00      27.17
103.77     659.29      25.68
103.87     658.00      25.65
103.97     620.00      24.90
104.07     611.27      24.72
104.17     615.00      24.80
104.27     567.00      23.81
104.37     529.98      23.02
104.47     538.66      23.21
104.57     573.74      23.95
104.67     488.99      22.11
104.77     493.47      22.21
104.87     566.25      23.80
104.97     562.00      23.71
105.07     566.00      23.79
105.17     561.02      23.69
105.27     547.00      23.39
105.37     540.94      23.26
105.47     542.00      23.28
105.57     529.00      23.00
105.67     538.00      23.19
105.77     596.00      24.41
105.87     584.79      24.18
105.97     554.19      23.54
106.07     567.63      23.83
106.17     583.00      24.15
106.27     594.45      24.38
106.37     584.89      24.18
106.47     670.00      25.88
106.57     645.09      25.40
106.67     653.00      25.55
106.77     658.00      25.65
106.87     609.24      24.68
106.97     665.00      25.79
107.07     678.47      26.05
107.17     680.00      26.08
107.27     713.00      26.70
107.37     721.00      26.85
107.47     706.00      26.57
107.57     657.00      25.63
107.67     706.00      26.57
107.77     711.00      26.66
107.87     744.28      27.28
107.97     678.00      26.04
108.07     687.00      26.21
108.17     702.00      26.50
108.27     691.00      26.29
108.37     668.00      25.85
108.47     730.26      27.02
108.57     644.01      25.38
108.67     668.00      25.85
108.77     688.00      26.23
108.87     728.18      26.98
108.97     745.53      27.30
109.07     636.06      25.22
109.17     686.00      26.19
109.27     651.00      25.51
109.37     710.37      26.65
109.47     649.00      25.48
109.57     650.00      25.50
109.67     608.00      24.66
109.77     666.00      25.81
109.87     584.44      24.18
109.97     593.81      24.37
110.07     608.38      24.67
110.17     529.10      23.00
110.27     550.45      23.46
110.37     548.28      23.42
110.47     575.00      23.98
110.57     536.00      23.15
110.67     498.00      22.32
110.77     504.06      22.45
110.87     561.00      23.69
110.97     516.10      22.72
111.07     508.00      22.54
111.17     558.60      23.63
111.27     555.84      23.58
111.37     548.00      23.41
111.47     531.00      23.04
111.57     557.25      23.61
111.67     570.00      23.87
111.77     559.00      23.64
111.87     521.00      22.83
111.97     514.84      22.69
112.07     562.00      23.71
112.17     525.00      22.91
112.27     559.00      23.64
112.37     549.00      23.43
112.47     590.00      24.29
112.57     587.20      24.23
112.67     631.22      25.12
112.77     608.00      24.66
112.87     630.06      25.10
112.97     655.10      25.59
113.07     696.35      26.39
113.17     654.00      25.57
113.27     727.00      26.96
113.37     765.10      27.66
113.47     683.09      26.14
113.57     762.95      27.62
113.67     778.00      27.89
113.77     838.00      28.95
113.87     866.00      29.43
113.97     952.23      30.86
114.07     922.00      30.36
114.17     936.10      30.60
114.27    1046.00      32.34
114.37    1171.00      34.22
114.47    1328.00      36.44
114.57    1288.94      35.90
114.67    1541.00      39.26
114.77    1744.00      41.76
114.87    1905.00      43.65
114.97    2164.00      46.52
115.07    2227.59      47.20
115.17    2546.00      50.46
115.27    2828.83      53.19
115.37    3135.32      55.99
115.47    3505.00      59.20
115.57    3647.94      60.40
115.67    4115.00      64.15
115.77    4592.00      67.76
115.87    4759.00      68.99
115.97    5382.00      73.36
116.07    5717.35      75.61
116.17    6039.00      77.71
116.27    6327.00      79.54
116.37    6625.00      81.39
116.47    6654.00      81.57
116.57    6820.27      82.58
116.67    6922.71      83.20
116.77    6805.58      82.50
116.87    6792.00      82.41
116.97    6452.00      80.32
117.07    6282.00      79.26
117.17    5994.67      77.43
117.27    5616.84      74.95
117.37    5156.00      71.81
117.47    4945.51      70.32
117.57    4496.00      67.05
117.67    4238.00      65.10
117.77    3818.00      61.79
117.87    3482.00      59.01
117.97    3177.00      56.36
118.07    2877.40      53.64
118.17    2526.00      50.26
118.27    2195.01      46.85
118.37    2072.78      45.53
118.47    1689.00      41.10
118.57    1527.09      39.08
118.67    1460.00      38.21
118.77    1215.00      34.86
118.87    1204.09      34.70
118.97    1103.00      33.21
119.07    1041.48      32.27
119.17     874.71      29.58
119.27     781.00      27.95
119.37     817.00      28.58
119.47     756.00      27.50
119.57     734.00      27.09
119.67     677.23      26.02
119.77     646.00      25.42
119.87     657.00      25.63
119.97     640.00      25.30
120.07     651.25      25.52
120.17     629.00      25.08
120.27     582.00      24.12
120.37     584.00      24.17
120.47     589.42      24.28
120.57     585.00      24.19
120.67     611.00      24.72
120.77     603.96      24.58
120.87     559.00      23.64
120.97     616.00      24.82
121.07     569.00      23.85
121.17     579.04      24.06
121.27     587.00      24.23
121.37     572.00      23.92
121.47     611.00      24.72
121.57     573.00      23.94
121.67     572.00      23.92
121.77     582.00      24.12
121.87     602.15      24.54
121.97     620.00      24.90
122.07     636.00      25.22
122.17     649.00      25.48
122.27     621.00      24.92
122.37     659.36      25.68
122.47     638.00      25.26
122.57     645.00      25.40
122.67     687.66      26.22
122.77     616.36      24.83
122.87     642.52      25.35
122.97     613.00      24.76
123.07     653.00      25.55
123.17     627.38      25.05
123.27     628.52      25.07
123.37     616.24      24.82
123.47     615.00      24.80
123.57     592.50      24.34
123.67     678.67      26.05
123.77     601.67      24.53
123.87     623.00      24.96
123.97     575.96      24.00
124.07     633.34      25.17
124.17     565.61      23.78
124.27     584.00      24.17
124.37     610.00      24.70
124.47     649.53      25.49
124.57     650.00      25.50
124.67     620.54      24.91
124.77     587.00      24.23
124.87     583.55      24.16
124.97     619.00      24.88
