  9.97     518.63      22.77
 10.07     585.19      24.19
 10.17     534.85      23.13
 10.27     640.00      25.30
 10.37     578.00      24.04
 10.47     577.00      24.02
 10.57     525.22      22.92
 10.67     594.00      24.37
 10.77     565.71      23.78
 10.87     564.00      23.75
 10.97     590.50      24.30
 11.07     605.00      24.60
 11.17     536.39      23.16
 11.27     564.00      23.75
 11.37     563.36      23.74
 11.47     601.00      24.52
 11.57     590.71      24.30
 11.67     605.19      24.60
 11.77     582.64      24.14
 11.87     609.33      24.68
 11.97     664.18      25.77
 12.07     698.00      26.42
 12.17     681.00      26.10
 12.27     669.00      25.87
 12.37     639.00      25.28
 12.47     645.00      25.40
 12.57     581.00      24.10
 12.67     595.00      24.39
 12.77     562.70      23.72
 12.87     620.89      24.92
 12.97     527.00      22.96
 13.07     558.00      23.62
 13.17     597.00      24.43
 13.27     556.00      23.58
 13.37     564.74      23.76
 13.47     560.00      23.66
 13.57     533.00      23.09
 13.67     555.62      23.57
 13.77     563.00      23.73
 13.87     569.25      23.86
 13.97     583.88      24.16
 14.07     522.76      22.86
 14.17     576.00      24.00
 14.27     565.00      23.77
 14.37     584.04      24.17
 14.47     607.00      24.64
 14.57     549.00      23.43
 14.67     538.05      23.20
 14.77     539.00      23.22
 14.87     557.00      23.60
 14.97     554.00      23.54
 15.07     573.63      23.95
 15.17     532.25      23.07
 15.27     558.87      23.64
 15.37     557.90      23.62
 15.47     574.00      23.96
 15.57     549.48      23.44
 15.67     553.00      23.52
 15.77     546.00      23.37
 15.87     560.06      23.67
 15.97     534.34      23.12
 16.07     598.00      24.45
 16.17     533.29      23.09
 16.27     595.27      24.40
 16.37     529.00      23.00
 16.47     549.00      23.43
 16.57     542.00      23.28
 16.67     563.00      23.73
 16.77     543.27      23.31
 16.87     584.32      24.17
 16.97     588.35      24.26
 17.07     553.00      23.52
 17.17     530.74      23.04
 17.27     577.00      24.02
 17.37     601.56      24.53
 17.47     543.00      23.30
 17.57     538.00      23.19
 17.67     570.00      23.87
 17.77     543.93      23.32
 17.87     536.00      23.15
 17.97     536.00      23.15
 18.07     538.58      23.21
 18.17     534.00      23.11
 18.27     595.05      24.39
 18.37     580.00      24.08
 18.47     546.21      23.37
 18.57     541.00      23.26
 18.67     536.87      23.17
 18.77     529.20      23.00
 18.87     526.00      22.93
 18.97     516.67      22.73
 19.07     563.19      23.73
 19.17     535.00      23.13
 19.27     555.00      23.56
 19.37     559.00      23.64
 19.47     550.00      23.45
 19.57     522.12      22.85
 19.67     541.00      23.26
 19.77     520.72      22.82
 19.87     483.00      21.98
 19.97     527.00      22.96
 20.07     577.00      24.02
 20.17     548.00      23.41
 20.27     551.00      23.47
 20.37     554.00      23.54
 20.47     522.00      22.85
 20.57     521.61      22.84
 20.67     512.00      22.63
 20.77     526.31      22.94
 20.87     559.00      23.64
 20.97     551.89      23.49
 21.07     529.00      23.00
 21.17     532.00      23.07
 21.27     543.00      23.30
 21.37     538.00      23.19
 21.47     508.93      22.56
 21.57     560.94      23.68
 21.67     541.61      23.27
 21.77     519.53      22.79
 21.87     548.79      23.43
 21.97     532.00      23.07
 22.07     575.00      23.98
 22.17     569.00      23.85
 22.27     531.00      23.04
 22.37     550.52      23.46
 22.47     513.00      22.65
 22.57     552.00      23.49
 22.67     538.00      23.19
 22.77     505.98      22.49
 22.87     598.00      24.45
 22.97     543.00      23.30
 23.07     508.70      22.55
 23.17     531.00      23.04
 23.27     540.21      23.24
 23.37     529.30      23.01
 23.47     565.00      23.77
 23.57     551.00      23.47
 23.67     534.00      23.11
 23.77     532.00      23.07
 23.87     561.00      23.69
 23.97     538.63      23.21
 24.07     518.00      22.76
 24.17     547.00      23.39
 24.27     631.00      25.12
 24.37     563.00      23.73
 24.47     539.00      23.22
 24.57     621.20      24.92
 24.67     621.00      24.92
 24.77     626.71      25.03
 24.87     648.00      25.46
 24.97     621.00      24.92
 25.07     569.43      23.86
 25.17     564.00      23.75
 25.27     586.00      24.21
 25.37     625.00      25.00
 25.47     566.00      23.79
 25.57     518.05      22.76
 25.67     544.04      23.32
 25.77     539.00      23.22
 25.87     617.00      24.84
 25.97     531.00      23.04
 26.07     575.92      24.00
 26.17     560.00      23.66
 26.27     560.00      23.66
 26.37     545.00      23.35
 26.47     535.41      23.14
 26.57     499.53      22.35
 26.67     559.00      23.64
 26.77     553.00      23.52
 26.87     554.00      23.54
 26.97     553.69      23.53
 27.07     565.00      23.77
 27.17     560.00      23.66
 27.27     539.00      23.22
 27.37     557.00      23.60
 27.47     542.47      23.29
 27.57     590.00      24.29
 27.67     548.00      23.41
 27.77     616.00      24.82
 27.87     617.00      24.84
 27.97     683.66      26.15
 28.07     711.51      26.67
 28.17     779.00      27.91
 28.27     915.00      30.25
 28.37     894.00      29.90
 28.47     862.00      29.36
 28.57     764.00      27.64
 28.67     725.11      26.93
 28.77     676.00      26.00
 28.87     786.00      28.04
 28.97     871.00      29.51
 29.07     816.26      28.57
 29.17     728.00      26.98
 29.27     660.00      25.69
 29.37     600.70      24.51
 29.47     585.00      24.19
 29.57     540.33      23.24
 29.67     597.00      24.43
 29.77     524.19      22.90
 29.87     536.32      23.16
 29.97     531.00      23.04
 30.07     573.00      23.94
 30.17     545.00      23.35
 30.27     540.00      23.24
 30.37     581.00      24.10
 30.47     537.00      23.17
 30.57     567.72      23.83
 30.67     554.00      23.54
 30.77     596.00      24.41
 30.87     606.00      24.62
 30.97     639.28      25.28
 31.07     625.00      25.00
 31.17     574.05      23.96
 31.27     545.00      23.35
 31.37     547.00      23.39
 31.47     551.00      23.47
 31.57     564.05      23.75
 31.67     535.00      23.13
 31.77     565.07      23.77
 31.87     541.00      23.26
 31.97     525.45      22.92
 32.07     541.00      23.26
 32.17     512.11      22.63
 32.27     540.00      23.24
 32.37     574.00      23.96
 32.47     511.08      22.61
 32.57     554.00      23.54
 32.67     533.22      23.09
 32.77     547.68      23.40
 32.87     517.00      22.74
 32.97     494.76      22.24
 33.07     567.00      23.81
 33.17     560.00      23.66
 33.27     514.00      22.67
 33.37     514.00      22.67
 33.47     541.00      23.26
 33.57     530.41      23.03
 33.67     614.00      24.78
 33.77     692.00      26.31
 33.87     790.00      28.11
 33.97     927.56      30.46
 34.07     982.71      31.35
 34.17     970.00      31.14
 34.27     920.00      30.33
 34.37     790.49      28.12
 34.47     669.66      25.88
 34.57     661.00      25.71
 34.67     567.00      23.81
 34.77     562.00      23.71
 34.87     556.00      23.58
 34.97     533.00      23.09
 35.07     477.00      21.84
 35.17     508.82      22.56
 35.27     523.00      22.87
 35.37     502.00      22.41
 35.47     508.84      22.56
 35.57     512.00      22.63
 35.67     513.00      22.65
 35.77     486.00      22.05
 35.87     487.00      22.07
 35.97     536.00      23.15
 36.07     495.01      22.25
 36.17     472.44      21.74
 36.27     539.12      23.22
 36.37     474.00      21.77
 36.47     541.00      23.26
 36.57     509.00      22.56
 36.67     510.00      22.58
 36.77     509.00      22.56
 36.87     517.80      22.76
 36.97     536.47      23.16
 37.07     480.00      21.91
 37.17     472.70      21.74
 37.27     519.00      22.78
 37.37     448.00      21.17
 37.47     496.62      22.29
 37.57     524.00      22.89
 37.67     496.00      22.27
 37.77     491.61      22.17
 37.87     535.00      23.13
 37.97     552.00      23.49
 38.07     509.00      22.56
 38.17     483.00      21.98
 38.27     504.00      22.45
 38.37     492.00      22.18
 38.47     469.00      21.66
 38.57     465.00      21.56
 38.67     435.00      20.86
 38.77     491.00      22.16
 38.87     489.00      22.11
 38.97     501.00      22.38
 39.07     455.81      21.35
 39.17     449.00      21.19
 39.27     458.00      21.40
 39.37     485.00      22.02
 39.47     480.00      21.91
 39.57     462.86      21.51
 39.67     516.00      22.72
 39.77     517.81      22.76
 39.87     515.00      22.69
 39.97     447.00      21.14
 40.07     485.00      22.02
 40.17     483.00      21.98
 40.27     481.97      21.95
 40.37     514.00      22.67
 40.47     479.00      21.89
 40.57     534.88      23.13
 40.67     480.00      21.91
 40.77     487.00      22.07
 40.87     453.36      21.29
 40.97     528.67      22.99
 41.07     496.56      22.28
 41.17     475.49      21.81
 41.27     464.00      21.54
 41.37     494.00      22.23
 41.47     456.00      21.35
 41.57     499.00      22.34
 41.67     524.00      22.89
 41.77     500.00      22.36
 41.87     510.18      22.59
 41.97     515.00      22.69
 42.07     534.02      23.11
 42.17     489.00      22.11
 42.27     491.00      22.16
 42.37     502.49      22.42
 42.47     518.88      22.78
 42.57     614.37      24.79
 42.67     595.00      24.39
 42.77     606.00      24.62
 42.87     531.00      23.04
 42.97     550.74      23.47
 43.07     588.29      24.25
 43.17     530.00      23.02
 43.27     521.00      22.83
 43.37     533.00      23.09
 43.47     480.00      21.91
 43.57     434.00      20.83
 43.67     508.56      22.55
 43.77     450.00      21.21
 43.87     504.00      22.45
 43.97     490.97      22.16
 44.07     445.00      21.10
 44.17     487.00      22.07
 44.27     502.00      22.41
 44.37     507.38      22.53
 44.47     494.00      22.23
 44.57     482.00      21.95
 44.67     489.00      22.11
 44.77     488.00      22.09
 44.87     516.00      22.72
 44.97     516.00      22.72
 45.07     521.00      22.83
 45.17     531.90      23.06
 45.27     549.00      23.43
 45.37     507.88      22.54
 45.47     509.00      22.56
 45.57     454.63      21.32
 45.67     461.51      21.48
 45.77     440.00      20.98
 45.87     503.00      22.43
 45.97     478.85      21.88
 46.07     507.00      22.52
 46.17     514.09      22.67
 46.27     461.00      21.47
 46.37     479.00      21.89
 46.47     519.87      22.80
 46.57     509.00      22.56
 46.67     507.00      22.52
 46.77     557.00      23.60
 46.87     493.00      22.20
 46.97     456.00      21.35
 47.07     510.00      22.58
 47.17     468.68      21.65
 47.27     540.00      23.24
 47.37     538.15      23.20
 47.47     493.64      22.22
 47.57     549.00      23.43
 47.67     559.00      23.64
 47.77     531.13      23.05
 47.87     594.00      24.37
 47.97     593.00      24.35
 48.07     526.00      22.93
 48.17     528.73      22.99
 48.27     517.77      22.75
 48.37     524.00      22.89
 48.47     541.00      23.26
 48.57     513.02      22.65
 48.67     467.00      21.61
 48.77     518.86      22.78
 48.87     536.00      23.15
 48.97     503.98      22.45
 49.07     567.44      23.82
 49.17     573.00      23.94
 49.27     557.00      23.60
 49.37     614.00      24.78
 49.47     610.00      24.70
 49.57     640.00      25.30
 49.67     742.00      27.24
 49.77     882.00      29.70
 49.87    1167.47      34.17
 49.97    1509.42      38.85
 50.07    1902.72      43.62
 50.17    2182.00      46.71
 50.27    2397.33      48.96
 50.37    2317.40      48.14
 50.47    2099.00      45.81
 50.57    1725.87      41.54
 50.67    1276.00      35.72
 50.77     989.17      31.45
 50.87     802.00      28.32
 50.97     736.89      27.15
 51.07     621.46      24.93
 51.17     648.74      25.47
 51.27     653.40      25.56
 51.37     613.10      24.76
 51.47     573.73      23.95
 51.57     549.00      23.43
 51.67     570.00      23.87
 51.77     518.03      22.76
 51.87     553.00      23.52
 51.97     549.00      23.43
 52.07     565.00      23.77
 52.17     559.23      23.65
 52.27     489.70      22.13
 52.37     594.00      24.37
 52.47     534.00      23.11
 52.57     561.00      23.69
 52.67     563.00      23.73
 52.77     554.21      23.54
 52.87     610.00      24.70
 52.97     682.00      26.12
 53.07     700.00      26.46
 53.17     858.00      29.29
 53.27     931.00      30.51
 53.37    1038.37      32.22
 53.47    1207.00      34.74
 53.57    1244.68      35.28
 53.67    1145.00      33.84
 53.77    1086.09      32.96
 53.87    1048.00      32.37
 53.97     925.00      30.41
 54.07     791.00      28.12
 54.17     700.17      26.46
 54.27     655.99      25.61
 54.37     621.45      24.93
 54.47     572.79      23.93
 54.57     594.00      24.37
 54.67     596.00      24.41
 54.77     520.15      22.81
 54.87     593.28      24.36
 54.97     524.65      22.91
 55.07     591.00      24.31
 55.17     591.00      24.31
 55.27     562.71      23.72
 55.37     592.78      24.35
 55.47     554.00      23.54
 55.57     557.23      23.61
 55.67     606.00      24.62
 55.77     590.00      24.29
 55.87     606.00      24.62
 55.97     632.31      25.15
 56.07     665.00      25.79
 56.17     718.00      26.80
 56.27     833.94      28.88
 56.37     948.00      30.79
 56.47    1241.00      35.23
 56.57    1558.27      39.47
 56.67    1764.00      42.00
 56.77    2279.26      47.74
 56.87    2466.00      49.66
 56.97    2508.00      50.08
 57.07    2532.00      50.32
 57.17    2350.05      48.48
 57.27    1939.00      44.03
 57.37    1647.00      40.58
 57.47    1278.00      35.75
 57.57    1132.73      33.66
 57.67     973.23      31.20
 57.77     780.00      27.93
 57.87     745.00      27.29
 57.97     722.08      26.87
 58.07     751.00      27.40
 58.17     743.16      27.26
 58.27     711.00      26.66
 58.37     794.00      28.18
 58.47     806.60      28.40
 58.57     849.86      29.15
 58.67     974.35      31.21
 58.77    1034.00      32.16
 58.87    1083.00      32.91
 58.97    1190.00      34.50
 59.07    1301.00      36.07
 59.17    1293.22      35.96
 59.27    1399.00      37.40
 59.37    1172.66      34.24
 59.47    1222.24      34.96
 59.57    1176.00      34.29
 59.67    1152.68      33.95
 59.77    1248.00      35.33
 59.87    1206.00      34.73
 59.97    1290.00      35.92
 60.07    1295.00      35.99
 60.17    1371.82      37.04
 60.27    1489.00      38.59
 60.37    1502.00      38.76
 60.47    1493.00      38.64
 60.57    1373.67      37.06
 60.67    1195.51      34.58
 60.77    1086.00      32.95
 60.87     983.42      31.36
 60.97     881.00      29.68
 61.07     691.00      26.29
 61.17     655.00      25.59
 61.27     702.00      26.50
 61.37     662.09      25.73
 61.47     672.00      25.92
 61.57     739.26      27.19
 61.67     736.00      27.13
 61.77     923.88      30.40
 61.87     944.00      30.72
 61.97    1187.68      34.46
 62.07    1225.00      35.00
 62.17    1372.55      37.05
 62.27    1286.00      35.86
 62.37    1332.00      36.50
 62.47    1304.62      36.12
 62.57    1106.00      33.26
 62.67    1052.00      32.43
 62.77     886.00      29.77
 62.87     797.00      28.23
 62.97     657.00      25.63
 63.07     664.21      25.77
 63.17     591.00      24.31
 63.27     591.00      24.31
 63.37     636.00      25.22
 63.47     589.09      24.27
 63.57     593.00      24.35
 63.67     592.00      24.33
 63.77     620.00      24.90
 63.87     619.00      24.88
 63.97     669.97      25.88
 64.07     609.48      24.69
 64.17     724.00      26.91
 64.27     746.78      27.33
 64.37     807.93      28.42
 64.47     919.00      30.32
 64.57     951.00      30.84
 64.67    1014.76      31.86
 64.77     981.00      31.32
 64.87    1009.74      31.78
 64.97     927.44      30.45
 65.07     866.00      29.43
 65.17     802.00      28.32
 65.27     781.00      27.95
 65.37     724.00      26.91
 65.47     707.00      26.59
 65.57     689.51      26.26
 65.67     633.00      25.16
 65.77     603.42      24.56
 65.87     593.00      24.35
 65.97     555.00      23.56
 66.07     602.83      24.55
 66.17     568.00      23.83
 66.27     536.00      23.15
 66.37     559.73      23.66
 66.47     526.63      22.95
 66.57     581.72      24.12
 66.67     581.38      24.11
 66.77     541.00      23.26
 66.87     581.71      24.12
 66.97     586.00      24.21
 67.07     630.00      25.10
 67.17     667.00      25.83
 67.27     689.55      26.26
 67.37     791.00      28.12
 67.47     916.76      30.28
 67.57    1097.00      33.12
 67.67    1269.00      35.62
 67.77    1607.24      40.09
 67.87    1860.00      43.13
 67.97    2096.63      45.79
 68.07    2322.00      48.19
 68.17    2357.80      48.56
 68.27    2348.00      48.46
 68.37    2314.00      48.10
 68.47    2077.00      45.57
 68.57    1740.64      41.72
 68.67    1601.00      40.01
 68.77    1343.37      36.65
 68.87    1147.44      33.87
 68.97     928.00      30.46
 69.07     875.14      29.58
 69.17     796.16      28.22
 69.27     693.88      26.34
 69.37     600.11      24.50
 69.47     597.00      24.43
 69.57     571.14      23.90
 69.67     603.00      24.56
 69.77     560.86      23.68
 69.87     578.00      24.04
 69.97     567.00      23.81
 70.07     568.00      23.83
 70.17     550.00      23.45
 70.27     571.00      23.90
 70.37     568.35      23.84
 70.47     580.00      24.08
 70.57     619.00      24.88
 70.67     586.00      24.21
 70.77     574.00      23.96
 70.87     643.00      25.36
 70.97     617.00      24.84
 71.07     690.76      26.28
 71.17     721.18      26.85
 71.27     764.00      27.64
 71.37     817.00      28.58
 71.47     933.00      30.55
 71.57    1068.47      32.69
 71.67    1230.38      35.08
 71.77    1456.00      38.16
 71.87    1628.00      40.35
 71.97    1703.00      41.27
 72.07    1810.00      42.54
 72.17    1788.00      42.28
 72.27    1826.00      42.73
 72.37    1802.00      42.45
 72.47    1588.00      39.85
 72.57    1526.00      39.06
 72.67    1308.81      36.18
 72.77    1071.04      32.73
 72.87    1045.00      32.33
 72.97     847.00      29.10
 73.07     841.00      29.00
 73.17     710.00      26.65
 73.27     705.33      26.56
 73.37     693.22      26.33
 73.47     657.00      25.63
 73.57     627.68      25.05
 73.67     584.90      24.18
 73.77     615.00      24.80
 73.87     591.00      24.31
 73.97     620.00      24.90
 74.07     563.00      23.73
 74.17     566.00      23.79
 74.27     625.48      25.01
 74.37     627.37      25.05
 74.47     589.60      24.28
 74.57     565.83      23.79
 74.67     613.00      24.76
 74.77     577.61      24.03
 74.87     576.00      24.00
 74.97     623.00      24.96
 75.07     595.00      24.39
 75.17     641.00      25.32
 75.27     615.00      24.80
 75.37     596.00      24.41
 75.47     591.00      24.31
 75.57     566.00      23.79
 75.67     581.00      24.10
 75.77     529.00      23.00
 75.87     554.00      23.54
 75.97     607.30      24.64
 76.07     576.00      24.00
 76.17     600.99      24.52
 76.27     674.00      25.96
 76.37     629.00      25.08
 76.47     686.55      26.20
 76.57     672.00      25.92
 76.67     706.00      26.57
 76.77     728.00      26.98
 76.87     650.83      25.51
 76.97     639.12      25.28
 77.07     605.85      24.61
 77.17     607.36      24.64
 77.27     591.00      24.31
 77.37     611.44      24.73
 77.47     518.00      22.76
 77.57     539.36      23.22
 77.67     510.00      22.58
 77.77     503.12      22.43
 77.87     558.55      23.63
 77.97     498.00      22.32
 78.07     535.00      23.13
 78.17     518.00      22.76
 78.27     496.00      22.27
 78.37     539.00      23.22
 78.47     491.71      22.17
 78.57     529.00      23.00
 78.67     521.02      22.83
 78.77     557.03      23.60
 78.87     553.11      23.52
 78.97     483.97      22.00
 79.07     490.00      22.14
 79.17     513.74      22.67
 79.27     483.00      21.98
 79.37     524.00      22.89
 79.47     512.00      22.63
 79.57     554.00      23.54
 79.67     511.00      22.61
 79.77     555.00      23.56
 79.87     479.00      21.89
 79.97     546.00      23.37
 80.07     537.00      23.17
 80.17     549.00      23.43
 80.27     520.00      22.80
 80.37     583.12      24.15
 80.47     583.06      24.15
 80.57     545.96      23.37
 80.67     659.00      25.67
 80.77     604.00      24.58
 80.87     660.58      25.70
 80.97     617.00      24.84
 81.07     650.00      25.50
 81.17     672.08      25.92
 81.27     734.26      27.10
 81.37     683.11      26.14
 81.47     702.00      26.50
 81.57     798.00      28.25
 81.67     702.00      26.50
 81.77     741.00      27.22
 81.87     763.00      27.62
 81.97     748.15      27.35
 82.07     668.00      25.85
 82.17     638.00      25.26
 82.27     613.72      24.77
 82.37     654.28      25.58
 82.47     593.00      24.35
 82.57     609.00      24.68
 82.67     572.54      23.93
 82.77     539.39      23.22
 82.87     599.00      24.47
 82.97     589.23      24.27
 83.07     578.09      24.04
 83.17     544.00      23.32
 83.27     529.00      23.00
 83.37     556.00      23.58
 83.47     532.00      23.07
 83.57     570.68      23.89
 83.67     565.00      23.77
 83.77     519.00      22.78
 83.87     589.80      24.29
 83.97     518.32      22.77
 84.07     553.00      23.52
 84.17     560.00      23.66
 84.27     575.00      23.98
 84.37     539.02      23.22
 84.47     522.02      22.85
 84.57     523.00      22.87
 84.67     507.44      22.53
 84.77     514.00      22.67
 84.87     516.00      22.72
 84.97     519.00      22.78
 85.07     513.38      22.66
 85.17     492.19      22.19
 85.27     535.00      23.13
 85.37     504.00      22.45
 85.47     484.21      22.00
 85.57     524.00      22.89
 85.67     532.93      23.09
 85.77     500.00      22.36
 85.87     477.40      21.85
 85.97     513.00      22.65
 86.07     497.00      22.29
 86.17     524.00      22.89
 86.27     478.00      21.86
 86.37     476.74      21.83
 86.47     520.00      22.80
 86.57     518.00      22.76
 86.67     526.00      22.93
 86.77     546.00      23.37
 86.87     532.59      23.08
 86.97     578.00      24.04
 87.07     591.00      24.31
 87.17     588.00      24.25
 87.27     601.74      24.53
 87.37     628.00      25.06
 87.47     643.00      25.36
 87.57     587.90      24.25
 87.67     648.00      25.46
 87.77     633.00      25.16
 87.87     617.00      24.84
 87.97     657.00      25.63
 88.07     565.14      23.77
 88.17     582.00      24.12
 88.27     560.61      23.68
 88.37     595.00      24.39
 88.47     580.95      24.10
 88.57     548.00      23.41
 88.67     543.16      23.31
 88.77     570.00      23.87
 88.87     528.14      22.98
 88.97     587.00      24.23
 89.07     578.71      24.06
 89.17     588.00      24.25
 89.27     586.00      24.21
 89.37     580.00      24.08
 89.47     638.00      25.26
 89.57     626.55      25.03
 89.67     569.00      23.85
 89.77     586.00      24.21
 89.87     505.00      22.47
 89.97     563.58      23.74
 90.07     535.00      23.13
 90.17     536.00      23.15
 90.27     523.00      22.87
 90.37     496.74      22.29
 90.47     494.85      22.25
 90.57     532.00      23.07
 90.67     504.05      22.45
 90.77     512.00      22.63
 90.87     553.00      23.52
 90.97     482.00      21.95
 91.07     544.00      23.32
 91.17     477.00      21.84
 91.27     499.03      22.34
 91.37     492.00      22.18
 91.47     543.00      23.30
 91.57     486.00      22.05
 91.67     499.00      22.34
 91.77     481.00      21.93
 91.87     525.41      22.92
 91.97     499.98      22.36
 92.07     537.45      23.18
 92.17     551.00      23.47
 92.27     546.00      23.37
 92.37     500.00      22.36
 92.47     590.00      24.29
 92.57     583.00      24.15
 92.67     636.49      25.23
 92.77     587.00      24.23
 92.87     672.75      25.94
 92.97     627.00      25.04
 93.07     637.31      25.25
 93.17     706.00      26.57
 93.27     748.00      27.35
 93.37     749.00      27.37
 93.47     782.00      27.96
 93.57     766.00      27.68
 93.67     768.42      27.72
 93.77     789.00      28.09
 93.87     762.36      27.61
 93.97     794.16      28.18
 94.07     840.00      28.98
 94.17     769.77      27.74
 94.27     896.00      29.93
 94.37     792.00      28.14
 94.47     877.00      29.61
 94.57     879.66      29.66
 94.67     881.00      29.68
 94.77     887.00      29.78
 94.87     835.39      28.90
 94.97     841.47      29.01
 95.07     824.45      28.71
 95.17     853.41      29.21
 95.27     847.00      29.10
 95.37     868.00      29.46
 95.47     824.00      28.71
 95.57     812.48      28.50
 95.67     825.00      28.72
 95.77     737.00      27.15
 95.87     680.35      26.08
 95.97     699.00      26.44
 96.07     734.00      27.09
 96.17     686.00      26.19
 96.27     717.00      26.78
 96.37     758.68      27.54
 96.47     767.00      27.69
 96.57     804.63      28.37
 96.67     818.00      28.60
 96.77     863.37      29.38
 96.87     870.00      29.50
 96.97    1033.14      32.14
 97.07    1023.80      32.00
 97.17    1151.00      33.93
 97.27    1225.00      35.00
 97.37    1328.00      36.44
 97.47    1394.00      37.34
 97.57    1368.00      36.99
 97.67    1427.61      37.78
 97.77    1407.00      37.51
 97.87    1395.00      37.35
 97.97    1335.00      36.54
 98.07    1358.00      36.85
 98.17    1265.00      35.57
 98.27    1233.00      35.11
 98.37    1192.58      34.53
 98.47    1149.68      33.91
 98.57    1052.00      32.43
 98.67     954.00      30.89
 98.77     917.00      30.28
 98.87     843.00      29.03
 98.97     888.05      29.80
 99.07     847.00      29.10
 99.17     843.00      29.03
 99.27     875.00      29.58
 99.37     908.00      30.13
 99.47     908.00      30.13
 99.57     954.52      30.90
 99.67    1010.62      31.79
 99.77    1160.00      34.06
 99.87    1243.00      35.26
 99.97    1286.58      35.87
100.07    1431.00      37.83
100.17    1513.00      38.90
100.27    1632.00      40.40
100.37    1766.23      42.03
100.47    1762.00      41.98
100.57    1876.32      43.32
100.67    1840.54      42.90
100.77    1982.06      44.52
100.87    1976.13      44.45
100.97    1994.00      44.65
101.07    2025.18      45.00
101.17    1864.00      43.17
101.27    1845.70      42.96
101.37    1871.08      43.26
101.47    1778.00      42.17
101.57    1648.77      40.61
101.67    1538.27      39.22
101.77    1501.00      38.74
101.87    1495.00      38.67
101.97    1367.00      36.97
102.07    1388.81      37.27
102.17    1255.00      35.43
102.27    1193.88      34.55
102.37    1158.00      34.03
102.47    1196.10      34.58
102.57    1148.00      33.88
102.67    1102.00      33.20
102.77    1065.00      32.63
102.87    1018.28      31.91
102.97    1042.00      32.28
103.07     979.20      31.29
103.17    1025.00      32.02
103.27     920.00      30.33
103.37     892.00      29.87
103.47     856.00      29.26
103.57     849.00      29.14
103.67     829.35      28.80
103.77     764.91      27.66
103.87     747.96      27.35
103.97     691.18      26.29
104.07     666.13      25.81
104.17     596.43      24.42
104.27     645.00      25.40
104.37     570.22      23.88
104.47     541.00      23.26
104.57     571.25      23.90
104.67     561.26      23.69
104.77     533.08      23.09
104.87     503.96      22.45
104.97     581.00      24.10
105.07     588.00      24.25
105.17     496.17      22.27
105.27     548.00      23.41
105.37     516.59      22.73
105.47     578.00      24.04
105.57     514.00      22.67
105.67     496.00      22.27
105.77     512.00      22.63
105.87     517.30      22.74
105.97     533.00      23.09
106.07     582.00      24.12
106.17     552.68      23.51
106.27     578.00      24.04
106.37     577.00      24.02
106.47     616.00      24.82
106.57     613.86      24.78
106.67     635.88      25.22
106.77     598.00      24.45
106.87     651.93      25.53
106.97     605.00      24.60
107.07     670.66      25.90
107.17     629.00      25.08
107.27     642.00      25.34
107.37     667.00      25.83
107.47     642.00      25.34
107.57     732.00      27.06
107.67     678.00      26.04
107.77     702.00      26.50
107.87     643.78      25.37
107.97     692.00      26.31
108.07     567.00      23.81
108.17     646.00      25.42
108.27     693.33      26.33
108.37     644.00      25.38
108.47     641.00      25.32
108.57     637.67      25.25
108.67     647.00      25.44
108.77     667.51      25.84
108.87     706.00      26.57
108.97     672.00      25.92
109.07     674.00      25.96
109.17     700.00      26.46
109.27     708.00      26.61
109.37     653.00      25.55
109.47     667.77      25.84
109.57     678.00      26.04
109.67     683.00      26.13
109.77     613.00      24.76
109.87     616.00      24.82
109.97     656.50      25.62
110.07     602.00      24.54
110.17     595.00      24.39
110.27     543.00      23.30
110.37     614.00      24.78
110.47     598.00      24.45
110.57     571.53      23.91
110.67     571.00      23.90
110.77     567.51      23.82
110.87     556.00      23.58
110.97     555.88      23.58
111.07     539.00      23.22
111.17     573.00      23.94
111.27     548.00      23.41
111.37     493.94      22.22
111.47     540.70      23.25
111.57     541.00      23.26
111.67     554.00      23.54
111.77     563.00      23.73
111.87     515.76      22.71
111.97     503.00      22.43
112.07     570.00      23.87
112.17     572.54      23.93
112.27     525.00      22.91
112.37     571.64      23.91
112.47     540.00      23.24
112.57     599.98      24.49
112.67     598.84      24.47
112.77     593.00      24.35
112.87     559.54      23.65
112.97     616.00      24.82
113.07     634.26      25.18
113.17     528.00      22.98
113.27     582.00      24.12
113.37     662.49      25.74
113.47     629.00      25.08
113.57     678.62      26.05
113.67     652.00      25.53
113.77     672.00      25.92
113.87     698.00      26.42
113.97     721.00      26.85
114.07     779.00      27.91
114.17     785.00      28.02
114.27     798.00      28.25
114.37     874.00      29.56
114.47     960.00      30.98
114.57    1087.19      32.97
114.67    1105.23      33.25
114.77    1225.29      35.00
114.87    1412.00      37.58
114.97    1505.39      38.80
115.07    1670.57      40.87
115.17    1960.00      44.27
115.27    2185.00      46.74
115.37    2487.80      49.88
115.47    2852.00      53.40
115.57    2954.53      54.36
115.67    3461.00      58.83
115.77    3688.00      60.73
115.87    3995.00      63.21
115.97    4415.00      66.45
116.07    4804.00      69.31
116.17    5132.49      71.64
116.27    5452.00      73.84
116.37    5855.16      76.52
116.47    6230.00      78.93
116.57    6328.00      79.55
116.67    6566.18      81.03
116.77    6711.00      81.92
116.87    6778.71      82.33
116.97    6910.00      83.13
117.07    6838.00      82.69
117.17    6627.00      81.41
117.27    6302.21      79.39
117.37    6192.70      78.69
117.47    5867.00      76.60
117.57    5455.00      73.86
117.67    5405.00      73.52
117.77    4789.00      69.20
117.87    4477.00      66.91
117.97    4212.00      64.90
118.07    3798.00      61.63
118.17    3544.59      59.54
118.27    3110.00      55.77
118.37    2857.00      53.45
118.47    2542.00      50.42
118.57    2321.00      48.18
118.67    2091.00      45.73
118.77    1748.00      41.81
118.87    1623.00      40.29
118.97    1426.00      37.76
119.07    1293.42      35.96
119.17    1247.33      35.32
119.27    1137.00      33.72
119.37    1054.35      32.47
119.47     926.00      30.43
119.57     909.95      30.17
119.67     769.00      27.73
119.77     793.00      28.16
119.87     717.00      26.78
119.97     722.00      26.87
120.07     642.91      25.36
120.17     688.00      26.23
120.27     641.00      25.32
120.37     623.81      24.98
120.47     589.00      24.27
120.57     629.00      25.08
120.67     599.00      24.47
120.77     608.00      24.66
120.87     585.23      24.19
120.97     546.36      23.37
121.07     543.32      23.31
121.17     541.64      23.27
121.27     533.23      23.09
121.37     605.00      24.60
121.47     549.00      23.43
121.57     539.77      23.23
121.67     612.11      24.74
121.77     570.00      23.87
121.87     593.00      24.35
121.97     550.29      23.46
122.07     552.00      23.49
122.17     557.00      23.60
122.27     601.00      24.52
122.37     567.38      23.82
122.47     602.00      24.54
122.57     598.65      24.47
122.67     628.71      25.07
122.77     590.54      24.30
122.87     640.33      25.30
122.97     644.30      25.38
123.07     604.00      24.58
123.17     618.00      24.86
123.27     599.16      24.48
123.37     612.61      24.75
123.47     613.00      24.76
123.57     614.00      24.78
123.67     647.19      25.44
123.77     658.00      25.65
123.87     636.00      25.22
123.97     653.54      25.56
124.07     593.47      24.36
124.17     670.00      25.88
124.27     597.00      24.43
124.37     611.00      24.72
124.47     624.00      24.98
124.57     567.12      23.81
124.67     571.00      23.90
124.77     576.00      24.00
124.87     585.00      24.19
124.97     577.00      24.02
