  9.97     627.00      25.04
 10.07     621.00      24.92
 10.17     572.00      23.92
 10.27     547.00      23.39
 10.37     523.00      22.87
 10.47     582.00      24.12
 10.57     573.00      23.94
 10.67     622.00      24.94
 10.77     508.07      22.54
 10.87     529.43      23.01
 10.97     556.00      23.58
 11.07     607.00      24.64
 11.17     596.00      24.41
 11.27     586.00      24.21
 11.37     639.00      25.28
 11.47     606.00      24.62
 11.57     573.00      23.94
 11.67     556.00      23.58
 11.77     628.00      25.06
 11.87     593.00      24.35
 11.97     627.00      25.04
 12.07     696.30      26.39
 12.17     647.10      25.44
 12.27     721.97      26.87
 12.37     625.00      25.00
 12.47     648.06      25.46
 12.57     572.06      23.92
 12.67     600.99      24.52
 12.77     614.00      24.78
 12.87     553.01      23.52
 12.97     552.63      23.51
 13.07     532.39      23.07
 13.17     574.00      23.96
 13.27     573.00      23.94
 13.37     578.00      24.04
 13.47     524.00      22.89
 13.57     528.00      22.98
 13.67     559.12      23.65
 13.77     545.61      23.36
 13.87     536.12      23.15
 13.97     582.00      24.12
 14.07     524.70      22.91
 14.17     600.72      24.51
 14.27     536.19      23.16
 14.37     530.58      23.03
 14.47     540.38      23.25
 14.57     514.00      22.67
 14.67     534.00      23.11
 14.77     562.23      23.71
 14.87     568.00      23.83
 14.97     531.00      23.04
 15.07     507.00      22.52
 15.17     624.00      24.98
 15.27     551.00      23.47
 15.37     557.00      23.60
 15.47     581.47      24.11
 15.57     575.00      23.98
 15.67     529.00      23.00
 15.77     609.89      24.70
 15.87     547.00      23.39
 15.97     596.65      24.43
 16.07     558.00      23.62
 16.17     564.00      23.75
 16.27     584.33      24.17
 16.37     570.00      23.87
 16.47     589.51      24.28
 16.57     583.00      24.15
 16.67     549.00      23.43
 16.77     580.00      24.08
 16.87     583.26      24.15
 16.97     532.21      23.07
 17.07     556.00      23.58
 17.17     602.09      24.54
 17.27     558.70      23.64
 17.37     519.00      22.78
 17.47     542.40      23.29
 17.57     529.00      23.00
 17.67     547.00      23.39
 17.77     520.00      22.80
 17.87     550.00      23.45
 17.97     528.00      22.98
 18.07     583.88      24.16
 18.17     543.00      23.30
 18.27     595.00      24.39
 18.37     527.30      22.96
 18.47     571.00      23.90
 18.57     569.00      23.85
 18.67     586.00      24.21
 18.77     539.00      23.22
 18.87     600.91      24.51
 18.97     509.00      22.56
 19.07     545.00      23.35
 19.17     543.00      23.30
 19.27     588.15      24.25
 19.37     528.00      22.98
 19.47     535.56      23.14
 19.57     551.00      23.47
 19.67     556.13      23.58
 19.77     533.00      23.09
 19.87     532.85      23.08
 19.97     545.00      23.35
 20.07     577.12      24.02
 20.17     546.00      23.37
 20.27     531.42      23.05
 20.37     558.47      23.63
 20.47     520.00      22.80
 20.57     579.13      24.07
 20.67     537.00      23.17
 20.77     574.77      23.97
 20.87     541.14      23.26
 20.97     542.65      23.29
 21.07     572.00      23.92
 21.17     547.00      23.39
 21.27     586.10      24.21
 21.37     522.00      22.85
 21.47     541.00      23.26
 21.57     567.60      23.82
 21.67     510.00      22.58
 21.77     577.00      24.02
 21.87     579.00      24.06
 21.97     572.00      23.92
 22.07     523.33      22.88
 22.17     530.00      23.02
 22.27     545.00      23.35
 22.37     539.00      23.22
 22.47     560.00      23.66
 22.57     533.00      23.09
 22.67     572.00      23.92
 22.77     558.33      23.63
 22.87     566.00      23.79
 22.97     568.00      23.83
 23.07     574.00      23.96
 23.17     547.00      23.39
 23.27     540.25      23.24
 23.37     611.00      24.72
 23.47     522.00      22.85
 23.57     589.35      24.28
 23.67     532.00      23.07
 23.77     553.00      23.52
 23.87     564.57      23.76
 23.97     599.80      24.49
 24.07     544.00      23.32
 24.17     573.00      23.94
 24.27     598.00      24.45
 24.37     558.00      23.62
 24.47     602.00      24.54
 24.57     601.00      24.52
 24.67     642.00      25.34
 24.77     657.00      25.63
 24.87     615.96      24.82
 24.97     649.00      25.48
 25.07     571.75      23.91
 25.17     583.00      24.15
 25.27     565.98      23.79
 25.37     601.33      24.52
 25.47     570.63      23.89
 25.57     566.00      23.79
 25.67     556.00      23.58
 25.77     566.00      23.79
 25.87     553.00      23.52
 25.97     511.46      22.62
 26.07     562.71      23.72
 26.17     530.00      23.02
 26.27     586.00      24.21
 26.37     620.00      24.90
 26.47     545.00      23.35
 26.57     637.00      25.24
 26.67     584.00      24.17
 26.77     520.00      22.80
 26.87     546.89      23.39
 26.97     563.00      23.73
 27.07     566.57      23.80
 27.17     603.00      24.56
 27.27     581.73      24.12
 27.37     572.00      23.92
 27.47     549.00      23.43
 27.57     590.00      24.29
 27.67     523.73      22.89
 27.77     520.58      22.82
 27.87     614.00      24.78
 27.97     656.00      25.61
 28.07     680.00      26.08
 28.17     762.00      27.60
 28.27     931.00      30.51
 28.37     950.35      30.83
 28.47     896.00      29.93
 28.57     777.00      27.87
 28.67     750.00      27.39
 28.77     687.48      26.22
 28.87     721.59      26.86
 28.97     778.00      27.89
 29.07     765.00      27.66
 29.17     742.00      27.24
 29.27     702.00      26.50
 29.37     680.00      26.08
 29.47     558.75      23.64
 29.57     546.16      23.37
 29.67     585.00      24.19
 29.77     575.00      23.98
 29.87     584.00      24.17
 29.97     565.60      23.78
 30.07     614.00      24.78
 30.17     576.00      24.00
 30.27     588.00      24.25
 30.37     591.14      24.31
 30.47     609.00      24.68
 30.57     593.00      24.35
 30.67     511.00      22.61
 30.77     571.00      23.90
 30.87     640.00      25.30
 30.97     601.00      24.52
 31.07     568.89      23.85
 31.17     627.00      25.04
 31.27     537.34      23.18
 31.37     593.11      24.35
 31.47     534.00      23.11
 31.57     498.39      22.32
 31.67     558.15      23.63
 31.77     594.00      24.37
 31.87     574.00      23.96
 31.97     525.00      22.91
 32.07     545.00      23.35
 32.17     547.00      23.39
 32.27     550.00      23.45
 32.37     553.00      23.52
 32.47     605.00      24.60
 32.57     513.00      22.65
 32.67     536.25      23.16
 32.77     527.59      22.97
 32.87     545.00      23.35
 32.97     510.00      22.58
 33.07     518.67      22.77
 33.17     495.25      22.25
 33.27     586.90      24.23
 33.37     524.03      22.89
 33.47     561.36      23.69
 33.57     532.17      23.07
 33.67     574.00      23.96
 33.77     728.00      26.98
 33.87     788.00      28.07
 33.97     849.39      29.14
 34.07    1010.00      31.78
 34.17    1067.89      32.68
 34.27     992.52      31.50
 34.37     866.00      29.43
 34.47     691.00      26.29
 34.57     621.97      24.94
 34.67     650.73      25.51
 34.77     562.00      23.71
 34.87     584.00      24.17
 34.97     536.91      23.17
 35.07     541.00      23.26
 35.17     509.00      22.56
 35.27     557.12      23.60
 35.37     514.05      22.67
 35.47     530.00      23.02
 35.57     492.83      22.20
 35.67     573.00      23.94
 35.77     509.00      22.56
 35.87     468.00      21.63
 35.97     522.00      22.85
 36.07     531.00      23.04
 36.17     534.00      23.11
 36.27     546.98      23.39
 36.37     515.00      22.69
 36.47     450.00      21.21
 36.57     481.69      21.95
 36.67     543.24      23.31
 36.77     525.00      22.91
 36.87     536.10      23.15
 36.97     547.03      23.39
 37.07     518.00      22.76
 37.17     475.00      21.79
 37.27     474.46      21.78
 37.37     483.00      21.98
 37.47     507.00      22.52
 37.57     490.00      22.14
 37.67     494.50      22.24
 37.77     509.00      22.56
 37.87     487.00      22.07
 37.97     516.00      22.72
 38.07     537.00      23.17
 38.17     525.50      22.92
 38.27     469.84      21.68
 38.37     508.53      22.55
 38.47     499.00      22.34
 38.57     457.00      21.38
 38.67     527.00      22.96
 38.77     473.00      21.75
 38.87     494.89      22.25
 38.97     505.00      22.47
 39.07     468.00      21.63
 39.17     511.00      22.61
 39.27     486.00      22.05
 39.37     492.00      22.18
 39.47     533.00      23.09
 39.57     478.73      21.88
 39.67     456.62      21.37
 39.77     496.51      22.28
 39.87     493.79      22.22
 39.97     502.00      22.41
 40.07     513.51      22.66
 40.17     486.00      22.05
 40.27     524.00      22.89
 40.37     476.00      21.82
 40.47     480.00      21.91
 40.57     534.22      23.11
 40.67     480.99      21.93
 40.77     455.20      21.34
 40.87     465.72      21.58
 40.97     514.19      22.68
 41.07     476.00      21.82
 41.17     522.00      22.85
 41.27     489.00      22.11
 41.37     477.30      21.85
 41.47     479.00      21.89
 41.57     467.57      21.62
 41.67     485.00      22.02
 41.77     528.41      22.99
 41.87     508.00      22.54
 41.97     495.85      22.27
 42.07     522.00      22.85
 42.17     467.00      21.61
 42.27     486.00      22.05
 42.37     505.78      22.49
 42.47     546.00      23.37
 42.57     505.00      22.47
 42.67     627.59      25.05
 42.77     580.00      24.08
 42.87     612.00      24.74
 42.97     551.00      23.47
 43.07     569.26      23.86
 43.17     546.32      23.37
 43.27     515.00      22.69
 43.37     518.00      22.76
 43.47     501.00      22.38
 43.57     534.03      23.11
 43.67     466.13      21.59
 43.77     472.00      21.73
 43.87     513.00      22.65
 43.97     500.00      22.36
 44.07     471.00      21.70
 44.17     511.00      22.61
 44.27     502.00      22.41
 44.37     463.89      21.54
 44.47     532.71      23.08
 44.57     541.00      23.26
 44.67     521.00      22.83
 44.77     493.00      22.20
 44.87     519.00      22.78
 44.97     530.88      23.04
 45.07     435.00      20.86
 45.17     455.40      21.34
 45.27     534.82      23.13
 45.37     485.00      22.02
 45.47     456.13      21.36
 45.57     487.96      22.09
 45.67     505.35      22.48
 45.77     530.44      23.03
 45.87     525.00      22.91
 45.97     504.40      22.46
 46.07     489.00      22.11
 46.17     481.00      21.93
 46.27     463.22      21.52
 46.37     532.00      23.07
 46.47     528.28      22.98
 46.57     509.35      22.57
 46.67     519.33      22.79
 46.77     481.76      21.95
 46.87     494.00      22.23
 46.97     512.00      22.63
 47.07     500.00      22.36
 47.17     496.00      22.27
 47.27     465.00      21.56
 47.37     523.67      22.88
 47.47     484.87      22.02
 47.57     501.51      22.39
 47.67     555.00      23.56
 47.77     573.00      23.94
 47.87     585.00      24.19
 47.97     580.00      24.08
 48.07     551.00      23.47
 48.17     583.00      24.15
 48.27     595.00      24.39
 48.37     542.00      23.28
 48.47     518.00      22.76
 48.57     552.00      23.49
 48.67     544.36      23.33
 48.77     522.00      22.85
 48.87     495.64      22.26
 48.97     493.10      22.21
 49.07     514.57      22.68
 49.17     556.00      23.58
 49.27     535.00      23.13
 49.37     609.18      24.68
 49.47     542.13      23.28
 49.57     648.00      25.46
 49.67     715.00      26.74
 49.77     822.00      28.67
 49.87    1071.00      32.73
 49.97    1292.00      35.94
 50.07    1730.00      41.59
 50.17    1985.62      44.56
 50.27    2261.75      47.56
 50.37    2255.00      47.49
 50.47    2152.55      46.40
 50.57    1895.42      43.54
 50.67    1433.00      37.85
 50.77    1107.70      33.28
 50.87     898.00      29.97
 50.97     798.00      28.25
 51.07     672.00      25.92
 51.17     610.00      24.70
 51.27     662.00      25.73
 51.37     596.00      24.41
 51.47     578.44      24.05
 51.57     612.00      24.74
 51.67     579.13      24.07
 51.77     545.00      23.35
 51.87     530.44      23.03
 51.97     511.00      22.61
 52.07     540.00      23.24
 52.17     500.92      22.38
 52.27     537.00      23.17
 52.37     549.00      23.43
 52.47     554.00      23.54
 52.57     578.00      24.04
 52.67     555.00      23.56
 52.77     577.00      24.02
 52.87     561.87      23.70
 52.97     637.00      25.24
 53.07     689.00      26.25
 53.17     786.00      28.04
 53.27     886.00      29.77
 53.37     971.00      31.16
 53.47    1073.06      32.76
 53.57    1178.00      34.32
 53.67    1256.30      35.44
 53.77    1215.55      34.86
 53.87    1019.99      31.94
 53.97     966.00      31.08
 54.07     883.33      29.72
 54.17     717.00      26.78
 54.27     659.00      25.67
 54.37     613.84      24.78
 54.47     634.00      25.18
 54.57     618.00      24.86
 54.67     555.00      23.56
 54.77     565.00      23.77
 54.87     540.00      23.24
 54.97     584.00      24.17
 55.07     586.68      24.22
 55.17     566.00      23.79
 55.27     587.00      24.23
 55.37     583.00      24.15
 55.47     579.00      24.06
 55.57     564.78      23.77
 55.67     570.00      23.87
 55.77     543.72      23.32
 55.87     600.00      24.49
 55.97     636.00      25.22
 56.07     609.00      24.68
 56.17     696.00      26.38
 56.27     730.00      27.02
 56.37     973.58      31.20
 56.47    1077.00      32.82
 56.57    1311.00      36.21
 56.67    1612.00      40.15
 56.77    1965.00      44.33
 56.87    2342.79      48.40
 56.97    2500.00      50.00
 57.07    2560.01      50.60
 57.17    2367.97      48.66
 57.27    2182.00      46.71
 57.37    1762.00      41.98
 57.47    1459.00      38.20
 57.57    1175.00      34.28
 57.67     995.00      31.54
 57.77     870.00      29.50
 57.87     766.15      27.68
 57.97     755.00      27.48
 58.07     648.51      25.47
 58.17     684.95      26.17
 58.27     731.00      27.04
 58.37     793.15      28.16
 58.47     836.86      28.93
 58.57     806.00      28.39
 58.67     966.10      31.08
 58.77    1001.00      31.64
 58.87    1106.00      33.26
 58.97    1218.76      34.91
 59.07    1285.00      35.85
 59.17    1281.76      35.80
 59.27    1329.00      36.46
 59.37    1262.00      35.52
 59.47    1238.00      35.19
 59.57    1232.00      35.10
 59.67    1209.00      34.77
 59.77    1165.29      34.14
 59.87    1190.00      34.50
 59.97    1294.00      35.97
 60.07    1380.00      37.15
 60.17    1431.00      37.83
 60.27    1547.59      39.34
 60.37    1532.00      39.14
 60.47    1488.33      38.58
 60.57    1433.34      37.86
 60.67    1350.32      36.75
 60.77    1194.75      34.57
 60.87    1008.00      31.75
 60.97     851.00      29.17
 61.07     761.00      27.59
 61.17     709.14      26.63
 61.27     655.00      25.59
 61.37     682.60      26.13
 61.47     663.00      25.75
 61.57     735.98      27.13
 61.67     725.62      26.94
 61.77     788.76      28.08
 61.87     965.00      31.06
 61.97     963.00      31.03
 62.07    1145.02      33.84
 62.17    1246.92      35.31
 62.27    1235.00      35.14
 62.37    1299.00      36.04
 62.47    1312.00      36.22
 62.57    1269.86      35.64
 62.67    1118.04      33.44
 62.77     936.23      30.60
 62.87     809.97      28.46
 62.97     822.00      28.67
 63.07     686.00      26.19
 63.17     639.00      25.28
 63.27     593.00      24.35
 63.37     618.00      24.86
 63.47     560.00      23.66
 63.57     570.00      23.87
 63.67     582.00      24.12
 63.77     593.24      24.36
 63.87     608.00      24.66
 63.97     606.00      24.62
 64.07     624.00      24.98
 64.17     704.00      26.53
 64.27     745.25      27.30
 64.37     760.29      27.57
 64.47     910.00      30.17
 64.57     910.00      30.17
 64.67     914.24      30.24
 64.77    1029.20      32.08
 64.87     948.28      30.79
 64.97    1039.72      32.24
 65.07     938.00      30.63
 65.17     874.00      29.56
 65.27     853.00      29.21
 65.37     810.61      28.47
 65.47     722.00      26.87
 65.57     692.48      26.32
 65.67     657.00      25.63
 65.77     608.00      24.66
 65.87     674.00      25.96
 65.97     593.00      24.35
 66.07     565.00      23.77
 66.17     599.00      24.47
 66.27     543.83      23.32
 66.37     521.00      22.83
 66.47     567.00      23.81
 66.57     557.83      23.62
 66.67     564.00      23.75
 66.77     513.00      22.65
 66.87     551.00      23.47
 66.97     638.00      25.26
 67.07     635.49      25.21
 67.17     579.00      24.06
 67.27     667.57      25.84
 67.37     746.97      27.33
 67.47     815.53      28.56
 67.57     994.00      31.53
 67.67    1142.00      33.79
 67.77    1343.81      36.66
 67.87    1597.00      39.96
 67.97    1909.34      43.70
 68.07    2065.00      45.44
 68.17    2299.00      47.95
 68.27    2366.99      48.65
 68.37    2392.00      48.91
 68.47    2169.00      46.57
 68.57    1990.00      44.61
 68.67    1647.60      40.59
 68.77    1502.00      38.76
 68.87    1188.34      34.47
 68.97    1042.00      32.28
 69.07     937.89      30.63
 69.17     811.00      28.48
 69.27     755.66      27.49
 69.37     687.48      26.22
 69.47     638.00      25.26
 69.57     583.04      24.15
 69.67     591.00      24.31
 69.77     541.59      23.27
 69.87     568.00      23.83
 69.97     533.00      23.09
 70.07     606.19      24.62
 70.17     588.89      24.27
 70.27     602.80      24.55
 70.37     589.00      24.27
 70.47     596.00      24.41
 70.57     553.00      23.52
 70.67     604.87      24.59
 70.77     627.00      25.04
 70.87     581.00      24.10
 70.97     605.00      24.60
 71.07     635.00      25.20
 71.17     633.00      25.16
 71.27     722.72      26.88
 71.37     751.15      27.41
 71.47     869.52      29.49
 71.57    1015.00      31.86
 71.67    1142.00      33.79
 71.77    1329.00      36.46
 71.87    1520.57      38.99
 71.97    1604.00      40.05
 72.07    1850.05      43.01
 72.17    1897.51      43.56
 72.27    1882.00      43.38
 72.37    1760.00      41.95
 72.47    1739.00      41.70
 72.57    1498.46      38.71
 72.67    1487.00      38.56
 72.77    1217.37      34.89
 72.87    1157.00      34.01
 72.97     989.00      31.45
 73.07     836.00      28.91
 73.17     791.00      28.12
 73.27     733.00      27.07
 73.37     650.00      25.50
 73.47     650.00      25.50
 73.57     587.99      24.25
 73.67     640.00      25.30
 73.77     543.00      23.30
 73.87     601.51      24.53
 73.97     580.50      24.09
 74.07     624.00      24.98
 74.17     545.53      23.36
 74.27     592.00      24.33
 74.37     552.00      23.49
 74.47     586.00      24.21
 74.57     564.00      23.75
 74.67     612.00      24.74
 74.77     590.00      24.29
 74.87     651.00      25.51
 74.97     619.41      24.89
 75.07     651.00      25.51
 75.17     621.00      24.92
 75.27     536.07      23.15
 75.37     571.92      23.91
 75.47     519.86      22.80
 75.57     522.49      22.86
 75.67     566.95      23.81
 75.77     589.00      24.27
 75.87     545.00      23.35
 75.97     582.00      24.12
 76.07     601.00      24.52
 76.17     573.00      23.94
 76.27     585.00      24.19
 76.37     595.10      24.39
 76.47     621.95      24.94
 76.57     659.91      25.69
 76.67     667.75      25.84
 76.77     702.00      26.50
 76.87     666.07      25.81
 76.97     730.00      27.02
 77.07     700.41      26.47
 77.17     680.59      26.09
 77.27     626.00      25.02
 77.37     563.00      23.73
 77.47     589.05      24.27
 77.57     527.05      22.96
 77.67     514.77      22.69
 77.77     540.00      23.24
 77.87     511.00      22.61
 77.97     523.73      22.89
 78.07     482.00      21.95
 78.17     526.00      22.93
 78.27     480.00      21.91
 78.37     517.00      22.74
 78.47     504.00      22.45
 78.57     510.00      22.58
 78.67     503.00      22.43
 78.77     478.00      21.86
 78.87     539.00      23.22
 78.97     528.00      22.98
 79.07     496.00      22.27
 79.17     522.00      22.85
 79.27     479.00      21.89
 79.37     520.00      22.80
 79.47     462.37      21.50
 79.57     520.00      22.80
 79.67     463.00      21.52
 79.77     500.00      22.36
 79.87     500.00      22.36
 79.97     481.00      21.93
 80.07     537.00      23.17
 80.17     517.00      22.74
 80.27     494.00      22.23
 80.37     572.61      23.93
 80.47     537.00      23.17
 80.57     610.00      24.70
 80.67     561.42      23.69
 80.77     599.00      24.47
 80.87     608.00      24.66
 80.97     655.00      25.59
 81.07     675.00      25.98
 81.17     660.00      25.69
 81.27     736.18      27.13
 81.37     743.00      27.26
 81.47     764.94      27.66
 81.57     720.00      26.83
 81.67     765.00      27.66
 81.77     684.00      26.15
 81.87     715.81      26.75
 81.97     681.00      26.10
 82.07     694.00      26.34
 82.17     702.00      26.50
 82.27     628.00      25.06
 82.37     679.00      26.06
 82.47     608.16      24.66
 82.57     592.00      24.33
 82.67     618.54      24.87
 82.77     569.00      23.85
 82.87     593.02      24.35
 82.97     535.00      23.13
 83.07     575.33      23.99
 83.17     538.00      23.19
 83.27     523.00      22.87
 83.37     514.00      22.67
 83.47     531.00      23.04
 83.57     533.00      23.09
 83.67     538.00      23.19
 83.77     532.00      23.07
 83.87     533.00      23.09
 83.97     564.30      23.76
 84.07     550.00      23.45
 84.17     564.00      23.75
 84.27     558.00      23.62
 84.37     571.00      23.90
 84.47     574.00      23.96
 84.57     584.00      24.17
 84.67     590.00      24.29
 84.77     568.00      23.83
 84.87     511.65      22.62
 84.97     517.46      22.75
 85.07     550.00      23.45
 85.17     489.85      22.13
 85.27     509.00      22.56
 85.37     475.00      21.79
 85.47     485.86      22.04
 85.57     500.85      22.38
 85.67     518.00      22.76
 85.77     494.00      22.23
 85.87     494.00      22.23
 85.97     518.00      22.76
 86.07     533.00      23.09
 86.17     464.44      21.55
 86.27     503.94      22.45
 86.37     513.00      22.65
 86.47     565.00      23.77
 86.57     496.61      22.28
 86.67     531.00      23.04
 86.77     494.00      22.23
 86.87     517.00      22.74
 86.97     547.62      23.40
 87.07     584.82      24.18
 87.17     571.00      23.90
 87.27     535.41      23.14
 87.37     596.98      24.43
 87.47     573.00      23.94
 87.57     662.00      25.73
 87.67     654.00      25.57
 87.77     603.63      24.57
 87.87     593.00      24.35
 87.97     630.65      25.11
 88.07     555.00      23.56
 88.17     624.00      24.98
 88.27     617.00      24.84
 88.37     567.00      23.81
 88.47     581.00      24.10
 88.57     592.00      24.33
 88.67     578.00      24.04
 88.77     526.12      22.94
 88.87     562.55      23.72
 88.97     543.00      23.30
 89.07     542.93      23.30
 89.17     600.00      24.49
 89.27     562.00      23.71
 89.37     571.00      23.90
 89.47     622.00      24.94
 89.57     615.00      24.80
 89.67     558.00      23.62
 89.77     575.00      23.98
 89.87     529.82      23.02
 89.97     564.00      23.75
 90.07     568.00      23.83
 90.17     563.55      23.74
 90.27     550.00      23.45
 90.37     526.68      22.95
 90.47     540.00      23.24
 90.57     529.65      23.01
 90.67     493.00      22.20
 90.77     550.00      23.45
 90.87     482.48      21.97
 90.97     504.89      22.47
 91.07     525.34      22.92
 91.17     493.27      22.21
 91.27     499.59      22.35
 91.37     505.00      22.47
 91.47     518.00      22.76
 91.57     452.00      21.26
 91.67     506.00      22.49
 91.77     496.00      22.27
 91.87     549.23      23.44
 91.97     478.78      21.88
 92.07     531.08      23.05
 92.17     567.00      23.81
 92.27     484.00      22.00
 92.37     506.00      22.49
 92.47     559.00      23.64
 92.57     551.00      23.47
 92.67     547.50      23.40
 92.77     598.00      24.45
 92.87     646.00      25.42
 92.97     626.00      25.02
 93.07     634.41      25.19
 93.17     661.00      25.71
 93.27     670.37      25.89
 93.37     713.00      26.70
 93.47     728.00      26.98
 93.57     689.00      26.25
 93.67     770.00      27.75
 93.77     714.00      26.72
 93.87     766.00      27.68
 93.97     802.00      28.32
 94.07     786.00      28.04
 94.17     829.00      28.79
 94.27     843.00      29.03
 94.37     841.00      29.00
 94.47     827.30      28.76
 94.57     862.75      29.37
 94.67     833.00      28.86
 94.77     844.50      29.06
 94.87     869.02      29.48
 94.97     831.24      28.83
 95.07     872.00      29.53
 95.17     937.00      30.61
 95.27     852.00      29.19
 95.37     810.22      28.46
 95.47     805.61      28.38
 95.57     811.00      28.48
 95.67     824.00      28.71
 95.77     777.00      27.87
 95.87     739.00      27.18
 95.97     703.33      26.52
 96.07     690.00      26.27
 96.17     705.00      26.55
 96.27     711.00      26.66
 96.37     707.01      26.59
 96.47     723.00      26.89
 96.57     700.00      26.46
 96.67     739.74      27.20
 96.77     825.00      28.72
 96.87     842.17      29.02
 96.97     989.31      31.45
 97.07    1005.13      31.70
 97.17    1047.00      32.36
 97.27    1163.00      34.10
 97.37    1222.00      34.96
 97.47    1259.15      35.48
 97.57    1313.08      36.24
 97.67    1394.00      37.34
 97.77    1362.74      36.92
 97.87    1425.00      37.75
 97.97    1468.89      38.33
 98.07    1353.00      36.78
 98.17    1264.90      35.57
 98.27    1274.00      35.69
 98.37    1226.00      35.01
 98.47    1169.00      34.19
 98.57    1089.87      33.01
 98.67    1045.00      32.33
 98.77    1009.00      31.76
 98.87     951.00      30.84
 98.97     924.54      30.41
 99.07     866.74      29.44
 99.17     840.79      29.00
 99.27     876.47      29.61
 99.37     829.00      28.79
 99.47     936.00      30.59
 99.57     940.00      30.66
 99.67     960.00      30.98
 99.77    1138.00      33.73
 99.87    1156.28      34.00
 99.97    1135.00      33.69
100.07    1287.00      35.87
100.17    1347.00      36.70
100.27    1442.00      37.97
100.37    1658.00      40.72
100.47    1711.00      41.36
100.57    1757.00      41.92
100.67    1787.00      42.27
100.77    1984.00      44.54
100.87    1895.44      43.54
100.97    1960.00      44.27
101.07    1993.00      44.64
101.17    2013.53      44.87
101.27    1905.00      43.65
101.37    1907.08      43.67
101.47    1806.00      42.50
101.57    1791.87      42.33
101.67    1690.00      41.11
101.77    1587.00      39.84
101.87    1512.32      38.89
101.97    1535.93      39.19
102.07    1367.11      36.97
102.17    1325.29      36.40
102.27    1255.00      35.43
102.37    1250.58      35.36
102.47    1233.92      35.13
102.57    1179.00      34.34
102.67    1218.29      34.90
102.77    1133.66      33.67
102.87    1167.97      34.18
102.97    1155.77      34.00
103.07    1043.00      32.30
103.17    1064.00      32.62
103.27    1061.00      32.57
103.37     969.00      31.13
103.47     958.00      30.95
103.57     940.44      30.67
103.67     801.71      28.31
103.77     830.00      28.81
103.87     755.00      27.48
103.97     741.88      27.24
104.07     676.00      26.00
104.17     704.00      26.53
104.27     602.56      24.55
104.37     575.00      23.98
104.47     653.00      25.55
104.57     556.00      23.58
104.67     566.00      23.79
104.77     564.00      23.75
104.87     538.33      23.20
104.97     583.00      24.15
105.07     481.89      21.95
105.17     477.00      21.84
105.27     545.79      23.36
105.37     548.00      23.41
105.47     530.00      23.02
105.57     521.00      22.83
105.67     498.00      22.32
105.77     558.00      23.62
105.87     566.65      23.80
105.97     525.00      22.91
106.07     531.56      23.06
106.17     546.00      23.37
106.27     578.69      24.06
106.37     547.00      23.39
106.47     554.00      23.54
106.57     570.00      23.87
106.67     565.00      23.77
106.77     588.38      24.26
106.87     606.00      24.62
106.97     600.00      24.49
107.07     604.00      24.58
107.17     688.08      26.23
107.27     681.82      26.11
107.37     605.00      24.60
107.47     673.10      25.94
107.57     638.28      25.26
107.67     645.25      25.40
107.77     639.00      25.28
107.87     690.00      26.27
107.97     718.27      26.80
108.07     664.00      25.77
108.17     671.00      25.90
108.27     672.00      25.92
108.37     629.00      25.08
108.47     717.99      26.80
108.57     690.00      26.27
108.67     727.43      26.97
108.77     714.00      26.72
108.87     671.00      25.90
108.97     674.00      25.96
109.07     705.00      26.55
109.17     705.53      26.56
109.27     648.13      25.46
109.37     706.00      26.57
109.47     664.00      25.77
109.57     675.00      25.98
109.67     702.17      26.50
109.77     689.00      26.25
109.87     667.37      25.83
109.97     655.00      25.59
110.07     644.00      25.38
110.17     656.37      25.62
110.27     614.00      24.78
110.37     553.84      23.53
110.47     608.00      24.66
110.57     551.35      23.48
110.67     542.37      23.29
110.77     570.00      23.87
110.87     586.70      24.22
110.97     550.00      23.45
111.07     556.00      23.58
111.17     570.00      23.87
111.27     558.28      23.63
111.37     549.00      23.43
111.47     530.75      23.04
111.57     549.18      23.43
111.67     554.99      23.56
111.77     538.43      23.20
111.87     589.00      24.27
111.97     570.00      23.87
112.07     528.87      23.00
112.17     596.54      24.42
112.27     507.00      22.52
112.37     548.00      23.41
112.47     606.24      24.62
112.57     582.00      24.12
112.67     549.00      23.43
112.77     540.07      23.24
112.87     581.00      24.10
112.97     609.00      24.68
113.07     594.00      24.37
113.17     636.00      25.22
113.27     635.02      25.20
113.37     611.90      24.74
113.47     657.22      25.64
113.57     693.99      26.34
113.67     619.37      24.89
113.77     637.94      25.26
113.87     645.00      25.40
113.97     729.96      27.02
114.07     703.00      26.51
114.17     734.00      27.09
114.27     779.12      27.91
114.37     846.00      29.09
114.47     878.00      29.63
114.57    1009.99      31.78
114.67    1001.90      31.65
114.77    1171.00      34.22
114.87    1307.00      36.15
114.97    1361.90      36.90
115.07    1562.00      39.52
115.17    1678.87      40.97
115.27    1967.00      44.35
115.37    2244.00      47.37
115.47    2358.00      48.56
115.57    2685.35      51.82
115.67    3070.00      55.41
115.77    3419.00      58.47
115.87    3782.00      61.50
115.97    4068.00      63.78
116.07    4409.00      66.40
116.17    4670.00      68.34
116.27    5171.17      71.91
116.37    5452.00      73.84
116.47    5879.01      76.67
116.57    6055.00      77.81
116.67    6356.93      79.73
116.77    6736.00      82.07
116.87    6824.14      82.61
116.97    6736.21      82.07
117.07    6830.00      82.64
117.17    6892.00      83.02
117.27    6670.00      81.67
117.37    6473.92      80.46
117.47    6417.89      80.11
117.57    6108.00      78.15
117.67    5619.00      74.96
117.77    5432.65      73.71
117.87    5100.36      71.42
117.97    4747.00      68.90
118.07    4440.00      66.63
118.17    4087.00      63.93
118.27    3766.25      61.37
118.37    3244.00      56.96
118.47    2988.00      54.66
118.57    2664.40      51.62
118.67    2451.64      49.51
118.77    2111.00      45.95
118.87    2015.32      44.89
118.97    1733.63      41.64
119.07    1535.45      39.18
119.17    1425.02      37.75
119.27    1199.00      34.63
119.37    1191.00      34.51
119.47    1096.00      33.11
119.57    1009.00      31.76
119.67     937.00      30.61
119.77     887.38      29.79
119.87     886.00      29.77
119.97     720.52      26.84
120.07     704.00      26.53
120.17     725.00      26.93
120.27     691.00      26.29
120.37     614.57      24.79
120.47     622.00      24.94
120.57     675.00      25.98
120.67     618.00      24.86
120.77     645.00      25.40
120.87     573.00      23.94
120.97     595.00      24.39
121.07     627.45      25.05
121.17     558.00      23.62
121.27     557.00      23.60
121.37     541.81      23.28
121.47     563.00      23.73
121.57     570.16      23.88
121.67     551.81      23.49
121.77     530.00      23.02
121.87     565.00      23.77
121.97     556.00      23.58
122.07     557.00      23.60
122.17     597.00      24.43
122.27     561.76      23.70
122.37     577.89      24.04
122.47     646.00      25.42
122.57     613.00      24.76
122.67     589.00      24.27
122.77     643.29      25.36
122.87     604.30      24.58
122.97     668.46      25.85
123.07     656.00      25.61
123.17     636.24      25.22
123.27     639.00      25.28
123.37     681.24      26.10
123.47     631.57      25.13
123.57     624.00      24.98
123.67     673.00      25.94
123.77     659.00      25.67
123.87     580.15      24.09
123.97     653.00      25.55
124.07     637.00      25.24
124.17     660.72      25.70
124.27     614.00      24.78
124.37     609.02      24.68
124.47     595.00      24.39
124.57     622.00      24.94
124.67     579.00      24.06
124.77     636.47      25.23
124.87     616.00      24.82
124.97     588.00      24.25
