  9.97     656.00      25.61
 10.07     591.00      24.31
 10.17     581.00      24.10
 10.27     622.01      24.94
 10.37     551.00      23.47
 10.47     594.00      24.37
 10.57     604.00      24.58
 10.67     622.00      24.94
 10.77     610.00      24.70
 10.87     557.15      23.60
 10.97     558.00      23.62
 11.07     609.00      24.68
 11.17     591.41      24.32
 11.27     630.63      25.11
 11.37     579.00      24.06
 11.47     593.00      24.35
 11.57     624.16      24.98
 11.67     603.00      24.56
 11.77     667.00      25.83
 11.87     585.42      24.20
 11.97     663.00      25.75
 12.07     688.00      26.23
 12.17     692.00      26.31
 12.27     691.00      26.29
 12.37     701.06      26.48
 12.47     646.03      25.42
 12.57     580.05      24.08
 12.67     576.99      24.02
 12.77     606.00      24.62
 12.87     607.26      24.64
 12.97     590.00      24.29
 13.07     563.00      23.73
 13.17     549.00      23.43
 13.27     581.00      24.10
 13.37     572.00      23.92
 13.47     575.00      23.98
 13.57     567.00      23.81
 13.67     587.31      24.23
 13.77     560.00      23.66
 13.87     555.00      23.56
 13.97     577.00      24.02
 14.07     584.00      24.17
 14.17     541.00      23.26
 14.27     550.00      23.45
 14.37     594.84      24.39
 14.47     596.00      24.41
 14.57     547.00      23.39
 14.67     604.00      24.58
 14.77     507.00      22.52
 14.87     613.00      24.76
 14.97     547.00      23.39
 15.07     613.00      24.76
 15.17     548.00      23.41
 15.27     525.80      22.93
 15.37     534.00      23.11
 15.47     566.00      23.79
 15.57     569.00      23.85
 15.67     566.96      23.81
 15.77     568.00      23.83
 15.87     579.00      24.06
 15.97     583.00      24.15
 16.07     589.00      24.27
 16.17     558.00      23.62
 16.27     525.00      22.91
 16.37     563.17      23.73
 16.47     542.52      23.29
 16.57     558.00      23.62
 16.67     600.49      24.50
 16.77     562.00      23.71
 16.87     521.59      22.84
 16.97     559.00      23.64
 17.07     566.00      23.79
 17.17     587.00      24.23
 17.27     591.53      24.32
 17.37     569.00      23.85
 17.47     525.70      22.93
 17.57     527.00      22.96
 17.67     573.00      23.94
 17.77     570.43      23.88
 17.87     568.00      23.83
 17.97     580.95      24.10
 18.07     589.00      24.27
 18.17     558.86      23.64
 18.27     576.00      24.00
 18.37     558.00      23.62
 18.47     571.00      23.90
 18.57     594.85      24.39
 18.67     591.42      24.32
 18.77     535.00      23.13
 18.87     554.00      23.54
 18.97     528.00      22.98
 19.07     546.47      23.38
 19.17     557.00      23.60
 19.27     536.00      23.15
 19.37     565.85      23.79
 19.47     580.93      24.10
 19.57     552.00      23.49
 19.67     555.63      23.57
 19.77     528.00      22.98
 19.87     539.40      23.23
 19.97     543.00      23.30
 20.07     579.00      24.06
 20.17     561.42      23.69
 20.27     529.00      23.00
 20.37     591.28      24.32
 20.47     545.00      23.35
 20.57     584.03      24.17
 20.67     544.75      23.34
 20.77     589.90      24.29
 20.87     575.68      23.99
 20.97     555.12      23.56
 21.07     522.20      22.85
 21.17     521.00      22.83
 21.27     580.59      24.10
 21.37     544.20      23.33
 21.47     520.30      22.81
 21.57     513.00      22.65
 21.67     548.00      23.41
 21.77     539.00      23.22
 21.87     562.37      23.71
 21.97     542.00      23.28
 22.07     567.00      23.81
 22.17     511.15      22.61
 22.27     534.00      23.11
 22.37     524.00      22.89
 22.47     564.00      23.75
 22.57     527.96      22.98
 22.67     557.00      23.60
 22.77     529.00      23.00
 22.87     570.00      23.87
 22.97     541.60      23.27
 23.07     534.00      23.11
 23.17     530.00      23.02
 23.27     531.00      23.04
 23.37     530.00      23.02
 23.47     506.00      22.49
 23.57     532.86      23.08
 23.67     515.00      22.69
 23.77     528.00      22.98
 23.87     561.00      23.69
 23.97     575.00      23.98
 24.07     554.00      23.54
 24.17     531.30      23.05
 24.27     579.00      24.06
 24.37     565.00      23.77
 24.47     588.00      24.25
 24.57     610.00      24.70
 24.67     637.00      25.24
 24.77     651.71      25.53
 24.87     583.76      24.16
 24.97     575.00      23.98
 25.07     573.00      23.94
 25.17     589.23      24.27
 25.27     559.00      23.64
 25.37     528.00      22.98
 25.47     570.00      23.87
 25.57     557.57      23.61
 25.67     545.00      23.35
 25.77     625.00      25.00
 25.87     533.66      23.10
 25.97     545.43      23.35
 26.07     567.00      23.81
 26.17     573.00      23.94
 26.27     516.42      22.72
 26.37     548.70      23.42
 26.47     577.84      24.04
 26.57     493.50      22.21
 26.67     572.00      23.92
 26.77     515.47      22.70
 26.87     557.00      23.60
 26.97     508.66      22.55
 27.07     561.78      23.70
 27.17     539.00      23.22
 27.27     576.00      24.00
 27.37     558.00      23.62
 27.47     535.53      23.14
 27.57     498.05      22.32
 27.67     566.00      23.79
 27.77     542.00      23.28
 27.87     584.00      24.17
 27.97     672.91      25.94
 28.07     825.00      28.72
 28.17     911.54      30.19
 28.27     908.00      30.13
 28.37     846.00      29.09
 28.47     847.55      29.11
 28.57     706.00      26.57
 28.67     702.00      26.50
 28.77     735.78      27.13
 28.87     760.00      27.57
 28.97     790.57      28.12
 29.07     784.92      28.02
 29.17     676.04      26.00
 29.27     656.00      25.61
 29.37     599.78      24.49
 29.47     558.00      23.62
 29.57     565.10      23.77
 29.67     556.98      23.60
 29.77     599.00      24.47
 29.87     508.73      22.56
 29.97     604.00      24.58
 30.07     537.00      23.17
 30.17     571.00      23.90
 30.27     516.05      22.72
 30.37     555.00      23.56
 30.47     537.00      23.17
 30.57     543.00      23.30
 30.67     565.00      23.77
 30.77     603.00      24.56
 30.87     597.43      24.44
 30.97     617.00      24.84
 31.07     572.00      23.92
 31.17     612.00      24.74
 31.27     620.00      24.90
 31.37     552.00      23.49
 31.47     567.00      23.81
 31.57     551.03      23.47
 31.67     544.00      23.32
 31.77     511.35      22.61
 31.87     520.00      22.80
 31.97     555.00      23.56
 32.07     554.00      23.54
 32.17     538.00      23.19
 32.27     546.00      23.37
 32.37     541.00      23.26
 32.47     541.04      23.26
 32.57     509.00      22.56
 32.67     546.00      23.37
 32.77     553.00      23.52
 32.87     521.01      22.83
 32.97     549.00      23.43
 33.07     532.00      23.07
 33.17     577.57      24.03
 33.27     548.51      23.42
 33.37     585.00      24.19
 33.47     562.00      23.71
 33.57     618.67      24.87
 33.67     640.66      25.31
 33.77     765.00      27.66
 33.87     856.95      29.27
 33.97    1043.94      32.31
 34.07    1089.00      33.00
 34.17    1036.00      32.19
 34.27     869.00      29.48
 34.37     772.00      27.78
 34.47     635.00      25.20
 34.57     633.11      25.16
 34.67     562.87      23.72
 34.77     522.38      22.86
 34.87     486.00      22.05
 34.97     524.78      22.91
 35.07     522.00      22.85
 35.17     533.00      23.09
 35.27     485.00      22.02
 35.37     482.00      21.95
 35.47     546.38      23.37
 35.57     537.32      23.18
 35.67     545.00      23.35
 35.77     485.35      22.03
 35.87     535.00      23.13
 35.97     494.00      22.23
 36.07     547.00      23.39
 36.17     525.00      22.91
 36.27     511.02      22.61
 36.37     452.00      21.26
 36.47     516.00      22.72
 36.57     486.25      22.05
 36.67     532.00      23.07
 36.77     488.35      22.10
 36.87     504.00      22.45
 36.97     535.83      23.15
 37.07     516.00      22.72
 37.17     530.00      23.02
 37.27     480.00      21.91
 37.37     540.00      23.24
 37.47     549.00      23.43
 37.57     525.58      22.93
 37.67     526.00      22.93
 37.77     481.00      21.93
 37.87     517.00      22.74
 37.97     511.00      22.61
 38.07     497.95      22.31
 38.17     543.34      23.31
 38.27     529.00      23.00
 38.37     490.00      22.14
 38.47     511.68      22.62
 38.57     503.00      22.43
 38.67     472.90      21.75
 38.77     475.00      21.79
 38.87     507.00      22.52
 38.97     473.00      21.75
 39.07     532.00      23.07
 39.17     508.00      22.54
 39.27     510.00      22.58
 39.37     492.00      22.18
 39.47     500.00      22.36
 39.57     529.00      23.00
 39.67     545.84      23.36
 39.77     507.56      22.53
 39.87     532.00      23.07
 39.97     545.00      23.35
 40.07     584.00      24.17
 40.17     518.55      22.77
 40.27     521.37      22.83
 40.37     484.00      22.00
 40.47     504.00      22.45
 40.57     482.32      21.96
 40.67     535.84      23.15
 40.77     491.00      22.16
 40.87     508.00      22.54
 40.97     480.00      21.91
 41.07     476.26      21.82
 41.17     471.50      21.71
 41.27     515.06      22.70
 41.37     523.53      22.88
 41.47     492.92      22.20
 41.57     476.00      21.82
 41.67     497.27      22.30
 41.77     471.26      21.71
 41.87     489.00      22.11
 41.97     467.00      21.61
 42.07     496.84      22.29
 42.17     501.00      22.38
 42.27     505.00      22.47
 42.37     546.00      23.37
 42.47     620.33      24.91
 42.57     580.00      24.08
 42.67     665.94      25.81
 42.77     575.00      23.98
 42.87     567.00      23.81
 42.97     573.00      23.94
 43.07     533.00      23.09
 43.17     519.00      22.78
 43.27     506.00      22.49
 43.37     517.10      22.74
 43.47     517.81      22.76
 43.57     536.00      23.15
 43.67     498.17      22.32
 43.77     490.00      22.14
 43.87     489.00      22.11
 43.97     486.80      22.06
 44.07     471.63      21.72
 44.17     522.63      22.86
 44.27     522.00      22.85
 44.37     494.64      22.24
 44.47     485.57      22.04
 44.57     510.00      22.58
 44.67     515.59      22.71
 44.77     512.00      22.63
 44.87     483.40      21.99
 44.97     529.04      23.00
 45.07     524.63      22.90
 45.17     530.00      23.02
 45.27     468.00      21.63
 45.37     490.00      22.14
 45.47     499.00      22.34
 45.57     508.00      22.54
 45.67     488.00      22.09
 45.77     522.00      22.85
 45.87     535.00      23.13
 45.97     503.00      22.43
 46.07     493.00      22.20
 46.17     493.27      22.21
 46.27     476.58      21.83
 46.37     528.00      22.98
 46.47     490.19      22.14
 46.57     477.26      21.85
 46.67     510.00      22.58
 46.77     482.65      21.97
 46.87     472.38      21.73
 46.97     519.00      22.78
 47.07     514.00      22.67
 47.17     502.00      22.41
 47.27     514.00      22.67
 47.37     530.00      23.02
 47.47     559.00      23.64
 47.57     543.00      23.30
 47.67     543.00      23.30
 47.77     576.00      24.00
 47.87     580.00      24.08
 47.97     559.00      23.64
 48.07     578.00      24.04
 48.17     529.04      23.00
 48.27     566.00      23.79
 48.37     521.00      22.83
 48.47     494.00      22.23
 48.57     510.00      22.58
 48.67     594.00      24.37
 48.77     515.00      22.69
 48.87     518.00      22.76
 48.97     571.00      23.90
 49.07     567.00      23.81
 49.17     568.00      23.83
 49.27     615.00      24.80
 49.37     638.50      25.27
 49.47     699.00      26.44
 49.57     665.00      25.79
 49.67     933.00      30.55
 49.77    1184.00      34.41
 49.87    1504.00      38.78
 49.97    1796.92      42.39
 50.07    2202.00      46.93
 50.17    2566.98      50.67
 50.27    2604.65      51.04
 50.37    2297.00      47.93
 50.47    1783.00      42.23
 50.57    1468.00      38.31
 50.67     994.00      31.53
 50.77     839.93      28.98
 50.87     738.97      27.18
 50.97     693.00      26.32
 51.07     642.00      25.34
 51.17     636.83      25.24
 51.27     603.12      24.56
 51.37     584.01      24.17
 51.47     532.11      23.07
 51.57     595.28      24.40
 51.67     578.00      24.04
 51.77     567.00      23.81
 51.87     610.00      24.70
 51.97     530.45      23.03
 52.07     557.55      23.61
 52.17     558.00      23.62
 52.27     548.42      23.42
 52.37     520.12      22.81
 52.47     566.00      23.79
 52.57     550.00      23.45
 52.67     582.00      24.12
 52.77     637.00      25.24
 52.87     604.85      24.59
 52.97     729.95      27.02
 53.07     770.85      27.76
 53.17     904.00      30.07
 53.27    1082.00      32.89
 53.37    1119.49      33.46
 53.47    1272.00      35.67
 53.57    1164.28      34.12
 53.67    1105.00      33.24
 53.77     976.00      31.24
 53.87     867.00      29.44
 53.97     703.00      26.51
 54.07     717.00      26.78
 54.17     695.00      26.36
 54.27     628.05      25.06
 54.37     611.00      24.72
 54.47     575.00      23.98
 54.57     572.00      23.92
 54.67     542.00      23.28
 54.77     576.00      24.00
 54.87     564.00      23.75
 54.97     539.00      23.22
 55.07     579.00      24.06
 55.17     575.00      23.98
 55.27     574.69      23.97
 55.37     578.00      24.04
 55.47     538.21      23.20
 55.57     560.33      23.67
 55.67     615.00      24.80
 55.77     593.52      24.36
 55.87     555.82      23.58
 55.97     601.00      24.52
 56.07     684.00      26.15
 56.17     766.64      27.69
 56.27     951.85      30.85
 56.37    1133.90      33.67
 56.47    1473.00      38.38
 56.57    1836.00      42.85
 56.67    2232.00      47.24
 56.77    2467.00      49.67
 56.87    2629.47      51.28
 56.97    2556.00      50.56
 57.07    2366.22      48.64
 57.17    2022.59      44.97
 57.27    1593.21      39.92
 57.37    1317.51      36.30
 57.47    1006.00      31.72
 57.57     908.00      30.13
 57.67     810.00      28.46
 57.77     664.73      25.78
 57.87     620.58      24.91
 57.97     620.97      24.92
 58.07     647.08      25.44
 58.17     727.00      26.96
 58.27     758.07      27.53
 58.37     845.63      29.08
 58.47     893.00      29.88
 58.57    1062.00      32.59
 58.67    1197.04      34.60
 58.77    1333.00      36.51
 58.87    1423.88      37.73
 58.97    1430.00      37.82
 59.07    1442.00      37.97
 59.17    1423.63      37.73
 59.27    1337.87      36.58
 59.37    1338.83      36.59
 59.47    1236.00      35.16
 59.57    1176.08      34.29
 59.67    1177.00      34.31
 59.77    1172.00      34.23
 59.87    1229.00      35.06
 59.97    1359.00      36.86
 60.07    1426.70      37.77
 60.17    1596.00      39.95
 60.27    1575.00      39.69
 60.37    1543.00      39.28
 60.47    1378.00      37.12
 60.57    1177.64      34.32
 60.67    1113.00      33.36
 60.77     919.00      30.32
 60.87     758.00      27.53
 60.97     673.58      25.95
 61.07     683.00      26.13
 61.17     611.29      24.72
 61.27     653.00      25.55
 61.37     665.47      25.80
 61.47     709.00      26.63
 61.57     724.78      26.92
 61.67     887.00      29.78
 61.77     930.15      30.50
 61.87    1083.00      32.91
 61.97    1216.00      34.87
 62.07    1359.00      36.86
 62.17    1399.00      37.40
 62.27    1333.00      36.51
 62.37    1335.74      36.55
 62.47    1139.00      33.75
 62.57    1085.90      32.95
 62.67     853.00      29.21
 62.77     735.00      27.11
 62.87     684.00      26.15
 62.97     686.17      26.19
 63.07     577.26      24.03
 63.17     601.00      24.52
 63.27     569.00      23.85
 63.37     526.48      22.95
 63.47     555.00      23.56
 63.57     559.36      23.65
 63.67     543.07      23.30
 63.77     665.00      25.79
 63.87     696.00      26.38
 63.97     680.00      26.08
 64.07     743.08      27.26
 64.17     750.43      27.39
 64.27     861.00      29.34
 64.37     849.63      29.15
 64.47    1007.00      31.73
 64.57    1045.00      32.33
 64.67    1010.00      31.78
 64.77     964.53      31.06
 64.87     989.00      31.45
 64.97     940.00      30.66
 65.07     871.84      29.53
 65.17     758.00      27.53
 65.27     679.00      26.06
 65.37     656.00      25.61
 65.47     625.88      25.02
 65.57     625.60      25.01
 65.67     652.89      25.55
 65.77     551.08      23.47
 65.87     582.53      24.14
 65.97     545.00      23.35
 66.07     609.00      24.68
 66.17     537.79      23.19
 66.27     550.00      23.45
 66.37     545.83      23.36
 66.47     565.12      23.77
 66.57     523.00      22.87
 66.67     577.00      24.02
 66.77     615.00      24.80
 66.87     567.00      23.81
 66.97     599.80      24.49
 67.07     658.00      25.65
 67.17     719.08      26.82
 67.27     808.00      28.43
 67.37     899.00      29.98
 67.47    1132.74      33.66
 67.57    1248.81      35.34
 67.67    1581.00      39.76
 67.77    1794.00      42.36
 67.87    2161.88      46.50
 67.97    2317.00      48.14
 68.07    2380.74      48.79
 68.17    2359.55      48.58
 68.27    2346.00      48.44
 68.37    2150.00      46.37
 68.47    1800.48      42.43
 68.57    1630.00      40.37
 68.67    1256.00      35.44
 68.77    1107.93      33.29
 68.87     916.00      30.27
 68.97     784.93      28.02
 69.07     729.81      27.01
 69.17     668.56      25.86
 69.27     611.00      24.72
 69.37     593.00      24.35
 69.47     585.00      24.19
 69.57     569.00      23.85
 69.67     591.00      24.31
 69.77     602.00      24.54
 69.87     575.00      23.98
 69.97     584.00      24.17
 70.07     603.00      24.56
 70.17     584.90      24.18
 70.27     596.99      24.43
 70.37     584.00      24.17
 70.47     582.00      24.12
 70.57     578.00      24.04
 70.67     622.00      24.94
 70.77     593.08      24.35
 70.87     592.00      24.33
 70.97     606.00      24.62
 71.07     641.00      25.32
 71.17     754.00      27.46
 71.27     830.00      28.81
 71.37     898.83      29.98
 71.47    1074.00      32.77
 71.57    1253.00      35.40
 71.67    1511.00      38.87
 71.77    1653.00      40.66
 71.87    1803.00      42.46
 71.97    1934.46      43.98
 72.07    2019.23      44.94
 72.17    1850.70      43.02
 72.27    1789.00      42.30
 72.37    1600.00      40.00
 72.47    1458.00      38.18
 72.57    1267.99      35.61
 72.67    1149.00      33.90
 72.77     996.53      31.57
 72.87     920.24      30.34
 72.97     845.00      29.07
 73.07     721.00      26.85
 73.17     808.63      28.44
 73.27     756.05      27.50
 73.37     725.23      26.93
 73.47     632.00      25.14
 73.57     650.00      25.50
 73.67     594.00      24.37
 73.77     546.00      23.37
 73.87     591.00      24.31
 73.97     572.00      23.92
 74.07     596.00      24.41
 74.17     603.98      24.58
 74.27     565.35      23.78
 74.37     545.29      23.35
 74.47     579.57      24.07
 74.57     599.79      24.49
 74.67     582.84      24.14
 74.77     624.00      24.98
 74.87     563.47      23.74
 74.97     624.00      24.98
 75.07     586.00      24.21
 75.17     568.00      23.83
 75.27     572.00      23.92
 75.37     568.88      23.85
 75.47     565.00      23.77
 75.57     518.15      22.76
 75.67     589.91      24.29
 75.77     606.00      24.62
 75.87     607.90      24.66
 75.97     564.40      23.76
 76.07     635.00      25.20
 76.17     669.18      25.87
 76.27     681.00      26.10
 76.37     714.15      26.72
 76.47     753.00      27.44
 76.57     674.00      25.96
 76.67     689.85      26.26
 76.77     697.00      26.40
 76.87     687.07      26.21
 76.97     657.00      25.63
 77.07     644.62      25.39
 77.17     578.00      24.04
 77.27     587.00      24.23
 77.37     549.99      23.45
 77.47     587.74      24.24
 77.57     581.00      24.10
 77.67     576.67      24.01
 77.77     562.00      23.71
 77.87     494.00      22.23
 77.97     514.00      22.67
 78.07     542.62      23.29
 78.17     533.00      23.09
 78.27     485.00      22.02
 78.37     502.78      22.42
 78.47     551.06      23.47
 78.57     539.70      23.23
 78.67     519.00      22.78
 78.77     534.65      23.12
 78.87     488.00      22.09
 78.97     546.87      23.39
 79.07     537.00      23.17
 79.17     505.99      22.49
 79.27     520.00      22.80
 79.37     543.13      23.31
 79.47     496.22      22.28
 79.57     513.00      22.65
 79.67     518.26      22.77
 79.77     510.30      22.59
 79.87     563.00      23.73
 79.97     506.52      22.51
 80.07     533.00      23.09
 80.17     522.60      22.86
 80.27     563.00      23.73
 80.37     585.00      24.19
 80.47     557.00      23.60
 80.57     564.00      23.75
 80.67     651.00      25.51
 80.77     616.03      24.82
 80.87     726.41      26.95
 80.97     656.00      25.61
 81.07     734.00      27.09
 81.17     696.60      26.39
 81.27     741.00      27.22
 81.37     760.00      27.57
 81.47     714.06      26.72
 81.57     769.00      27.73
 81.67     766.00      27.68
 81.77     738.40      27.17
 81.87     747.00      27.33
 81.97     715.00      26.74
 82.07     701.83      26.49
 82.17     605.88      24.61
 82.27     626.55      25.03
 82.37     589.00      24.27
 82.47     631.00      25.12
 82.57     599.45      24.48
 82.67     564.00      23.75
 82.77     530.98      23.04
 82.87     566.00      23.79
 82.97     575.89      24.00
 83.07     599.08      24.48
 83.17     522.47      22.86
 83.27     573.00      23.94
 83.37     526.07      22.94
 83.47     515.00      22.69
 83.57     555.75      23.57
 83.67     591.11      24.31
 83.77     562.00      23.71
 83.87     548.94      23.43
 83.97     594.93      24.39
 84.07     600.00      24.49
 84.17     601.00      24.52
 84.27     606.00      24.62
 84.37     552.00      23.49
 84.47     516.00      22.72
 84.57     545.23      23.35
 84.67     574.63      23.97
 84.77     544.00      23.32
 84.87     516.38      22.72
 84.97     536.65      23.17
 85.07     520.00      22.80
 85.17     577.00      24.02
 85.27     517.00      22.74
 85.37     536.00      23.15
 85.47     501.10      22.39
 85.57     520.38      22.81
 85.67     509.00      22.56
 85.77     488.00      22.09
 85.87     543.00      23.30
 85.97     490.00      22.14
 86.07     537.00      23.17
 86.17     537.00      23.17
 86.27     569.09      23.86
 86.37     560.00      23.66
 86.47     505.00      22.47
 86.57     599.61      24.49
 86.67     560.72      23.68
 86.77     567.91      23.83
 86.87     601.00      24.52
 86.97     646.00      25.42
 87.07     622.41      24.95
 87.17     657.45      25.64
 87.27     673.78      25.96
 87.37     657.00      25.63
 87.47     678.00      26.04
 87.57     666.00      25.81
 87.67     686.00      26.19
 87.77     607.00      24.64
 87.87     627.56      25.05
 87.97     655.00      25.59
 88.07     579.34      24.07
 88.17     636.00      25.22
 88.27     609.00      24.68
 88.37     557.00      23.60
 88.47     553.55      23.53
 88.57     583.00      24.15
 88.67     557.00      23.60
 88.77     583.00      24.15
 88.87     595.00      24.39
 88.97     576.92      24.02
 89.07     590.00      24.29
 89.17     600.63      24.51
 89.27     645.05      25.40
 89.37     578.00      24.04
 89.47     585.00      24.19
 89.57     640.00      25.30
 89.67     616.00      24.82
 89.77     635.05      25.20
 89.87     536.69      23.17
 89.97     560.00      23.66
 90.07     519.00      22.78
 90.17     576.00      24.00
 90.27     514.00      22.67
 90.37     555.00      23.56
 90.47     557.00      23.60
 90.57     552.05      23.50
 90.67     526.00      22.93
 90.77     513.39      22.66
 90.87     543.39      23.31
 90.97     546.00      23.37
 91.07     569.24      23.86
 91.17     517.15      22.74
 91.27     524.00      22.89
 91.37     558.00      23.62
 91.47     511.00      22.61
 91.57     514.00      22.67
 91.67     539.46      23.23
 91.77     537.00      23.17
 91.87     574.24      23.96
 91.97     538.00      23.19
 92.07     546.00      23.37
 92.17     543.41      23.31
 92.27     601.00      24.52
 92.37     600.00      24.49
 92.47     582.04      24.13
 92.57     619.00      24.88
 92.67     660.00      25.69
 92.77     686.00      26.19
 92.87     738.94      27.18
 92.97     737.00      27.15
 93.07     725.67      26.94
 93.17     828.00      28.77
 93.27     791.48      28.13
 93.37     818.00      28.60
 93.47     767.45      27.70
 93.57     799.00      28.27
 93.67     825.56      28.73
 93.77     910.00      30.17
 93.87     842.00      29.02
 93.97     807.52      28.42
 94.07     830.00      28.81
 94.17     791.81      28.14
 94.27     897.00      29.95
 94.37     858.00      29.29
 94.47     893.00      29.88
 94.57     939.00      30.64
 94.67     922.00      30.36
 94.77     916.10      30.27
 94.87     863.03      29.38
 94.97     921.05      30.35
 95.07     912.00      30.20
 95.17     799.33      28.27
 95.27     851.00      29.17
 95.37     842.00      29.02
 95.47     808.58      28.44
 95.57     711.00      26.66
 95.67     737.00      27.15
 95.77     702.42      26.50
 95.87     637.00      25.24
 95.97     675.88      26.00
 96.07     679.00      26.06
 96.17     661.26      25.71
 96.27     729.00      27.00
 96.37     782.00      27.96
 96.47     768.02      27.71
 96.57     869.50      29.49
 96.67     890.00      29.83
 96.77    1003.00      31.67
 96.87    1134.00      33.67
 96.97    1158.00      34.03
 97.07    1233.00      35.11
 97.17    1352.00      36.77
 97.27    1408.00      37.52
 97.37    1353.67      36.79
 97.47    1391.00      37.30
 97.57    1444.53      38.01
 97.67    1432.00      37.84
 97.77    1463.03      38.25
 97.87    1320.00      36.33
 97.97    1330.90      36.48
 98.07    1207.00      34.74
 98.17    1149.00      33.90
 98.27    1050.00      32.40
 98.37    1031.00      32.11
 98.47     940.00      30.66
 98.57     949.34      30.81
 98.67     817.00      28.58
 98.77     874.00      29.56
 98.87     789.00      28.09
 98.97     776.00      27.86
 99.07     820.62      28.65
 99.17     880.00      29.66
 99.27     883.00      29.72
 99.37     979.00      31.29
 99.47    1031.00      32.11
 99.57    1160.00      34.06
 99.67    1207.74      34.75
 99.77    1313.00      36.24
 99.87    1422.92      37.72
 99.97    1442.41      37.98
100.07    1599.15      39.99
100.17    1707.07      41.32
100.27    1857.00      43.09
100.37    2029.00      45.04
100.47    1917.00      43.78
100.57    2027.73      45.03
100.67    2135.98      46.22
100.77    2053.22      45.31
100.87    2046.00      45.23
100.97    2076.65      45.57
101.07    1957.00      44.24
101.17    1900.00      43.59
101.27    1749.38      41.83
101.37    1733.00      41.63
101.47    1561.06      39.51
101.57    1537.41      39.21
101.67    1434.00      37.87
101.77    1339.00      36.59
101.87    1297.07      36.01
101.97    1187.00      34.45
102.07    1148.79      33.89
102.17    1112.98      33.36
102.27    1165.00      34.13
102.37    1122.00      33.50
102.47    1136.33      33.71
102.57    1037.09      32.20
102.67    1066.00      32.65
102.77    1026.00      32.03
102.87     992.00      31.50
102.97     932.08      30.53
103.07     960.00      30.98
103.17     918.00      30.30
103.27     872.00      29.53
103.37     785.00      28.02
103.47     801.26      28.31
103.57     706.24      26.58
103.67     736.00      27.13
103.77     666.00      25.81
103.87     675.00      25.98
103.97     634.00      25.18
104.07     634.43      25.19
104.17     595.00      24.39
104.27     585.00      24.19
104.37     529.26      23.01
104.47     587.90      24.25
104.57     583.00      24.15
104.67     500.00      22.36
104.77     588.00      24.25
104.87     544.78      23.34
104.97     510.00      22.58
105.07     512.88      22.65
105.17     539.45      23.23
105.27     556.00      23.58
105.37     568.00      23.83
105.47     532.00      23.07
105.57     576.36      24.01
105.67     538.14      23.20
105.77     508.58      22.55
105.87     598.17      24.46
105.97     567.00      23.81
106.07     567.85      23.83
106.17     612.00      24.74
106.27     572.00      23.92
106.37     583.00      24.15
106.47     639.00      25.28
106.57     609.00      24.68
106.67     645.00      25.40
106.77     659.00      25.67
106.87     607.00      24.64
106.97     630.00      25.10
107.07     733.12      27.08
107.17     694.00      26.34
107.27     670.00      25.88
107.37     670.16      25.89
107.47     665.00      25.79
107.57     679.00      26.06
107.67     684.00      26.15
107.77     702.00      26.50
107.87     652.00      25.53
107.97     751.41      27.41
108.07     737.92      27.16
108.17     672.00      25.92
108.27     691.00      26.29
108.37     731.00      27.04
108.47     692.00      26.31
108.57     714.00      26.72
108.67     660.00      25.69
108.77     659.00      25.67
108.87     707.76      26.60
108.97     682.00      26.12
109.07     653.00      25.55
109.17     682.00      26.12
109.27     705.00      26.55
109.37     674.00      25.96
109.47     636.00      25.22
109.57     607.28      24.64
109.67     621.00      24.92
109.77     619.00      24.88
109.87     566.61      23.80
109.97     579.20      24.07
110.07     597.00      24.43
110.17     573.00      23.94
110.27     568.00      23.83
110.37     599.00      24.47
110.47     577.00      24.02
110.57     514.82      22.69
110.67     572.00      23.92
110.77     616.00      24.82
110.87     555.00      23.56
110.97     561.09      23.69
111.07     579.00      24.06
111.17     529.15      23.00
111.27     606.00      24.62
111.37     517.00      22.74
111.47     540.00      23.24
111.57     536.00      23.15
111.67     550.00      23.45
111.77     532.43      23.07
111.87     556.00      23.58
111.97     557.00      23.60
112.07     586.00      24.21
112.17     565.00      23.77
112.27     573.00      23.94
112.37     534.00      23.11
112.47     617.00      24.84
112.57     586.00      24.21
112.67     556.00      23.58
112.77     588.00      24.25
112.87     615.00      24.80
112.97     628.00      25.06
113.07     616.00      24.82
113.17     647.00      25.44
113.27     732.00      27.06
113.37     740.00      27.20
113.47     714.54      26.73
113.57     765.00      27.66
113.67     824.32      28.71
113.77     796.57      28.22
113.87     861.00      29.34
113.97     894.00      29.90
114.07     936.00      30.59
114.17    1008.77      31.76
114.27    1095.00      33.09
114.37    1161.00      34.07
114.47    1263.41      35.54
114.57    1359.25      36.87
114.67    1570.00      39.62
114.77    1682.32      41.02
114.87    1864.00      43.17
114.97    2022.00      44.97
115.07    2339.00      48.36
115.17    2649.00      51.47
115.27    2899.00      53.84
115.37    3092.57      55.61
115.47    3412.45      58.42
115.57    3788.00      61.55
115.67    4194.00      64.76
115.77    4446.54      66.68
115.87    4832.00      69.51
115.97    5321.73      72.95
116.07    5691.00      75.44
116.17    5980.00      77.33
116.27    6277.00      79.23
116.37    6492.85      80.58
116.47    6624.00      81.39
116.57    6673.00      81.69
116.67    6961.30      83.43
116.77    6904.00      83.09
116.87    6819.00      82.58
116.97    6736.31      82.08
117.07    6402.00      80.01
117.17    6046.00      77.76
117.27    5823.82      76.31
117.37    5508.01      74.22
117.47    4916.72      70.12
117.57    4573.00      67.62
117.67    4155.00      64.46
117.77    3995.00      63.21
117.87    3438.40      58.64
117.97    3082.53      55.52
118.07    2866.00      53.54
118.17    2499.00      49.99
118.27    2308.33      48.05
118.37    1962.55      44.30
118.47    1745.00      41.77
118.57    1593.82      39.92
118.67    1402.00      37.44
118.77    1302.00      36.08
118.87    1157.43      34.02
118.97     986.00      31.40
119.07     988.17      31.44
119.17     917.00      30.28
119.27     815.63      28.56
119.37     786.00      28.04
119.47     786.00      28.04
119.57     722.00      26.87
119.67     715.00      26.74
119.77     633.78      25.18
119.87     656.00      25.61
119.97     583.00      24.15
120.07     592.00      24.33
120.17     603.71      24.57
120.27     579.00      24.06
120.37     609.00      24.68
120.47     581.00      24.10
120.57     589.00      24.27
120.67     576.00      24.00
120.77     531.15      23.05
120.87     588.00      24.25
120.97     546.00      23.37
121.07     576.71      24.01
121.17     617.68      24.85
121.27     546.98      23.39
121.37     566.00      23.79
121.47     553.00      23.52
121.57     570.00      23.87
121.67     601.00      24.52
121.77     634.00      25.18
121.87     552.70      23.51
121.97     604.50      24.59
122.07     586.13      24.21
122.17     678.00      26.04
122.27     642.00      25.34
122.37     633.98      25.18
122.47     604.00      24.58
122.57     599.00      24.47
122.67     616.00      24.82
122.77     585.51      24.20
122.87     681.40      26.10
122.97     633.96      25.18
123.07     640.00      25.30
123.17     650.00      25.50
123.27     637.00      25.24
123.37     641.81      25.33
123.47     596.00      24.41
123.57     651.40      25.52
123.67     643.00      25.36
123.77     641.00      25.32
123.87     625.00      25.00
123.97     630.98      25.12
124.07     575.99      24.00
124.17     620.82      24.92
124.27     582.00      24.12
124.37     601.00      24.52
124.47     568.00      23.83
124.57     583.00      24.15
124.67     609.00      24.68
124.77     620.00      24.90
124.87     612.00      24.74
124.97     563.25      23.73
