  9.97     583.45      24.15
 10.07     601.00      24.52
 10.17     598.00      24.45
 10.27     616.89      24.84
 10.37     578.00      24.04
 10.47     576.48      24.01
 10.57     575.00      23.98
 10.67     599.00      24.47
 10.77     549.00      23.43
 10.87     622.00      24.94
 10.97     571.79      23.91
 11.07     584.00      24.17
 11.17     591.00      24.31
 11.27     603.00      24.56
 11.37     584.14      24.17
 11.47     542.13      23.28
 11.57     594.00      24.37
 11.67     562.51      23.72
 11.77     560.35      23.67
 11.87     661.00      25.71
 11.97     644.00      25.38
 12.07     676.00      26.00
 12.17     676.00      26.00
 12.27     683.00      26.13
 12.37     710.56      26.66
 12.47     654.00      25.57
 12.57     651.58      25.53
 12.67     576.54      24.01
 12.77     601.71      24.53
 12.87     595.00      24.39
 12.97     543.00      23.30
 13.07     550.00      23.45
 13.17     572.52      23.93
 13.27     615.46      24.81
 13.37     598.00      24.45
 13.47     547.00      23.39
 13.57     595.42      24.40
 13.67     576.00      24.00
 13.77     581.00      24.10
 13.87     534.17      23.11
 13.97     539.02      23.22
 14.07     575.09      23.98
 14.17     535.19      23.13
 14.27     600.23      24.50
 14.37     571.31      23.90
 14.47     581.00      24.10
 14.57     544.20      23.33
 14.67     555.17      23.56
 14.77     588.49      24.26
 14.87     614.05      24.78
 14.97     571.00      23.90
 15.07     540.31      23.24
 15.17     594.77      24.39
 15.27     571.80      23.91
 15.37     523.00      22.87
 15.47     535.00      23.13
 15.57     610.05      24.70
 15.67     528.09      22.98
 15.77     534.00      23.11
 15.87     568.02      23.83
 15.97     536.00      23.15
 16.07     525.05      22.91
 16.17     562.00      23.71
 16.27     595.00      24.39
 16.37     561.68      23.70
 16.47     526.77      22.95
 16.57     582.00      24.12
 16.67     567.00      23.81
 16.77     562.10      23.71
 16.87     606.00      24.62
 16.97     544.57      23.34
 17.07     544.00      23.32
 17.17     569.00      23.85
 17.27     573.00      23.94
 17.37     574.00      23.96
 17.47     546.00      23.37
 17.57     537.00      23.17
 17.67     547.00      23.39
 17.77     498.00      22.32
 17.87     584.03      24.17
 17.97     520.00      22.80
 18.07     549.00      23.43
 18.17     551.00      23.47
 18.27     575.00      23.98
 18.37     558.96      23.64
 18.47     556.80      23.60
 18.57     574.00      23.96
 18.67     605.58      24.61
 18.77     559.00      23.64
 18.87     551.70      23.49
 18.97     527.08      22.96
 19.07     561.00      23.69
 19.17     605.95      24.62
 19.27     523.00      22.87
 19.37     582.18      24.13
 19.47     529.00      23.00
 19.57     512.87      22.65
 19.67     582.00      24.12
 19.77     530.00      23.02
 19.87     557.00      23.60
 19.97     609.00      24.68
 20.07     533.00      23.09
 20.17     530.07      23.02
 20.27     556.82      23.60
 20.37     575.83      24.00
 20.47     562.00      23.71
 20.57     523.00      22.87
 20.67     570.00      23.87
 20.77     584.66      24.18
 20.87     545.00      23.35
 20.97     510.00      22.58
 21.07     578.00      24.04
 21.17     569.70      23.87
 21.27     579.00      24.06
 21.37     562.00      23.71
 21.47     530.88      23.04
 21.57     568.46      23.84
 21.67     556.00      23.58
 21.77     524.00      22.89
 21.87     539.10      23.22
 21.97     589.64      24.28
 22.07     579.59      24.07
 22.17     556.00      23.58
 22.27     579.71      24.08
 22.37     585.72      24.20
 22.47     580.04      24.08
 22.57     532.00      23.07
 22.67     558.00      23.62
 22.77     536.00      23.15
 22.87     550.00      23.45
 22.97     533.00      23.09
 23.07     559.00      23.64
 23.17     550.00      23.45
 23.27     547.18      23.39
 23.37     550.00      23.45
 23.47     563.00      23.73
 23.57     616.00      24.82
 23.67     585.00      24.19
 23.77     542.00      23.28
 23.87     563.99      23.75
 23.97     567.00      23.81
 24.07     550.18      23.46
 24.17     577.00      24.02
 24.27     526.52      22.95
 24.37     553.00      23.52
 24.47     618.00      24.86
 24.57     554.00      23.54
 24.67     641.00      25.32
 24.77     598.00      24.45
 24.87     631.00      25.12
 24.97     583.00      24.15
 25.07     620.33      24.91
 25.17     545.00      23.35
 25.27     589.00      24.27
 25.37     527.00      22.96
 25.47     585.00      24.19
 25.57     530.00      23.02
 25.67     557.00      23.60
 25.77     521.00      22.83
 25.87     586.00      24.21
 25.97     567.00      23.81
 26.07     541.00      23.26
 26.17     550.96      23.47
 26.27     551.00      23.47
 26.37     535.00      23.13
 26.47     546.00      23.37
 26.57     556.92      23.60
 26.67     545.32      23.35
 26.77     568.00      23.83
 26.87     540.04      23.24
 26.97     598.00      24.45
 27.07     534.00      23.11
 27.17     573.00      23.94
 27.27     538.94      23.22
 27.37     598.00      24.45
 27.47     582.29      24.13
 27.57     538.95      23.22
 27.67     595.58      24.40
 27.77     587.00      24.23
 27.87     599.18      24.48
 27.97     687.82      26.23
 28.07     793.00      28.16
 28.17     912.07      30.20
 28.27     982.00      31.34
 28.37     868.35      29.47
 28.47     788.40      28.08
 28.57     708.00      26.61
 28.67     718.81      26.81
 28.77     734.00      27.09
 28.87     753.00      27.44
 28.97     828.33      28.78
 29.07     773.00      27.80
 29.17     679.00      26.06
 29.27     641.00      25.32
 29.37     597.00      24.43
 29.47     603.00      24.56
 29.57     575.86      24.00
 29.67     603.00      24.56
 29.77     582.00      24.12
 29.87     608.00      24.66
 29.97     545.00      23.35
 30.07     571.00      23.90
 30.17     602.00      24.54
 30.27     556.00      23.58
 30.37     521.00      22.83
 30.47     597.00      24.43
 30.57     540.44      23.25
 30.67     565.53      23.78
 30.77     581.00      24.10
 30.87     622.00      24.94
 30.97     614.00      24.78
 31.07     649.00      25.48
 31.17     605.00      24.60
 31.27     532.84      23.08
 31.37     570.00      23.87
 31.47     569.00      23.85
 31.57     543.00      23.30
 31.67     506.95      22.52
 31.77     518.08      22.76
 31.87     529.00      23.00
 31.97     558.47      23.63
 32.07     558.58      23.63
 32.17     516.91      22.74
 32.27     553.00      23.52
 32.37     541.55      23.27
 32.47     541.00      23.26
 32.57     537.00      23.17
 32.67     539.27      23.22
 32.77     548.62      23.42
 32.87     588.00      24.25
 32.97     532.00      23.07
 33.07     550.00      23.45
 33.17     565.00      23.77
 33.27     542.00      23.28
 33.37     532.72      23.08
 33.47     529.00      23.00
 33.57     624.00      24.98
 33.67     591.16      24.31
 33.77     699.00      26.44
 33.87     863.41      29.38
 33.97    1001.04      31.64
 34.07    1075.00      32.79
 34.17    1068.14      32.68
 34.27     924.45      30.40
 34.37     755.00      27.48
 34.47     595.00      24.39
 34.57     552.10      23.50
 34.67     592.00      24.33
 34.77     546.00      23.37
 34.87     502.40      22.41
 34.97     499.07      22.34
 35.07     499.93      22.36
 35.17     507.00      22.52
 35.27     560.00      23.66
 35.37     454.00      21.31
 35.47     571.00      23.90
 35.57     473.00      21.75
 35.67     522.00      22.85
 35.77     511.00      22.61
 35.87     516.00      22.72
 35.97     516.00      22.72
 36.07     549.63      23.44
 36.17     531.00      23.04
 36.27     483.00      21.98
 36.37     488.00      22.09
 36.47     508.00      22.54
 36.57     507.00      22.52
 36.67     482.46      21.96
 36.77     503.00      22.43
 36.87     486.00      22.05
 36.97     507.00      22.52
 37.07     522.00      22.85
 37.17     535.78      23.15
 37.27     539.00      23.22
 37.37     512.00      22.63
 37.47     546.11      23.37
 37.57     509.00      22.56
 37.67     570.10      23.88
 37.77     566.89      23.81
 37.87     538.23      23.20
 37.97     504.24      22.46
 38.07     522.00      22.85
 38.17     501.00      22.38
 38.27     556.00      23.58
 38.37     507.00      22.52
 38.47     509.28      22.57
 38.57     510.00      22.58
 38.67     523.00      22.87
 38.77     493.59      22.22
 38.87     526.31      22.94
 38.97     537.00      23.17
 39.07     480.61      21.92
 39.17     479.39      21.89
 39.27     483.31      21.98
 39.37     492.00      22.18
 39.47     499.00      22.34
 39.57     543.00      23.30
 39.67     524.94      22.91
 39.77     510.00      22.58
 39.87     538.67      23.21
 39.97     550.99      23.47
 40.07     493.00      22.20
 40.17     529.46      23.01
 40.27     482.00      21.95
 40.37     531.00      23.04
 40.47     461.00      21.47
 40.57     479.00      21.89
 40.67     512.00      22.63
 40.77     520.00      22.80
 40.87     457.00      21.38
 40.97     491.00      22.16
 41.07     476.00      21.82
 41.17     469.00      21.66
 41.27     515.00      22.69
 41.37     470.00      21.68
 41.47     488.00      22.09
 41.57     513.00      22.65
 41.67     490.26      22.14
 41.77     487.92      22.09
 41.87     503.00      22.43
 41.97     481.00      21.93
 42.07     530.00      23.02
 42.17     496.00      22.27
 42.27     515.72      22.71
 42.37     516.00      22.72
 42.47     589.09      24.27
 42.57     637.61      25.25
 42.67     608.00      24.66
 42.77     594.00      24.37
 42.87     567.00      23.81
 42.97     528.19      22.98
 43.07     503.00      22.43
 43.17     511.00      22.61
 43.27     556.64      23.59
 43.37     505.00      22.47
 43.47     503.00      22.43
 43.57     539.21      23.22
 43.67     551.77      23.49
 43.77     553.07      23.52
 43.87     480.92      21.93
 43.97     482.28      21.96
 44.07     472.23      21.73
 44.17     534.55      23.12
 44.27     541.00      23.26
 44.37     518.13      22.76
 44.47     550.14      23.46
 44.57     503.00      22.43
 44.67     487.59      22.08
 44.77     491.00      22.16
 44.87     499.00      22.34
 44.97     531.00      23.04
 45.07     541.00      23.26
 45.17     477.41      21.85
 45.27     517.00      22.74
 45.37     493.98      22.23
 45.47     558.00      23.62
 45.57     497.00      22.29
 45.67     514.00      22.67
 45.77     526.54      22.95
 45.87     462.00      21.49
 45.97     509.00      22.56
 46.07     477.00      21.84
 46.17     529.00      23.00
 46.27     493.77      22.22
 46.37     511.00      22.61
 46.47     518.00      22.76
 46.57     484.00      22.00
 46.67     501.00      22.38
 46.77     477.69      21.86
 46.87     506.00      22.49
 46.97     526.00      22.93
 47.07     512.00      22.63
 47.17     471.00      21.70
 47.27     503.80      22.45
 47.37     505.55      22.48
 47.47     512.34      22.63
 47.57     559.47      23.65
 47.67     531.14      23.05
 47.77     581.00      24.10
 47.87     614.00      24.78
 47.97     610.00      24.70
 48.07     601.00      24.52
 48.17     535.00      23.13
 48.27     566.20      23.80
 48.37     581.27      24.11
 48.47     522.75      22.86
 48.57     493.34      22.21
 48.67     515.64      22.71
 48.77     553.00      23.52
 48.87     555.00      23.56
 48.97     554.00      23.54
 49.07     589.00      24.27
 49.17     631.00      25.12
 49.27     658.00      25.65
 49.37     645.00      25.40
 49.47     707.48      26.60
 49.57     727.53      26.97
 49.67     910.00      30.17
 49.77    1128.00      33.59
 49.87    1468.00      38.31
 49.97    1936.34      44.00
 50.07    2303.00      47.99
 50.17    2503.00      50.03
 50.27    2576.00      50.75
 50.37    2332.00      48.29
 50.47    1859.20      43.12
 50.57    1453.24      38.12
 50.67    1056.00      32.50
 50.77     916.56      30.27
 50.87     748.00      27.35
 50.97     652.37      25.54
 51.07     575.00      23.98
 51.17     648.06      25.46
 51.27     607.00      24.64
 51.37     570.00      23.87
 51.47     606.19      24.62
 51.57     545.00      23.35
 51.67     597.00      24.43
 51.77     563.00      23.73
 51.87     542.00      23.28
 51.97     573.00      23.94
 52.07     553.00      23.52
 52.17     542.39      23.29
 52.27     552.00      23.49
 52.37     518.12      22.76
 52.47     607.00      24.64
 52.57     592.00      24.33
 52.67     597.00      24.43
 52.77     559.01      23.64
 52.87     664.55      25.78
 52.97     660.28      25.70
 53.07     821.00      28.65
 53.17     921.00      30.35
 53.27    1053.17      32.45
 53.37    1114.66      33.39
 53.47    1197.00      34.60
 53.57    1190.00      34.50
 53.67    1079.00      32.85
 53.77    1000.00      31.62
 53.87     885.00      29.75
 53.97     793.79      28.17
 54.07     649.00      25.48
 54.17     601.00      24.52
 54.27     592.20      24.34
 54.37     554.00      23.54
 54.47     566.00      23.79
 54.57     515.43      22.70
 54.67     543.44      23.31
 54.77     518.29      22.77
 54.87     572.00      23.92
 54.97     576.00      24.00
 55.07     546.00      23.37
 55.17     516.85      22.73
 55.27     563.00      23.73
 55.37     533.00      23.09
 55.47     585.00      24.19
 55.57     548.04      23.41
 55.67     557.38      23.61
 55.77     578.00      24.04
 55.87     560.77      23.68
 55.97     634.00      25.18
 56.07     644.00      25.38
 56.17     696.00      26.38
 56.27     938.00      30.63
 56.37    1070.00      32.71
 56.47    1352.00      36.77
 56.57    1787.43      42.28
 56.67    2094.00      45.76
 56.77    2542.00      50.42
 56.87    2608.00      51.07
 56.97    2641.00      51.39
 57.07    2304.29      48.00
 57.17    2067.00      45.46
 57.27    1586.00      39.82
 57.37    1307.02      36.15
 57.47    1076.00      32.80
 57.57     831.00      28.83
 57.67     767.00      27.69
 57.77     693.87      26.34
 57.87     621.00      24.92
 57.97     649.00      25.48
 58.07     684.00      26.15
 58.17     728.80      27.00
 58.27     807.00      28.41
 58.37     845.00      29.07
 58.47    1025.58      32.02
 58.57    1091.00      33.03
 58.67    1228.00      35.04
 58.77    1327.34      36.43
 58.87    1547.00      39.33
 58.97    1500.67      38.74
 59.07    1543.00      39.28
 59.17    1443.80      38.00
 59.27    1426.04      37.76
 59.37    1391.00      37.30
 59.47    1238.00      35.19
 59.57    1131.00      33.63
 59.67    1111.96      33.35
 59.77    1138.00      33.73
 59.87    1293.00      35.96
 59.97    1367.00      36.97
 60.07    1396.58      37.37
 60.17    1538.87      39.23
 60.27    1588.00      39.85
 60.37    1552.00      39.40
 60.47    1438.00      37.92
 60.57    1165.26      34.14
 60.67    1100.00      33.17
 60.77     873.00      29.55
 60.87     808.00      28.43
 60.97     701.00      26.48
 61.07     680.00      26.08
 61.17     628.00      25.06
 61.27     620.00      24.90
 61.37     612.00      24.74
 61.47     668.61      25.86
 61.57     697.41      26.41
 61.67     831.25      28.83
 61.77     877.00      29.61
 61.87    1142.10      33.79
 61.97    1250.00      35.36
 62.07    1294.00      35.97
 62.17    1389.98      37.28
 62.27    1388.00      37.26
 62.37    1317.00      36.29
 62.47    1281.00      35.79
 62.57    1058.20      32.53
 62.67     861.00      29.34
 62.77     805.00      28.37
 62.87     731.39      27.04
 62.97     609.00      24.68
 63.07     573.71      23.95
 63.17     567.00      23.81
 63.27     552.55      23.51
 63.37     574.00      23.96
 63.47     588.00      24.25
 63.57     538.09      23.20
 63.67     591.00      24.31
 63.77     609.54      24.69
 63.87     578.69      24.06
 63.97     645.73      25.41
 64.07     685.00      26.17
 64.17     813.00      28.51
 64.27     877.44      29.62
 64.37     863.00      29.38
 64.47     968.00      31.11
 64.57     996.00      31.56
 64.67    1065.00      32.63
 64.77     945.54      30.75
 64.87     981.00      31.32
 64.97     957.00      30.94
 65.07     862.00      29.36
 65.17     823.00      28.69
 65.27     726.00      26.94
 65.37     690.00      26.27
 65.47     656.00      25.61
 65.57     667.11      25.83
 65.67     645.11      25.40
 65.77     562.59      23.72
 65.87     516.00      22.72
 65.97     563.70      23.74
 66.07     599.83      24.49
 66.17     526.00      22.93
 66.27     555.69      23.57
 66.37     559.00      23.64
 66.47     516.05      22.72
 66.57     553.05      23.52
 66.67     562.00      23.71
 66.77     579.17      24.07
 66.87     545.59      23.36
 66.97     566.00      23.79
 67.07     658.00      25.65
 67.17     672.97      25.94
 67.27     722.00      26.87
 67.37     904.82      30.08
 67.47    1071.00      32.73
 67.57    1195.21      34.57
 67.67    1475.00      38.41
 67.77    1728.85      41.58
 67.87    2064.95      45.44
 67.97    2335.00      48.32
 68.07    2427.15      49.27
 68.17    2376.00      48.74
 68.27    2213.00      47.04
 68.37    2136.00      46.22
 68.47    1760.00      41.95
 68.57    1591.00      39.89
 68.67    1294.86      35.98
 68.77    1017.00      31.89
 68.87     872.00      29.53
 68.97     782.00      27.96
 69.07     721.00      26.85
 69.17     641.00      25.32
 69.27     635.88      25.22
 69.37     618.00      24.86
 69.47     573.00      23.94
 69.57     578.64      24.05
 69.67     593.00      24.35
 69.77     543.00      23.30
 69.87     537.75      23.19
 69.97     552.53      23.51
 70.07     544.09      23.33
 70.17     564.00      23.75
 70.27     583.27      24.15
 70.37     638.00      25.26
 70.47     571.00      23.90
 70.57     528.00      22.98
 70.67     568.00      23.83
 70.77     562.00      23.71
 70.87     568.00      23.83
 70.97     656.73      25.63
 71.07     669.00      25.87
 71.17     715.00      26.74
 71.27     785.00      28.02
 71.37     998.00      31.59
 71.47    1035.00      32.17
 71.57    1250.00      35.36
 71.67    1425.00      37.75
 71.77    1590.00      39.87
 71.87    1740.00      41.71
 71.97    1887.00      43.44
 72.07    2037.00      45.13
 72.17    1841.00      42.91
 72.27    1721.66      41.49
 72.37    1698.00      41.21
 72.47    1521.68      39.01
 72.57    1286.27      35.86
 72.67    1171.67      34.23
 72.77    1109.00      33.30
 72.87     933.00      30.55
 72.97     921.74      30.36
 73.07     808.00      28.43
 73.17     779.33      27.92
 73.27     715.87      26.76
 73.37     653.00      25.55
 73.47     646.00      25.42
 73.57     642.52      25.35
 73.67     633.36      25.17
 73.77     582.00      24.12
 73.87     604.00      24.58
 73.97     562.00      23.71
 74.07     630.00      25.10
 74.17     583.54      24.16
 74.27     596.00      24.41
 74.37     616.12      24.82
 74.47     557.67      23.61
 74.57     527.04      22.96
 74.67     526.07      22.94
 74.77     646.00      25.42
 74.87     612.06      24.74
 74.97     619.00      24.88
 75.07     538.10      23.20
 75.17     587.00      24.23
 75.27     543.87      23.32
 75.37     553.00      23.52
 75.47     571.96      23.92
 75.57     568.00      23.83
 75.67     533.00      23.09
 75.77     543.00      23.30
 75.87     558.00      23.62
 75.97     599.00      24.47
 76.07     639.00      25.28
 76.17     615.47      24.81
 76.27     628.84      25.08
 76.37     677.00      26.02
 76.47     688.00      26.23
 76.57     683.00      26.13
 76.67     706.00      26.57
 76.77     669.00      25.87
 76.87     666.00      25.81
 76.97     641.22      25.32
 77.07     616.00      24.82
 77.17     569.00      23.85
 77.27     578.00      24.04
 77.37     578.57      24.05
 77.47     590.92      24.31
 77.57     538.00      23.19
 77.67     499.00      22.34
 77.77     525.00      22.91
 77.87     515.00      22.69
 77.97     540.94      23.26
 78.07     518.51      22.77
 78.17     549.13      23.43
 78.27     540.70      23.25
 78.37     501.52      22.39
 78.47     553.00      23.52
 78.57     493.75      22.22
 78.67     549.00      23.43
 78.77     540.00      23.24
 78.87     482.00      21.95
 78.97     494.00      22.23
 79.07     532.00      23.07
 79.17     531.74      23.06
 79.27     543.00      23.30
 79.37     577.00      24.02
 79.47     541.00      23.26
 79.57     551.00      23.47
 79.67     520.00      22.80
 79.77     567.00      23.81
 79.87     545.00      23.35
 79.97     543.00      23.30
 80.07     531.00      23.04
 80.17     589.00      24.27
 80.27     588.60      24.26
 80.37     577.00      24.02
 80.47     625.05      25.00
 80.57     596.50      24.42
 80.67     667.00      25.83
 80.77     658.00      25.65
 80.87     724.09      26.91
 80.97     670.00      25.88
 81.07     728.00      26.98
 81.17     772.00      27.78
 81.27     727.00      26.96
 81.37     708.16      26.61
 81.47     760.47      27.58
 81.57     733.38      27.08
 81.67     780.42      27.94
 81.77     722.00      26.87
 81.87     653.14      25.56
 81.97     742.00      27.24
 82.07     674.00      25.96
 82.17     586.00      24.21
 82.27     655.48      25.60
 82.37     657.00      25.63
 82.47     645.96      25.42
 82.57     599.00      24.47
 82.67     582.16      24.13
 82.77     568.89      23.85
 82.87     580.00      24.08
 82.97     555.00      23.56
 83.07     535.00      23.13
 83.17     588.88      24.27
 83.27     552.00      23.49
 83.37     525.89      22.93
 83.47     543.75      23.32
 83.57     569.91      23.87
 83.67     500.00      22.36
 83.77     577.00      24.02
 83.87     513.00      22.65
 83.97     543.95      23.32
 84.07     589.00      24.27
 84.17     533.00      23.09
 84.27     625.00      25.00
 84.37     608.65      24.67
 84.47     604.71      24.59
 84.57     574.00      23.96
 84.67     532.00      23.07
 84.77     547.00      23.39
 84.87     552.00      23.49
 84.97     503.15      22.43
 85.07     550.00      23.45
 85.17     570.00      23.87
 85.27     489.05      22.11
 85.37     545.00      23.35
 85.47     477.00      21.84
 85.57     513.00      22.65
 85.67     539.00      23.22
 85.77     478.00      21.86
 85.87     486.00      22.05
 85.97     556.72      23.59
 86.07     534.69      23.12
 86.17     544.00      23.32
 86.27     559.00      23.64
 86.37     543.00      23.30
 86.47     581.57      24.12
 86.57     586.00      24.21
 86.67     556.29      23.59
 86.77     594.00      24.37
 86.87     612.12      24.74
 86.97     643.00      25.36
 87.07     598.00      24.45
 87.17     643.94      25.38
 87.27     601.84      24.53
 87.37     652.00      25.53
 87.47     603.00      24.56
 87.57     654.31      25.58
 87.67     638.04      25.26
 87.77     622.25      24.94
 87.87     643.00      25.36
 87.97     641.00      25.32
 88.07     647.00      25.44
 88.17     566.00      23.79
 88.27     615.00      24.80
 88.37     577.00      24.02
 88.47     522.72      22.86
 88.57     630.00      25.10
 88.67     623.00      24.96
 88.77     609.25      24.68
 88.87     536.13      23.15
 88.97     580.00      24.08
 89.07     622.00      24.94
 89.17     650.00      25.50
 89.27     589.80      24.29
 89.37     593.49      24.36
 89.47     581.62      24.12
 89.57     551.00      23.47
 89.67     588.00      24.25
 89.77     549.00      23.43
 89.87     559.00      23.64
 89.97     578.00      24.04
 90.07     589.14      24.27
 90.17     570.00      23.87
 90.27     543.00      23.30
 90.37     514.00      22.67
 90.47     543.00      23.30
 90.57     519.00      22.78
 90.67     520.85      22.82
 90.77     518.00      22.76
 90.87     552.00      23.49
 90.97     528.00      22.98
 91.07     488.00      22.09
 91.17     561.73      23.70
 91.27     531.00      23.04
 91.37     492.00      22.18
 91.47     519.00      22.78
 91.57     505.38      22.48
 91.67     557.00      23.60
 91.77     541.00      23.26
 91.87     548.00      23.41
 91.97     582.95      24.14
 92.07     559.00      23.64
 92.17     581.74      24.12
 92.27     557.00      23.60
 92.37     578.64      24.05
 92.47     625.48      25.01
 92.57     663.00      25.75
 92.67     679.00      26.06
 92.77     661.00      25.71
 92.87     661.65      25.72
 92.97     730.00      27.02
 93.07     793.00      28.16
 93.17     778.00      27.89
 93.27     785.00      28.02
 93.37     860.00      29.33
 93.47     789.00      28.09
 93.57     794.12      28.18
 93.67     861.00      29.34
 93.77     775.32      27.84
 93.87     827.00      28.76
 93.97     951.00      30.84
 94.07     880.00      29.66
 94.17     842.59      29.03
 94.27     932.00      30.53
 94.37     818.71      28.61
 94.47     876.00      29.60
 94.57     888.00      29.80
 94.67     891.00      29.85
 94.77     945.00      30.74
 94.87     914.00      30.23
 94.97     977.00      31.26
 95.07     823.15      28.69
 95.17     881.00      29.68
 95.27     835.00      28.90
 95.37     780.00      27.93
 95.47     828.00      28.77
 95.57     719.00      26.81
 95.67     721.00      26.85
 95.77     714.50      26.73
 95.87     679.02      26.06
 95.97     637.97      25.26
 96.07     664.00      25.77
 96.17     703.00      26.51
 96.27     686.78      26.21
 96.37     732.00      27.06
 96.47     797.00      28.23
 96.57     833.00      28.86
 96.67     865.00      29.41
 96.77     942.00      30.69
 96.87    1045.99      32.34
 96.97    1069.00      32.70
 97.07    1207.00      34.74
 97.17    1351.27      36.76
 97.27    1359.55      36.87
 97.37    1418.57      37.66
 97.47    1426.24      37.77
 97.57    1401.19      37.43
 97.67    1467.41      38.31
 97.77    1475.00      38.41
 97.87    1324.00      36.39
 97.97    1235.14      35.14
 98.07    1234.00      35.13
 98.17    1127.00      33.57
 98.27    1137.00      33.72
 98.37    1038.13      32.22
 98.47     898.00      29.97
 98.57     894.00      29.90
 98.67     895.00      29.92
 98.77     799.00      28.27
 98.87     814.49      28.54
 98.97     804.54      28.36
 99.07     769.09      27.73
 99.17     793.91      28.18
 99.27     847.42      29.11
 99.37     905.43      30.09
 99.47     965.00      31.06
 99.57    1178.00      34.32
 99.67    1239.88      35.21
 99.77    1234.00      35.13
 99.87    1392.00      37.31
 99.97    1462.00      38.24
100.07    1697.00      41.19
100.17    1783.92      42.24
100.27    1808.80      42.53
100.37    1975.00      44.44
100.47    1944.44      44.10
100.57    2127.72      46.13
100.67    2060.53      45.39
100.77    2074.42      45.55
100.87    2086.00      45.67
100.97    2091.00      45.73
101.07    2024.00      44.99
101.17    1951.17      44.17
101.27    1780.00      42.19
101.37    1651.00      40.63
101.47    1592.00      39.90
101.57    1540.00      39.24
101.67    1378.73      37.13
101.77    1399.00      37.40
101.87    1260.00      35.50
101.97    1234.00      35.13
102.07    1196.00      34.58
102.17    1075.00      32.79
102.27    1144.55      33.83
102.37    1185.00      34.42
102.47    1115.15      33.39
102.57    1042.00      32.28
102.67    1053.72      32.46
102.77     976.89      31.26
102.87     952.00      30.85
102.97     950.00      30.82
103.07     902.00      30.03
103.17     864.00      29.39
103.27     863.35      29.38
103.37     810.00      28.46
103.47     711.36      26.67
103.57     767.00      27.69
103.67     709.00      26.63
103.77     711.37      26.67
103.87     588.96      24.27
103.97     617.00      24.84
104.07     601.00      24.52
104.17     578.00      24.04
104.27     543.01      23.30
104.37     576.40      24.01
104.47     596.55      24.42
104.57     553.07      23.52
104.67     497.53      22.31
104.77     523.00      22.87
104.87     543.63      23.32
104.97     542.00      23.28
105.07     534.00      23.11
105.17     552.00      23.49
105.27     568.81      23.85
105.37     562.72      23.72
105.47     549.45      23.44
105.57     559.00      23.64
105.67     520.83      22.82
105.77     583.54      24.16
105.87     526.26      22.94
105.97     571.00      23.90
106.07     533.00      23.09
106.17     627.00      25.04
106.27     578.00      24.04
106.37     574.34      23.97
106.47     659.00      25.67
106.57     581.00      24.10
106.67     626.00      25.02
106.77     644.00      25.38
106.87     645.00      25.40
106.97     714.48      26.73
107.07     633.00      25.16
107.17     704.00      26.53
107.27     701.78      26.49
107.37     748.86      27.37
107.47     654.00      25.57
107.57     669.00      25.87
107.67     742.46      27.25
107.77     683.00      26.13
107.87     683.08      26.14
107.97     695.00      26.36
108.07     618.00      24.86
108.17     717.30      26.78
108.27     722.44      26.88
108.37     640.00      25.30
108.47     642.00      25.34
108.57     650.50      25.50
108.67     745.94      27.31
108.77     664.00      25.77
108.87     679.00      26.06
108.97     696.52      26.39
109.07     662.19      25.73
109.17     699.00      26.44
109.27     621.25      24.92
109.37     641.00      25.32
109.47     654.00      25.57
109.57     640.00      25.30
109.67     631.00      25.12
109.77     609.00      24.68
109.87     613.00      24.76
109.97     586.00      24.21
110.07     590.00      24.29
110.17     636.00      25.22
110.27     555.00      23.56
110.37     584.00      24.17
110.47     565.00      23.77
110.57     573.00      23.94
110.67     566.00      23.79
110.77     534.00      23.11
110.87     502.72      22.42
110.97     548.00      23.41
111.07     572.00      23.92
111.17     541.00      23.26
111.27     527.00      22.96
111.37     527.00      22.96
111.47     536.00      23.15
111.57     559.49      23.65
111.67     579.00      24.06
111.77     510.68      22.60
111.87     551.00      23.47
111.97     593.00      24.35
112.07     600.69      24.51
112.17     574.49      23.97
112.27     593.00      24.35
112.37     570.00      23.87
112.47     562.00      23.71
112.57     587.68      24.24
112.67     608.00      24.66
112.77     652.00      25.53
112.87     657.00      25.63
112.97     649.84      25.49
113.07     662.00      25.73
113.17     761.78      27.60
113.27     749.00      27.37
113.37     785.00      28.02
113.47     816.00      28.57
113.57     810.00      28.46
113.67     893.00      29.88
113.77     930.53      30.50
113.87     944.21      30.73
113.97    1048.28      32.38
114.07    1039.00      32.23
114.17    1110.00      33.32
114.27    1152.22      33.94
114.37    1200.00      34.64
114.47    1402.53      37.45
114.57    1503.00      38.77
114.67    1573.00      39.66
114.77    1774.63      42.13
114.87    1928.00      43.91
114.97    2067.75      45.47
115.07    2277.00      47.72
115.17    2466.62      49.67
115.27    2939.00      54.21
115.37    3250.00      57.01
115.47    3437.00      58.63
115.57    3783.00      61.51
115.67    4264.20      65.30
115.77    4437.00      66.61
115.87    4741.00      68.85
115.97    5257.83      72.51
116.07    5576.85      74.68
116.17    6177.21      78.60
116.27    6413.00      80.08
116.37    6701.00      81.86
116.47    6676.00      81.71
116.57    6747.14      82.14
116.67    7057.00      84.01
116.77    6895.00      83.04
116.87    6985.00      83.58
116.97    6810.00      82.52
117.07    6274.00      79.21
117.17    6126.00      78.27
117.27    5675.23      75.33
117.37    5438.00      73.74
117.47    4929.00      70.21
117.57    4665.00      68.30
117.67    4219.00      64.95
117.77    3950.00      62.85
117.87    3669.00      60.57
117.97    3127.23      55.92
118.07    2914.99      53.99
118.17    2474.48      49.74
118.27    2198.00      46.88
118.37    1968.00      44.36
118.47    1667.00      40.83
118.57    1524.00      39.04
118.67    1375.00      37.08
118.77    1270.60      35.65
118.87    1187.10      34.45
118.97    1075.96      32.80
119.07     934.26      30.57
119.17     927.00      30.45
119.27     860.74      29.34
119.37     775.00      27.84
119.47     744.00      27.28
119.57     734.83      27.11
119.67     691.00      26.29
119.77     614.00      24.78
119.87     623.03      24.96
119.97     560.00      23.66
120.07     599.00      24.47
120.17     588.00      24.25
120.27     575.03      23.98
120.37     630.21      25.10
120.47     557.91      23.62
120.57     578.00      24.04
120.67     568.00      23.83
120.77     530.15      23.03
120.87     550.65      23.47
120.97     604.00      24.58
121.07     565.00      23.77
121.17     560.72      23.68
121.27     576.00      24.00
121.37     544.00      23.32
121.47     567.76      23.83
121.57     589.00      24.27
121.67     633.85      25.18
121.77     558.66      23.64
121.87     640.14      25.30
121.97     627.83      25.06
122.07     609.00      24.68
122.17     590.00      24.29
122.27     626.00      25.02
122.37     646.00      25.42
122.47     621.00      24.92
122.57     651.43      25.52
122.67     605.00      24.60
122.77     632.00      25.14
122.87     692.00      26.31
122.97     618.00      24.86
123.07     608.94      24.68
123.17     687.00      26.21
123.27     691.00      26.29
123.37     604.53      24.59
123.47     672.00      25.92
123.57     607.00      24.64
123.67     666.00      25.81
123.77     634.00      25.18
123.87     603.00      24.56
123.97     653.00      25.55
124.07     661.90      25.73
124.17     635.20      25.20
124.27     636.00      25.22
124.37     633.00      25.16
124.47     569.52      23.86
124.57     609.00      24.68
124.67     551.61      23.49
124.77     601.00      24.52
124.87     541.00      23.26
124.97     607.50      24.65
