  9.97     629.00      25.08
 10.07     600.03      24.50
 10.17     573.00      23.94
 10.27     592.86      24.35
 10.37     595.00      24.39
 10.47     553.00      23.52
 10.57     568.52      23.84
 10.67     599.00      24.47
 10.77     605.28      24.60
 10.87     561.38      23.69
 10.97     598.91      24.47
 11.07     596.42      24.42
 11.17     613.00      24.76
 11.27     599.00      24.47
 11.37     569.00      23.85
 11.47     573.00      23.94
 11.57     633.00      25.16
 11.67     593.00      24.35
 11.77     670.00      25.88
 11.87     626.00      25.02
 11.97     686.00      26.19
 12.07     685.77      26.19
 12.17     698.06      26.42
 12.27     704.74      26.55
 12.37     671.00      25.90
 12.47     601.00      24.52
 12.57     628.00      25.06
 12.67     587.00      24.23
 12.77     586.00      24.21
 12.87     595.34      24.40
 12.97     584.00      24.17
 13.07     594.00      24.37
 13.17     555.00      23.56
 13.27     613.26      24.76
 13.37     546.96      23.39
 13.47     530.00      23.02
 13.57     545.44      23.35
 13.67     598.00      24.45
 13.77     606.00      24.62
 13.87     519.00      22.78
 13.97     570.00      23.87
 14.07     570.65      23.89
 14.17     600.12      24.50
 14.27     588.00      24.25
 14.37     564.00      23.75
 14.47     548.00      23.41
 14.57     547.00      23.39
 14.67     533.00      23.09
 14.77     515.00      22.69
 14.87     599.00      24.47
 14.97     562.00      23.71
 15.07     557.00      23.60
 15.17     579.83      24.08
 15.27     562.00      23.71
 15.37     577.54      24.03
 15.47     574.00      23.96
 15.57     555.72      23.57
 15.67     544.00      23.32
 15.77     596.96      24.43
 15.87     598.96      24.47
 15.97     573.00      23.94
 16.07     589.53      24.28
 16.17     546.69      23.38
 16.27     581.88      24.12
 16.37     562.00      23.71
 16.47     532.00      23.07
 16.57     588.00      24.25
 16.67     552.98      23.52
 16.77     559.00      23.64
 16.87     551.00      23.47
 16.97     562.00      23.71
 17.07     529.25      23.01
 17.17     566.00      23.79
 17.27     601.80      24.53
 17.37     518.90      22.78
 17.47     559.00      23.64
 17.57     558.00      23.62
 17.67     576.21      24.00
 17.77     549.00      23.43
 17.87     546.00      23.37
 17.97     533.00      23.09
 18.07     548.00      23.41
 18.17     542.00      23.28
 18.27     535.00      23.13
 18.37     565.00      23.77
 18.47     537.00      23.17
 18.57     535.12      23.13
 18.67     559.29      23.65
 18.77     553.29      23.52
 18.87     558.29      23.63
 18.97     516.00      22.72
 19.07     551.53      23.48
 19.17     577.00      24.02
 19.27     558.00      23.62
 19.37     542.00      23.28
 19.47     562.00      23.71
 19.57     548.00      23.41
 19.67     575.00      23.98
 19.77     564.35      23.76
 19.87     564.00      23.75
 19.97     555.00      23.56
 20.07     548.00      23.41
 20.17     527.71      22.97
 20.27     544.93      23.34
 20.37     509.59      22.57
 20.47     568.00      23.83
 20.57     563.00      23.73
 20.67     543.75      23.32
 20.77     547.00      23.39
 20.87     535.32      23.14
 20.97     553.00      23.52
 21.07     554.00      23.54
 21.17     577.82      24.04
 21.27     549.00      23.43
 21.37     538.00      23.19
 21.47     503.00      22.43
 21.57     524.00      22.89
 21.67     537.00      23.17
 21.77     572.00      23.92
 21.87     553.00      23.52
 21.97     522.15      22.85
 22.07     560.00      23.66
 22.17     580.00      24.08
 22.27     614.00      24.78
 22.37     587.65      24.24
 22.47     584.53      24.18
 22.57     545.00      23.35
 22.67     562.27      23.71
 22.77     582.08      24.13
 22.87     525.89      22.93
 22.97     555.00      23.56
 23.07     541.00      23.26
 23.17     508.29      22.55
 23.27     553.00      23.52
 23.37     518.00      22.76
 23.47     539.00      23.22
 23.57     566.42      23.80
 23.67     548.00      23.41
 23.77     518.61      22.77
 23.87     551.00      23.47
 23.97     581.63      24.12
 24.07     568.00      23.83
 24.17     529.40      23.01
 24.27     518.80      22.78
 24.37     607.00      24.64
 24.47     595.00      24.39
 24.57     612.00      24.74
 24.67     625.00      25.00
 24.77     625.00      25.00
 24.87     628.64      25.07
 24.97     605.00      24.60
 25.07     605.00      24.60
 25.17     578.00      24.04
 25.27     592.00      24.33
 25.37     566.49      23.80
 25.47     575.00      23.98
 25.57     525.16      22.92
 25.67     584.00      24.17
 25.77     586.61      24.22
 25.87     508.56      22.55
 25.97     582.90      24.14
 26.07     548.00      23.41
 26.17     572.90      23.94
 26.27     541.00      23.26
 26.37     506.00      22.49
 26.47     517.00      22.74
 26.57     561.91      23.70
 26.67     549.00      23.43
 26.77     552.98      23.52
 26.87     545.00      23.35
 26.97     536.00      23.15
 27.07     560.00      23.66
 27.17     508.00      22.54
 27.27     527.05      22.96
 27.37     510.89      22.60
 27.47     597.00      24.43
 27.57     584.30      24.17
 27.67     518.44      22.77
 27.77     573.00      23.94
 27.87     582.00      24.12
 27.97     670.00      25.88
 28.07     727.00      26.96
 28.17     931.84      30.53
 28.27     941.00      30.68
 28.37     880.83      29.68
 28.47     845.00      29.07
 28.57     734.00      27.09
 28.67     680.00      26.08
 28.77     753.67      27.45
 28.87     795.34      28.20
 28.97     800.00      28.28
 29.07     804.00      28.35
 29.17     677.79      26.03
 29.27     640.00      25.30
 29.37     606.00      24.62
 29.47     621.22      24.92
 29.57     578.00      24.04
 29.67     628.00      25.06
 29.77     586.00      24.21
 29.87     524.00      22.89
 29.97     588.01      24.25
 30.07     582.26      24.13
 30.17     536.03      23.15
 30.27     555.00      23.56
 30.37     548.00      23.41
 30.47     558.67      23.64
 30.57     619.00      24.88
 30.67     568.00      23.83
 30.77     575.00      23.98
 30.87     593.00      24.35
 30.97     579.00      24.06
 31.07     608.00      24.66
 31.17     530.00      23.02
 31.27     578.00      24.04
 31.37     511.45      22.62
 31.47     531.08      23.05
 31.57     560.00      23.66
 31.67     537.19      23.18
 31.77     530.00      23.02
 31.87     565.96      23.79
 31.97     556.00      23.58
 32.07     537.00      23.17
 32.17     519.00      22.78
 32.27     570.00      23.87
 32.37     490.19      22.14
 32.47     560.00      23.66
 32.57     555.00      23.56
 32.67     530.00      23.02
 32.77     538.49      23.21
 32.87     539.00      23.22
 32.97     562.42      23.72
 33.07     511.00      22.61
 33.17     541.00      23.26
 33.27     564.00      23.75
 33.37     555.00      23.56
 33.47     600.00      24.49
 33.57     600.00      24.49
 33.67     615.72      24.81
 33.77     803.00      28.34
 33.87     825.00      28.72
 33.97    1048.00      32.37
 34.07    1101.00      33.18
 34.17    1000.12      31.62
 34.27     874.00      29.56
 34.37     763.00      27.62
 34.47     628.00      25.06
 34.57     588.00      24.25
 34.67     570.70      23.89
 34.77     526.00      22.93
 34.87     532.21      23.07
 34.97     556.00      23.58
 35.07     547.36      23.40
 35.17     514.00      22.67
 35.27     533.00      23.09
 35.37     488.03      22.09
 35.47     533.06      23.09
 35.57     500.00      22.36
 35.67     532.95      23.09
 35.77     541.05      23.26
 35.87     487.00      22.07
 35.97     494.00      22.23
 36.07     507.00      22.52
 36.17     480.00      21.91
 36.27     551.41      23.48
 36.37     533.00      23.09
 36.47     482.72      21.97
 36.57     541.13      23.26
 36.67     482.00      21.95
 36.77     524.00      22.89
 36.87     544.00      23.32
 36.97     471.40      21.71
 37.07     542.00      23.28
 37.17     522.46      22.86
 37.27     502.48      22.42
 37.37     482.00      21.95
 37.47     505.00      22.47
 37.57     523.00      22.87
 37.67     523.00      22.87
 37.77     525.00      22.91
 37.87     548.00      23.41
 37.97     530.00      23.02
 38.07     556.41      23.59
 38.17     506.00      22.49
 38.27     502.00      22.41
 38.37     506.00      22.49
 38.47     498.00      22.32
 38.57     530.72      23.04
 38.67     546.00      23.37
 38.77     540.25      23.24
 38.87     506.30      22.50
 38.97     497.00      22.29
 39.07     488.00      22.09
 39.17     503.00      22.43
 39.27     488.27      22.10
 39.37     526.99      22.96
 39.47     558.00      23.62
 39.57     465.00      21.56
 39.67     465.00      21.56
 39.77     537.00      23.17
 39.87     475.24      21.80
 39.97     481.00      21.93
 40.07     528.00      22.98
 40.17     506.48      22.51
 40.27     534.00      23.11
 40.37     508.00      22.54
 40.47     483.00      21.98
 40.57     538.84      23.21
 40.67     514.00      22.67
 40.77     501.00      22.38
 40.87     539.00      23.22
 40.97     503.00      22.43
 41.07     480.00      21.91
 41.17     492.00      22.18
 41.27     502.00      22.41
 41.37     526.28      22.94
 41.47     474.00      21.77
 41.57     508.00      22.54
 41.67     538.62      23.21
 41.77     464.51      21.55
 41.87     509.00      22.56
 41.97     484.22      22.00
 42.07     537.00      23.17
 42.17     528.00      22.98
 42.27     524.00      22.89
 42.37     581.00      24.10
 42.47     583.00      24.15
 42.57     638.00      25.26
 42.67     567.00      23.81
 42.77     639.86      25.30
 42.87     590.00      24.29
 42.97     569.75      23.87
 43.07     590.00      24.29
 43.17     498.00      22.32
 43.27     493.00      22.20
 43.37     485.90      22.04
 43.47     486.65      22.06
 43.57     493.79      22.22
 43.67     528.23      22.98
 43.77     509.51      22.57
 43.87     472.27      21.73
 43.97     469.00      21.66
 44.07     476.00      21.82
 44.17     461.24      21.48
 44.27     517.37      22.75
 44.37     506.00      22.49
 44.47     520.21      22.81
 44.57     476.00      21.82
 44.67     498.00      22.32
 44.77     487.00      22.07
 44.87     510.00      22.58
 44.97     481.00      21.93
 45.07     463.47      21.53
 45.17     516.00      22.72
 45.27     524.00      22.89
 45.37     544.15      23.33
 45.47     497.00      22.29
 45.57     498.39      22.32
 45.67     568.00      23.83
 45.77     492.00      22.18
 45.87     462.51      21.51
 45.97     473.00      21.75
 46.07     476.81      21.84
 46.17     538.00      23.19
 46.27     519.00      22.78
 46.37     472.00      21.73
 46.47     514.00      22.67
 46.57     528.78      23.00
 46.67     489.00      22.11
 46.77     487.00      22.07
 46.87     481.27      21.94
 46.97     547.00      23.39
 47.07     488.00      22.09
 47.17     528.00      22.98
 47.27     513.00      22.65
 47.37     514.00      22.67
 47.47     534.00      23.11
 47.57     508.00      22.54
 47.67     569.00      23.85
 47.77     612.00      24.74
 47.87     598.00      24.45
 47.97     628.00      25.06
 48.07     609.77      24.69
 48.17     533.55      23.10
 48.27     590.00      24.29
 48.37     550.55      23.46
 48.47     548.00      23.41
 48.57     551.00      23.47
 48.67     508.00      22.54
 48.77     536.36      23.16
 48.87     563.70      23.74
 48.97     581.00      24.10
 49.07     575.67      23.99
 49.17     566.00      23.79
 49.27     607.39      24.65
 49.37     596.00      24.41
 49.47     694.00      26.34
 49.57     774.61      27.83
 49.67     868.00      29.46
 49.77    1164.00      34.12
 49.87    1473.00      38.38
 49.97    1832.43      42.81
 50.07    2240.00      47.33
 50.17    2454.00      49.54
 50.27    2386.00      48.85
 50.37    2331.00      48.28
 50.47    1836.00      42.85
 50.57    1351.00      36.76
 50.67    1036.00      32.19
 50.77     784.00      28.00
 50.87     725.00      26.93
 50.97     626.05      25.02
 51.07     601.00      24.52
 51.17     640.91      25.32
 51.27     608.00      24.66
 51.37     595.00      24.39
 51.47     592.00      24.33
 51.57     562.36      23.71
 51.67     541.00      23.26
 51.77     577.00      24.02
 51.87     563.52      23.74
 51.97     555.78      23.58
 52.07     540.78      23.25
 52.17     488.98      22.11
 52.27     572.00      23.92
 52.37     556.00      23.58
 52.47     569.00      23.85
 52.57     564.00      23.75
 52.67     618.00      24.86
 52.77     544.30      23.33
 52.87     641.00      25.32
 52.97     699.00      26.44
 53.07     806.00      28.39
 53.17     919.78      30.33
 53.27    1069.00      32.70
 53.37    1094.04      33.08
 53.47    1191.00      34.51
 53.57    1211.00      34.80
 53.67    1131.00      33.63
 53.77    1005.95      31.72
 53.87     882.00      29.70
 53.97     770.00      27.75
 54.07     707.87      26.61
 54.17     656.00      25.61
 54.27     614.00      24.78
 54.37     541.82      23.28
 54.47     564.00      23.75
 54.57     544.00      23.32
 54.67     546.00      23.37
 54.77     557.68      23.62
 54.87     527.00      22.96
 54.97     550.00      23.45
 55.07     538.00      23.19
 55.17     573.00      23.94
 55.27     553.00      23.52
 55.37     551.00      23.47
 55.47     567.00      23.81
 55.57     536.40      23.16
 55.67     531.00      23.04
 55.77     614.55      24.79
 55.87     615.00      24.80
 55.97     628.00      25.06
 56.07     642.18      25.34
 56.17     818.07      28.60
 56.27     932.00      30.53
 56.37    1183.55      34.40
 56.47    1415.00      37.62
 56.57    1763.00      41.99
 56.67    2275.27      47.70
 56.77    2442.69      49.42
 56.87    2653.00      51.51
 56.97    2572.46      50.72
 57.07    2341.90      48.39
 57.17    2131.00      46.16
 57.27    1572.00      39.65
 57.37    1297.00      36.01
 57.47    1071.53      32.73
 57.57     899.60      29.99
 57.67     756.00      27.50
 57.77     690.00      26.27
 57.87     642.16      25.34
 57.97     644.00      25.38
 58.07     726.19      26.95
 58.17     689.75      26.26
 58.27     740.00      27.20
 58.37     827.00      28.76
 58.47     930.72      30.51
 58.57    1119.00      33.45
 58.67    1132.75      33.66
 58.77    1332.00      36.50
 58.87    1373.19      37.06
 58.97    1509.00      38.85
 59.07    1576.00      39.70
 59.17    1542.00      39.27
 59.27    1383.13      37.19
 59.37    1312.16      36.22
 59.47    1154.43      33.98
 59.57    1149.30      33.90
 59.67    1167.00      34.16
 59.77    1199.00      34.63
 59.87    1260.00      35.50
 59.97    1312.00      36.22
 60.07    1379.00      37.13
 60.17    1488.61      38.58
 60.27    1477.57      38.44
 60.37    1574.00      39.67
 60.47    1384.00      37.20
 60.57    1231.54      35.09
 60.67    1120.55      33.47
 60.77     863.00      29.38
 60.87     775.00      27.84
 60.97     723.00      26.89
 61.07     659.00      25.67
 61.17     653.98      25.57
 61.27     650.00      25.50
 61.37     614.68      24.79
 61.47     711.00      26.66
 61.57     745.67      27.31
 61.67     821.00      28.65
 61.77    1002.00      31.65
 61.87    1082.00      32.89
 61.97    1235.00      35.14
 62.07    1389.00      37.27
 62.17    1450.00      38.08
 62.27    1443.82      38.00
 62.37    1269.00      35.62
 62.47    1142.00      33.79
 62.57     967.00      31.10
 62.67     906.00      30.10
 62.77     735.00      27.11
 62.87     670.00      25.88
 62.97     648.00      25.46
 63.07     676.00      26.00
 63.17     608.46      24.67
 63.27     588.13      24.25
 63.37     555.86      23.58
 63.47     530.65      23.04
 63.57     611.00      24.72
 63.67     570.69      23.89
 63.77     577.71      24.04
 63.87     610.00      24.70
 63.97     666.00      25.81
 64.07     693.00      26.32
 64.17     710.03      26.65
 64.27     874.03      29.56
 64.37     967.00      31.10
 64.47     921.09      30.35
 64.57     948.00      30.79
 64.67     978.64      31.28
 64.77     990.29      31.47
 64.87     957.80      30.95
 64.97     970.00      31.14
 65.07     873.83      29.56
 65.17     765.00      27.66
 65.27     762.75      27.62
 65.37     664.77      25.78
 65.47     654.00      25.57
 65.57     624.00      24.98
 65.67     624.00      24.98
 65.77     560.62      23.68
 65.87     538.00      23.19
 65.97     567.38      23.82
 66.07     591.52      24.32
 66.17     543.85      23.32
 66.27     602.00      24.54
 66.37     525.00      22.91
 66.47     536.00      23.15
 66.57     528.00      22.98
 66.67     530.00      23.02
 66.77     594.00      24.37
 66.87     611.14      24.72
 66.97     589.00      24.27
 67.07     595.00      24.39
 67.17     684.45      26.16
 67.27     743.00      27.26
 67.37     873.00      29.55
 67.47    1094.48      33.08
 67.57    1331.52      36.49
 67.67    1494.00      38.65
 67.77    1813.31      42.58
 67.87    2091.25      45.73
 67.97    2321.00      48.18
 68.07    2488.00      49.88
 68.17    2392.00      48.91
 68.27    2317.00      48.14
 68.37    2024.00      44.99
 68.47    1843.00      42.93
 68.57    1547.48      39.34
 68.67    1287.89      35.89
 68.77    1077.04      32.82
 68.87     917.00      30.28
 68.97     795.00      28.20
 69.07     677.00      26.02
 69.17     618.17      24.86
 69.27     628.00      25.06
 69.37     569.78      23.87
 69.47     583.00      24.15
 69.57     547.00      23.39
 69.67     627.00      25.04
 69.77     601.20      24.52
 69.87     579.00      24.06
 69.97     578.75      24.06
 70.07     536.42      23.16
 70.17     574.55      23.97
 70.27     575.00      23.98
 70.37     578.00      24.04
 70.47     536.51      23.16
 70.57     577.00      24.02
 70.67     605.88      24.61
 70.77     558.00      23.62
 70.87     581.00      24.10
 70.97     598.93      24.47
 71.07     642.00      25.34
 71.17     737.00      27.15
 71.27     807.00      28.41
 71.37     890.00      29.83
 71.47    1074.00      32.77
 71.57    1189.00      34.48
 71.67    1448.00      38.05
 71.77    1637.00      40.46
 71.87    1800.40      42.43
 71.97    1922.29      43.84
 72.07    1866.49      43.20
 72.17    1846.00      42.97
 72.27    1786.41      42.27
 72.37    1696.49      41.19
 72.47    1533.00      39.15
 72.57    1326.00      36.41
 72.67    1204.23      34.70
 72.77    1008.85      31.76
 72.87     896.00      29.93
 72.97     769.00      27.73
 73.07     780.00      27.93
 73.17     788.47      28.08
 73.27     684.12      26.16
 73.37     652.36      25.54
 73.47     624.00      24.98
 73.57     650.56      25.51
 73.67     599.00      24.47
 73.77     594.00      24.37
 73.87     600.33      24.50
 73.97     605.14      24.60
 74.07     531.73      23.06
 74.17     625.00      25.00
 74.27     533.66      23.10
 74.37     541.56      23.27
 74.47     632.00      25.14
 74.57     603.70      24.57
 74.67     598.20      24.46
 74.77     538.16      23.20
 74.87     599.00      24.47
 74.97     569.23      23.86
 75.07     568.00      23.83
 75.17     591.00      24.31
 75.27     564.29      23.75
 75.37     549.00      23.43
 75.47     563.77      23.74
 75.57     542.27      23.29
 75.67     569.80      23.87
 75.77     601.00      24.52
 75.87     601.00      24.52
 75.97     592.44      24.34
 76.07     621.00      24.92
 76.17     625.00      25.00
 76.27     688.75      26.24
 76.37     736.00      27.13
 76.47     716.78      26.77
 76.57     712.00      26.68
 76.67     663.09      25.75
 76.77     676.00      26.00
 76.87     655.00      25.59
 76.97     584.00      24.17
 77.07     582.00      24.12
 77.17     619.08      24.88
 77.27     559.00      23.64
 77.37     587.00      24.23
 77.47     525.00      22.91
 77.57     524.00      22.89
 77.67     551.00      23.47
 77.77     500.00      22.36
 77.87     513.40      22.66
 77.97     519.83      22.80
 78.07     491.25      22.16
 78.17     521.10      22.83
 78.27     510.00      22.58
 78.37     525.00      22.91
 78.47     514.00      22.67
 78.57     507.00      22.52
 78.67     530.00      23.02
 78.77     549.00      23.43
 78.87     545.00      23.35
 78.97     553.30      23.52
 79.07     534.00      23.11
 79.17     521.00      22.83
 79.27     544.50      23.33
 79.37     546.03      23.37
 79.47     531.00      23.04
 79.57     554.00      23.54
 79.67     493.70      22.22
 79.77     531.00      23.04
 79.87     547.00      23.39
 79.97     534.00      23.11
 80.07     512.00      22.63
 80.17     567.00      23.81
 80.27     553.00      23.52
 80.37     613.23      24.76
 80.47     542.00      23.28
 80.57     625.00      25.00
 80.67     642.51      25.35
 80.77     661.00      25.71
 80.87     685.00      26.17
 80.97     705.00      26.55
 81.07     697.00      26.40
 81.17     696.55      26.39
 81.27     750.00      27.39
 81.37     753.00      27.44
 81.47     738.00      27.17
 81.57     779.00      27.91
 81.67     759.00      27.55
 81.77     751.00      27.40
 81.87     682.58      26.13
 81.97     725.00      26.93
 82.07     636.91      25.24
 82.17     701.00      26.48
 82.27     632.00      25.14
 82.37     615.00      24.80
 82.47     606.00      24.62
 82.57     593.00      24.35
 82.67     565.00      23.77
 82.77     578.00      24.04
 82.87     579.41      24.07
 82.97     556.00      23.58
 83.07     575.00      23.98
 83.17     515.31      22.70
 83.27     507.29      22.52
 83.37     582.09      24.13
 83.47     555.22      23.56
 83.57     595.65      24.41
 83.67     603.61      24.57
 83.77     599.94      24.49
 83.87     563.00      23.73
 83.97     563.39      23.74
 84.07     511.00      22.61
 84.17     581.00      24.10
 84.27     530.00      23.02
 84.37     543.69      23.32
 84.47     507.00      22.52
 84.57     522.04      22.85
 84.67     555.00      23.56
 84.77     505.00      22.47
 84.87     579.84      24.08
 84.97     514.00      22.67
 85.07     544.00      23.32
 85.17     557.00      23.60
 85.27     587.00      24.23
 85.37     565.00      23.77
 85.47     531.44      23.05
 85.57     548.00      23.41
 85.67     521.66      22.84
 85.77     508.00      22.54
 85.87     534.00      23.11
 85.97     526.00      22.93
 86.07     531.82      23.06
 86.17     516.99      22.74
 86.27     511.00      22.61
 86.37     541.00      23.26
 86.47     522.81      22.86
 86.57     544.00      23.32
 86.67     579.00      24.06
 86.77     535.49      23.14
 86.87     580.40      24.09
 86.97     564.80      23.77
 87.07     611.00      24.72
 87.17     640.31      25.30
 87.27     620.00      24.90
 87.37     594.13      24.37
 87.47     616.00      24.82
 87.57     619.70      24.89
 87.67     644.00      25.38
 87.77     610.00      24.70
 87.87     632.00      25.14
 87.97     609.00      24.68
 88.07     566.00      23.79
 88.17     570.00      23.87
 88.27     624.00      24.98
 88.37     564.00      23.75
 88.47     609.00      24.68
 88.57     547.00      23.39
 88.67     557.00      23.60
 88.77     579.00      24.06
 88.87     590.57      24.30
 88.97     576.00      24.00
 89.07     583.00      24.15
 89.17     583.00      24.15
 89.27     565.20      23.77
 89.37     595.00      24.39
 89.47     596.00      24.41
 89.57     576.00      24.00
 89.67     553.00      23.52
 89.77     563.00      23.73
 89.87     605.12      24.60
 89.97     581.50      24.11
 90.07     589.00      24.27
 90.17     574.00      23.96
 90.27     512.87      22.65
 90.37     524.00      22.89
 90.47     498.51      22.33
 90.57     529.00      23.00
 90.67     569.56      23.87
 90.77     514.00      22.67
 90.87     487.00      22.07
 90.97     565.77      23.79
 91.07     497.47      22.30
 91.17     506.61      22.51
 91.27     484.62      22.01
 91.37     515.27      22.70
 91.47     524.32      22.90
 91.57     557.00      23.60
 91.67     521.00      22.83
 91.77     567.00      23.81
 91.87     572.14      23.92
 91.97     525.07      22.91
 92.07     537.00      23.17
 92.17     572.00      23.92
 92.27     613.68      24.77
 92.37     592.00      24.33
 92.47     664.13      25.77
 92.57     631.00      25.12
 92.67     639.00      25.28
 92.77     657.51      25.64
 92.87     652.93      25.55
 92.97     744.01      27.28
 93.07     750.00      27.39
 93.17     765.00      27.66
 93.27     722.28      26.88
 93.37     802.00      28.32
 93.47     789.00      28.09
 93.57     830.96      28.83
 93.67     808.00      28.43
 93.77     798.00      28.25
 93.87     860.00      29.33
 93.97     812.00      28.50
 94.07     857.01      29.27
 94.17     891.91      29.86
 94.27     832.00      28.84
 94.37     895.00      29.92
 94.47     850.99      29.17
 94.57     860.93      29.34
 94.67     895.00      29.92
 94.77     919.00      30.32
 94.87     929.00      30.48
 94.97     857.27      29.28
 95.07     861.44      29.35
 95.17     927.00      30.45
 95.27     882.00      29.70
 95.37     757.55      27.52
 95.47     769.00      27.73
 95.57     750.74      27.40
 95.67     707.00      26.59
 95.77     672.69      25.94
 95.87     754.00      27.46
 95.97     703.00      26.51
 96.07     702.00      26.50
 96.17     732.91      27.07
 96.27     734.00      27.09
 96.37     729.45      27.01
 96.47     835.10      28.90
 96.57     820.21      28.64
 96.67     935.00      30.58
 96.77     971.00      31.16
 96.87    1048.00      32.37
 96.97    1088.41      32.99
 97.07    1231.38      35.09
 97.17    1350.38      36.75
 97.27    1286.85      35.87
 97.37    1361.91      36.90
 97.47    1364.12      36.93
 97.57    1440.00      37.95
 97.67    1396.90      37.38
 97.77    1321.55      36.35
 97.87    1330.00      36.47
 97.97    1270.00      35.64
 98.07    1229.00      35.06
 98.17    1185.00      34.42
 98.27    1126.30      33.56
 98.37    1084.00      32.92
 98.47     960.00      30.98
 98.57     852.00      29.19
 98.67     849.00      29.14
 98.77     785.49      28.03
 98.87     818.00      28.60
 98.97     783.00      27.98
 99.07     827.00      28.76
 99.17     883.19      29.72
 99.27     877.00      29.61
 99.37     998.00      31.59
 99.47    1044.00      32.31
 99.57    1075.00      32.79
 99.67    1181.00      34.37
 99.77    1267.00      35.59
 99.87    1460.00      38.21
 99.97    1584.00      39.80
100.07    1669.69      40.86
100.17    1668.00      40.84
100.27    1820.00      42.66
100.37    1834.31      42.83
100.47    1979.77      44.49
100.57    2055.09      45.33
100.67    2060.00      45.39
100.77    2063.00      45.42
100.87    2033.15      45.09
100.97    2002.51      44.75
101.07    1978.00      44.47
101.17    1927.00      43.90
101.27    1776.00      42.14
101.37    1628.00      40.35
101.47    1542.56      39.28
101.57    1518.00      38.96
101.67    1409.00      37.54
101.77    1427.15      37.78
101.87    1290.00      35.92
101.97    1225.00      35.00
102.07    1208.00      34.76
102.17    1196.74      34.59
102.27    1103.00      33.21
102.37    1128.00      33.59
102.47    1098.00      33.14
102.57    1100.00      33.17
102.67     986.00      31.40
102.77    1002.00      31.65
102.87     993.66      31.52
102.97    1015.54      31.87
103.07     925.00      30.41
103.17     903.00      30.05
103.27     838.00      28.95
103.37     804.00      28.35
103.47     744.00      27.28
103.57     736.00      27.13
103.67     680.00      26.08
103.77     660.00      25.69
103.87     627.54      25.05
103.97     632.00      25.14
104.07     626.51      25.03
104.17     555.00      23.56
104.27     603.00      24.56
104.37     570.00      23.87
104.47     573.00      23.94
104.57     550.00      23.45
104.67     532.00      23.07
104.77     535.00      23.13
104.87     518.00      22.76
104.97     535.04      23.13
105.07     548.50      23.42
105.17     571.00      23.90
105.27     525.00      22.91
105.37     504.38      22.46
105.47     545.05      23.35
105.57     523.00      22.87
105.67     559.00      23.64
105.77     583.00      24.15
105.87     564.00      23.75
105.97     583.06      24.15
106.07     577.00      24.02
106.17     613.00      24.76
106.27     600.00      24.49
106.37     597.00      24.43
106.47     611.00      24.72
106.57     595.00      24.39
106.67     646.64      25.43
106.77     621.52      24.93
106.87     668.96      25.86
106.97     665.66      25.80
107.07     699.87      26.46
107.17     667.24      25.83
107.27     650.00      25.50
107.37     666.00      25.81
107.47     682.40      26.12
107.57     685.00      26.17
107.67     677.00      26.02
107.77     662.00      25.73
107.87     732.00      27.06
107.97     697.00      26.40
108.07     671.00      25.90
108.17     724.35      26.91
108.27     656.44      25.62
108.37     650.00      25.50
108.47     724.34      26.91
108.57     717.00      26.78
108.67     653.84      25.57
108.77     698.00      26.42
108.87     740.38      27.21
108.97     659.22      25.68
109.07     694.00      26.34
109.17     674.00      25.96
109.27     687.00      26.21
109.37     655.00      25.59
109.47     618.77      24.88
109.57     664.00      25.77
109.67     597.25      24.44
109.77     562.29      23.71
109.87     628.01      25.06
109.97     559.86      23.66
110.07     588.00      24.25
110.17     553.76      23.53
110.27     538.58      23.21
110.37     539.00      23.22
110.47     502.62      22.42
110.57     532.17      23.07
110.67     548.36      23.42
110.77     575.00      23.98
110.87     557.00      23.60
110.97     562.00      23.71
111.07     524.00      22.89
111.17     510.38      22.59
111.27     544.00      23.32
111.37     541.00      23.26
111.47     576.88      24.02
111.57     576.49      24.01
111.67     530.00      23.02
111.77     578.00      24.04
111.87     577.11      24.02
111.97     555.00      23.56
112.07     521.62      22.84
112.17     528.00      22.98
112.27     584.00      24.17
112.37     546.06      23.37
112.47     613.51      24.77
112.57     577.00      24.02
112.67     647.00      25.44
112.77     594.25      24.38
112.87     690.21      26.27
112.97     672.00      25.92
113.07     668.00      25.85
113.17     636.00      25.22
113.27     736.00      27.13
113.37     710.00      26.65
113.47     800.03      28.28
113.57     800.00      28.28
113.67     829.00      28.79
113.77     855.00      29.24
113.87     887.00      29.78
113.97     982.68      31.35
114.07     982.00      31.34
114.17    1017.47      31.90
114.27    1123.00      33.51
114.37    1210.85      34.80
114.47    1243.64      35.27
114.57    1460.79      38.22
114.67    1492.00      38.63
114.77    1738.00      41.69
114.87    1929.00      43.92
114.97    2091.73      45.74
115.07    2234.67      47.27
115.17    2421.23      49.21
115.27    2786.98      52.79
115.37    3175.00      56.35
115.47    3410.00      58.40
115.57    3800.00      61.64
115.67    4146.00      64.39
115.77    4519.00      67.22
115.87    4769.00      69.06
115.97    5292.00      72.75
116.07    5616.00      74.94
116.17    6085.75      78.01
116.27    6219.57      78.86
116.37    6544.00      80.89
116.47    6855.35      82.80
116.57    6845.97      82.74
116.67    7003.65      83.69
116.77    7086.00      84.18
116.87    6792.00      82.41
116.97    6560.78      81.00
117.07    6333.55      79.58
117.17    6214.35      78.83
117.27    5694.00      75.46
117.37    5393.00      73.44
117.47    4899.00      69.99
117.57    4659.00      68.26
117.67    4356.00      66.00
117.77    3894.96      62.41
117.87    3630.00      60.25
117.97    3256.97      57.07
118.07    2906.00      53.91
118.17    2541.56      50.41
118.27    2249.00      47.42
118.37    2006.00      44.79
118.47    1756.77      41.91
118.57    1515.68      38.93
118.67    1443.00      37.99
118.77    1258.00      35.47
118.87    1084.00      32.92
118.97    1032.00      32.12
119.07     909.35      30.16
119.17     872.00      29.53
119.27     852.00      29.19
119.37     753.00      27.44
119.47     731.00      27.04
119.57     726.00      26.94
119.67     700.83      26.47
119.77     645.00      25.40
119.87     615.00      24.80
119.97     627.00      25.04
120.07     603.00      24.56
120.17     621.13      24.92
120.27     557.00      23.60
120.37     543.45      23.31
120.47     581.00      24.10
120.57     542.02      23.28
120.67     582.00      24.12
120.77     549.81      23.45
120.87     565.00      23.77
120.97     586.00      24.21
121.07     534.00      23.11
121.17     557.00      23.60
121.27     532.00      23.07
121.37     545.69      23.36
121.47     561.00      23.69
121.57     585.15      24.19
121.67     631.00      25.12
121.77     573.94      23.96
121.87     611.00      24.72
121.97     615.00      24.80
122.07     605.00      24.60
122.17     636.00      25.22
122.27     651.77      25.53
122.37     656.64      25.62
122.47     660.00      25.69
122.57     640.08      25.30
122.67     649.00      25.48
122.77     683.04      26.13
122.87     605.00      24.60
122.97     674.00      25.96
123.07     633.00      25.16
123.17     656.06      25.61
123.27     642.00      25.34
123.37     644.00      25.38
123.47     591.11      24.31
123.57     655.00      25.59
123.67     607.84      24.65
123.77     637.00      25.24
123.87     589.64      24.28
123.97     620.00      24.90
124.07     668.00      25.85
124.17     642.00      25.34
124.27     645.00      25.40
124.37     663.00      25.75
124.47     589.00      24.27
124.57     583.89      24.16
124.67     593.00      24.35
124.77     611.00      24.72
124.87     591.00      24.31
124.97     599.00      24.47
