  9.97     563.04      23.73
 10.07     605.00      24.60
 10.17     586.00      24.21
 10.27     615.00      24.80
 10.37     601.00      24.52
 10.47     539.00      23.22
 10.57     562.00      23.71
 10.67     606.00      24.62
 10.77     631.00      25.12
 10.87     585.00      24.19
 10.97     555.70      23.57
 11.07     565.95      23.79
 11.17     626.00      25.02
 11.27     577.03      24.02
 11.37     577.00      24.02
 11.47     592.00      24.33
 11.57     566.61      23.80
 11.67     678.00      26.04
 11.77     599.00      24.47
 11.87     576.10      24.00
 11.97     618.15      24.86
 12.07     710.00      26.65
 12.17     674.16      25.96
 12.27     709.00      26.63
 12.37     647.25      25.44
 12.47     605.00      24.60
 12.57     571.00      23.90
 12.67     605.00      24.60
 12.77     616.40      24.83
 12.87     600.00      24.49
 12.97     543.03      23.30
 13.07     593.00      24.35
 13.17     618.00      24.86
 13.27     546.00      23.37
 13.37     566.58      23.80
 13.47     565.00      23.77
 13.57     532.00      23.07
 13.67     562.86      23.72
 13.77     576.00      24.00
 13.87     616.28      24.82
 13.97     581.94      24.12
 14.07     563.00      23.73
 14.17     609.65      24.69
 14.27     590.64      24.30
 14.37     550.33      23.46
 14.47     592.00      24.33
 14.57     578.00      24.04
 14.67     545.32      23.35
 14.77     525.51      22.92
 14.87     551.68      23.49
 14.97     574.67      23.97
 15.07     605.56      24.61
 15.17     558.00      23.62
 15.27     568.00      23.83
 15.37     550.00      23.45
 15.47     603.24      24.56
 15.57     611.08      24.72
 15.67     615.50      24.81
 15.77     584.63      24.18
 15.87     557.00      23.60
 15.97     584.00      24.17
 16.07     527.39      22.96
 16.17     543.00      23.30
 16.27     580.25      24.09
 16.37     548.00      23.41
 16.47     581.40      24.11
 16.57     570.00      23.87
 16.67     573.65      23.95
 16.77     580.00      24.08
 16.87     552.00      23.49
 16.97     564.00      23.75
 17.07     573.82      23.95
 17.17     546.00      23.37
 17.27     579.08      24.06
 17.37     532.00      23.07
 17.47     538.00      23.19
 17.57     553.21      23.52
 17.67     586.07      24.21
 17.77     543.62      23.32
 17.87     534.51      23.12
 17.97     535.72      23.15
 18.07     550.00      23.45
 18.17     532.52      23.08
 18.27     554.00      23.54
 18.37     575.00      23.98
 18.47     543.00      23.30
 18.57     552.00      23.49
 18.67     522.00      22.85
 18.77     523.20      22.87
 18.87     524.17      22.89
 18.97     558.00      23.62
 19.07     572.00      23.92
 19.17     600.70      24.51
 19.27     564.00      23.75
 19.37     596.00      24.41
 19.47     574.00      23.96
 19.57     551.15      23.48
 19.67     565.00      23.77
 19.77     546.00      23.37
 19.87     599.28      24.48
 19.97     544.00      23.32
 20.07     542.00      23.28
 20.17     578.80      24.06
 20.27     595.00      24.39
 20.37     583.00      24.15
 20.47     592.00      24.33
 20.57     515.84      22.71
 20.67     515.00      22.69
 20.77     601.29      24.52
 20.87     569.00      23.85
 20.97     569.00      23.85
 21.07     577.45      24.03
 21.17     560.00      23.66
 21.27     513.03      22.65
 21.37     573.00      23.94
 21.47     574.48      23.97
 21.57     515.90      22.71
 21.67     562.00      23.71
 21.77     554.00      23.54
 21.87     530.98      23.04
 21.97     578.00      24.04
 22.07     566.00      23.79
 22.17     572.00      23.92
 22.27     552.00      23.49
 22.37     533.00      23.09
 22.47     574.00      23.96
 22.57     598.00      24.45
 22.67     577.65      24.03
 22.77     554.00      23.54
 22.87     514.00      22.67
 22.97     554.00      23.54
 23.07     505.00      22.47
 23.17     555.92      23.58
 23.27     528.81      23.00
 23.37     528.81      23.00
 23.47     528.00      22.98
 23.57     581.00      24.10
 23.67     585.10      24.19
 23.77     558.75      23.64
 23.87     518.00      22.76
 23.97     591.00      24.31
 24.07     513.10      22.65
 24.17     564.00      23.75
 24.27     578.00      24.04
 24.37     551.00      23.47
 24.47     552.78      23.51
 24.57     627.00      25.04
 24.67     622.00      24.94
 24.77     622.00      24.94
 24.87     646.00      25.42
 24.97     612.00      24.74
 25.07     626.00      25.02
 25.17     610.00      24.70
 25.27     550.85      23.47
 25.37     554.00      23.54
 25.47     536.00      23.15
 25.57     571.00      23.90
 25.67     545.00      23.35
 25.77     568.00      23.83
 25.87     537.00      23.17
 25.97     545.14      23.35
 26.07     500.05      22.36
 26.17     581.44      24.11
 26.27     546.00      23.37
 26.37     566.77      23.81
 26.47     522.00      22.85
 26.57     567.30      23.82
 26.67     501.00      22.38
 26.77     563.00      23.73
 26.87     533.00      23.09
 26.97     504.79      22.47
 27.07     525.31      22.92
 27.17     577.64      24.03
 27.27     536.00      23.15
 27.37     614.00      24.78
 27.47     588.00      24.25
 27.57     504.33      22.46
 27.67     597.00      24.43
 27.77     563.00      23.73
 27.87     636.00      25.22
 27.97     667.00      25.83
 28.07     822.00      28.67
 28.17     915.00      30.25
 28.27     984.19      31.37
 28.37     879.00      29.65
 28.47     794.00      28.18
 28.57     702.00      26.50
 28.67     680.94      26.09
 28.77     763.00      27.62
 28.87     781.00      27.95
 28.97     854.00      29.22
 29.07     743.00      27.26
 29.17     681.00      26.10
 29.27     645.00      25.40
 29.37     618.70      24.87
 29.47     568.00      23.83
 29.57     582.00      24.12
 29.67     590.00      24.29
 29.77     568.00      23.83
 29.87     580.00      24.08
 29.97     517.34      22.75
 30.07     549.74      23.45
 30.17     583.06      24.15
 30.27     545.00      23.35
 30.37     582.00      24.12
 30.47     586.30      24.21
 30.57     537.66      23.19
 30.67     530.00      23.02
 30.77     586.46      24.22
 30.87     648.26      25.46
 30.97     608.00      24.66
 31.07     629.00      25.08
 31.17     591.47      24.32
 31.27     562.00      23.71
 31.37     520.84      22.82
 31.47     577.28      24.03
 31.57     561.00      23.69
 31.67     577.83      24.04
 31.77     523.00      22.87
 31.87     562.69      23.72
 31.97     544.00      23.32
 32.07     493.16      22.21
 32.17     557.00      23.60
 32.27     548.00      23.41
 32.37     521.77      22.84
 32.47     503.41      22.44
 32.57     549.00      23.43
 32.67     566.00      23.79
 32.77     554.62      23.55
 32.87     578.00      24.04
 32.97     565.00      23.77
 33.07     533.00      23.09
 33.17     532.00      23.07
 33.27     517.28      22.74
 33.37     553.00      23.52
 33.47     591.74      24.33
 33.57     607.00      24.64
 33.67     673.93      25.96
 33.77     757.21      27.52
 33.87     892.00      29.87
 33.97    1003.56      31.68
 34.07    1033.00      32.14
 34.17     987.00      31.42
 34.27     900.00      30.00
 34.37     805.85      28.39
 34.47     699.18      26.44
 34.57     608.71      24.67
 34.67     537.00      23.17
 34.77     521.00      22.83
 34.87     566.15      23.79
 34.97     556.73      23.60
 35.07     520.00      22.80
 35.17     544.64      23.34
 35.27     557.00      23.60
 35.37     494.14      22.23
 35.47     569.99      23.87
 35.57     514.41      22.68
 35.67     532.00      23.07
 35.77     476.00      21.82
 35.87     512.00      22.63
 35.97     543.00      23.30
 36.07     529.00      23.00
 36.17     529.00      23.00
 36.27     479.64      21.90
 36.37     542.00      23.28
 36.47     526.04      22.94
 36.57     542.00      23.28
 36.67     502.00      22.41
 36.77     522.00      22.85
 36.87     519.89      22.80
 36.97     484.00      22.00
 37.07     477.00      21.84
 37.17     549.00      23.43
 37.27     504.00      22.45
 37.37     495.00      22.25
 37.47     504.00      22.45
 37.57     523.82      22.89
 37.67     502.00      22.41
 37.77     535.00      23.13
 37.87     503.00      22.43
 37.97     514.74      22.69
 38.07     510.00      22.58
 38.17     544.00      23.32
 38.27     527.00      22.96
 38.37     479.00      21.89
 38.47     503.00      22.43
 38.57     506.00      22.49
 38.67     496.00      22.27
 38.77     552.38      23.50
 38.87     505.00      22.47
 38.97     505.62      22.49
 39.07     516.00      22.72
 39.17     563.00      23.73
 39.27     525.00      22.91
 39.37     532.00      23.07
 39.47     512.00      22.63
 39.57     568.00      23.83
 39.67     501.21      22.39
 39.77     539.14      23.22
 39.87     485.00      22.02
 39.97     485.00      22.02
 40.07     474.21      21.78
 40.17     523.00      22.87
 40.27     531.00      23.04
 40.37     510.00      22.58
 40.47     510.00      22.58
 40.57     488.00      22.09
 40.67     497.00      22.29
 40.77     548.90      23.43
 40.87     494.00      22.23
 40.97     497.00      22.29
 41.07     493.00      22.20
 41.17     509.00      22.56
 41.27     492.00      22.18
 41.37     477.34      21.85
 41.47     549.92      23.45
 41.57     539.08      23.22
 41.67     491.00      22.16
 41.77     503.00      22.43
 41.87     482.00      21.95
 41.97     558.86      23.64
 42.07     540.81      23.26
 42.17     509.00      22.56
 42.27     498.00      22.32
 42.37     541.00      23.26
 42.47     586.71      24.22
 42.57     611.00      24.72
 42.67     625.73      25.01
 42.77     587.00      24.23
 42.87     627.00      25.04
 42.97     559.59      23.66
 43.07     570.88      23.89
 43.17     514.00      22.67
 43.27     506.00      22.49
 43.37     515.00      22.69
 43.47     489.00      22.11
 43.57     518.58      22.77
 43.67     522.00      22.85
 43.77     484.00      22.00
 43.87     481.00      21.93
 43.97     519.00      22.78
 44.07     536.00      23.15
 44.17     551.60      23.49
 44.27     517.00      22.74
 44.37     504.00      22.45
 44.47     473.00      21.75
 44.57     511.00      22.61
 44.67     498.00      22.32
 44.77     482.20      21.96
 44.87     569.00      23.85
 44.97     496.39      22.28
 45.07     515.00      22.69
 45.17     543.00      23.30
 45.27     541.00      23.26
 45.37     516.00      22.72
 45.47     514.00      22.67
 45.57     477.40      21.85
 45.67     491.70      22.17
 45.77     492.00      22.18
 45.87     547.00      23.39
 45.97     502.00      22.41
 46.07     527.00      22.96
 46.17     490.56      22.15
 46.27     524.00      22.89
 46.37     536.00      23.15
 46.47     511.33      22.61
 46.57     512.00      22.63
 46.67     518.00      22.76
 46.77     497.10      22.30
 46.87     539.00      23.22
 46.97     505.00      22.47
 47.07     520.00      22.80
 47.17     503.00      22.43
 47.27     502.14      22.41
 47.37     518.00      22.76
 47.47     515.00      22.69
 47.57     572.00      23.92
 47.67     551.00      23.47
 47.77     593.00      24.35
 47.87     582.00      24.12
 47.97     600.32      24.50
 48.07     580.00      24.08
 48.17     563.00      23.73
 48.27     556.00      23.58
 48.37     531.00      23.04
 48.47     564.43      23.76
 48.57     570.00      23.87
 48.67     565.90      23.79
 48.77     540.29      23.24
 48.87     529.20      23.00
 48.97     540.88      23.26
 49.07     545.00      23.35
 49.17     572.00      23.92
 49.27     562.70      23.72
 49.37     585.00      24.19
 49.47     673.00      25.94
 49.57     783.00      27.98
 49.67     818.33      28.61
 49.77    1088.74      33.00
 49.87    1486.00      38.55
 49.97    1866.00      43.20
 50.07    2252.00      47.46
 50.17    2478.83      49.79
 50.27    2445.36      49.45
 50.37    2267.82      47.62
 50.47    1761.00      41.96
 50.57    1359.00      36.86
 50.67    1050.00      32.40
 50.77     837.00      28.93
 50.87     715.00      26.74
 50.97     655.12      25.60
 51.07     632.00      25.14
 51.17     611.00      24.72
 51.27     596.00      24.41
 51.37     538.00      23.19
 51.47     591.00      24.31
 51.57     548.00      23.41
 51.67     582.08      24.13
 51.77     564.00      23.75
 51.87     515.12      22.70
 51.97     532.00      23.07
 52.07     579.00      24.06
 52.17     568.00      23.83
 52.27     549.96      23.45
 52.37     532.65      23.08
 52.47     583.00      24.15
 52.57     566.54      23.80
 52.67     606.00      24.62
 52.77     588.77      24.26
 52.87     670.00      25.88
 52.97     669.00      25.87
 53.07     844.55      29.06
 53.17     953.00      30.87
 53.27     972.60      31.19
 53.37    1214.00      34.84
 53.47    1154.00      33.97
 53.57    1133.00      33.66
 53.67    1080.00      32.86
 53.77     970.00      31.14
 53.87     831.83      28.84
 53.97     755.00      27.48
 54.07     736.30      27.13
 54.17     599.00      24.47
 54.27     611.19      24.72
 54.37     598.00      24.45
 54.47     603.00      24.56
 54.57     555.91      23.58
 54.67     567.00      23.81
 54.77     538.44      23.20
 54.87     543.00      23.30
 54.97     590.00      24.29
 55.07     564.00      23.75
 55.17     554.22      23.54
 55.27     592.91      24.35
 55.37     562.00      23.71
 55.47     525.05      22.91
 55.57     592.00      24.33
 55.67     615.53      24.81
 55.77     557.00      23.60
 55.87     624.23      24.98
 55.97     621.00      24.92
 56.07     698.00      26.42
 56.17     827.94      28.77
 56.27     923.00      30.38
 56.37    1200.00      34.64
 56.47    1432.00      37.84
 56.57    1856.25      43.08
 56.67    2234.00      47.27
 56.77    2366.00      48.64
 56.87    2729.43      52.24
 56.97    2611.00      51.10
 57.07    2422.09      49.21
 57.17    1987.04      44.58
 57.27    1616.00      40.20
 57.37    1349.00      36.73
 57.47     993.00      31.51
 57.57     838.75      28.96
 57.67     772.96      27.80
 57.77     741.00      27.22
 57.87     678.00      26.04
 57.97     661.00      25.71
 58.07     689.00      26.25
 58.17     725.00      26.93
 58.27     734.88      27.11
 58.37     846.00      29.09
 58.47     897.75      29.96
 58.57    1027.69      32.06
 58.67    1143.47      33.82
 58.77    1250.29      35.36
 58.87    1338.00      36.58
 58.97    1477.40      38.44
 59.07    1395.81      37.36
 59.17    1484.00      38.52
 59.27    1367.00      36.97
 59.37    1313.66      36.24
 59.47    1192.90      34.54
 59.57    1155.00      33.99
 59.67    1183.00      34.39
 59.77    1122.63      33.51
 59.87    1202.32      34.67
 59.97    1296.03      36.00
 60.07    1416.35      37.63
 60.17    1620.00      40.25
 60.27    1545.00      39.31
 60.37    1618.00      40.22
 60.47    1409.00      37.54
 60.57    1241.00      35.23
 60.67    1078.00      32.83
 60.77     962.00      31.02
 60.87     784.00      28.00
 60.97     712.19      26.69
 61.07     662.00      25.73
 61.17     635.00      25.20
 61.27     667.00      25.83
 61.37     673.00      25.94
 61.47     725.00      26.93
 61.57     769.65      27.74
 61.67     856.78      29.27
 61.77     938.20      30.63
 61.87    1115.00      33.39
 61.97    1251.00      35.37
 62.07    1320.00      36.33
 62.17    1299.00      36.04
 62.27    1361.60      36.90
 62.37    1274.00      35.69
 62.47    1149.00      33.90
 62.57    1032.43      32.13
 62.67     901.00      30.02
 62.77     844.27      29.06
 62.87     684.00      26.15
 62.97     652.00      25.53
 63.07     639.63      25.29
 63.17     573.55      23.95
 63.27     612.00      24.74
 63.37     580.00      24.08
 63.47     549.52      23.44
 63.57     530.51      23.03
 63.67     605.15      24.60
 63.77     612.00      24.74
 63.87     628.94      25.08
 63.97     687.07      26.21
 64.07     719.00      26.81
 64.17     792.00      28.14
 64.27     838.00      28.95
 64.37     904.00      30.07
 64.47     991.72      31.49
 64.57    1039.00      32.23
 64.67    1010.00      31.78
 64.77    1026.17      32.03
 64.87     973.00      31.19
 64.97     856.00      29.26
 65.07     882.06      29.70
 65.17     792.00      28.14
 65.27     735.00      27.11
 65.37     688.00      26.23
 65.47     644.00      25.38
 65.57     608.95      24.68
 65.67     582.00      24.12
 65.77     609.00      24.68
 65.87     574.00      23.96
 65.97     534.00      23.11
 66.07     549.00      23.43
 66.17     539.00      23.22
 66.27     531.16      23.05
 66.37     575.95      24.00
 66.47     589.00      24.27
 66.57     615.93      24.82
 66.67     575.00      23.98
 66.77     582.05      24.13
 66.87     574.00      23.96
 66.97     665.62      25.80
 67.07     656.80      25.63
 67.17     701.69      26.49
 67.27     741.00      27.22
 67.37     873.00      29.55
 67.47    1046.36      32.35
 67.57    1396.00      37.36
 67.67    1535.00      39.18
 67.77    1799.00      42.41
 67.87    2111.00      45.95
 67.97    2378.00      48.76
 68.07    2347.00      48.45
 68.17    2307.48      48.04
 68.27    2273.00      47.68
 68.37    2028.35      45.04
 68.47    1887.00      43.44
 68.57    1633.00      40.41
 68.67    1318.81      36.32
 68.77    1097.53      33.13
 68.87     868.00      29.46
 68.97     789.00      28.09
 69.07     736.00      27.13
 69.17     610.95      24.72
 69.27     622.00      24.94
 69.37     620.00      24.90
 69.47     621.00      24.92
 69.57     623.00      24.96
 69.67     565.00      23.77
 69.77     579.00      24.06
 69.87     545.00      23.35
 69.97     602.00      24.54
 70.07     582.76      24.14
 70.17     579.00      24.06
 70.27     616.54      24.83
 70.37     543.00      23.30
 70.47     565.04      23.77
 70.57     590.00      24.29
 70.67     608.45      24.67
 70.77     595.00      24.39
 70.87     597.00      24.43
 70.97     620.26      24.91
 71.07     672.00      25.92
 71.17     777.00      27.87
 71.27     841.00      29.00
 71.37     934.00      30.56
 71.47    1066.46      32.66
 71.57    1323.00      36.37
 71.67    1411.83      37.57
 71.77    1588.00      39.85
 71.87    1797.00      42.39
 71.97    1895.36      43.54
 72.07    1912.00      43.73
 72.17    1826.33      42.74
 72.27    1712.51      41.38
 72.37    1573.00      39.66
 72.47    1365.44      36.95
 72.57    1221.00      34.94
 72.67    1131.89      33.64
 72.77     965.00      31.06
 72.87     908.00      30.13
 72.97     818.00      28.60
 73.07     770.59      27.76
 73.17     761.28      27.59
 73.27     682.00      26.12
 73.37     651.00      25.51
 73.47     671.00      25.90
 73.57     637.63      25.25
 73.67     616.00      24.82
 73.77     609.00      24.68
 73.87     623.00      24.96
 73.97     590.00      24.29
 74.07     545.78      23.36
 74.17     593.40      24.36
 74.27     537.02      23.17
 74.37     538.20      23.20
 74.47     533.38      23.09
 74.57     627.00      25.04
 74.67     642.00      25.34
 74.77     661.00      25.71
 74.87     561.01      23.69
 74.97     603.00      24.56
 75.07     615.00      24.80
 75.17     511.46      22.62
 75.27     551.00      23.47
 75.37     572.00      23.92
 75.47     557.00      23.60
 75.57     532.00      23.07
 75.67     529.00      23.00
 75.77     575.00      23.98
 75.87     621.10      24.92
 75.97     595.50      24.40
 76.07     669.17      25.87
 76.17     624.32      24.99
 76.27     665.00      25.79
 76.37     732.00      27.06
 76.47     704.00      26.53
 76.57     725.93      26.94
 76.67     739.92      27.20
 76.77     691.37      26.29
 76.87     673.71      25.96
 76.97     604.65      24.59
 77.07     637.00      25.24
 77.17     592.00      24.33
 77.27     572.00      23.92
 77.37     553.00      23.52
 77.47     562.87      23.72
 77.57     547.00      23.39
 77.67     510.38      22.59
 77.77     540.30      23.24
 77.87     579.31      24.07
 77.97     528.22      22.98
 78.07     553.83      23.53
 78.17     519.00      22.78
 78.27     531.65      23.06
 78.37     492.86      22.20
 78.47     519.00      22.78
 78.57     546.00      23.37
 78.67     534.00      23.11
 78.77     479.00      21.89
 78.87     571.63      23.91
 78.97     579.00      24.06
 79.07     536.70      23.17
 79.17     490.00      22.14
 79.27     540.00      23.24
 79.37     520.00      22.80
 79.47     532.94      23.09
 79.57     556.15      23.58
 79.67     534.00      23.11
 79.77     568.11      23.84
 79.87     545.22      23.35
 79.97     577.00      24.02
 80.07     581.46      24.11
 80.17     594.56      24.38
 80.27     575.73      23.99
 80.37     561.00      23.69
 80.47     614.00      24.78
 80.57     636.00      25.22
 80.67     679.26      26.06
 80.77     686.00      26.19
 80.87     649.00      25.48
 80.97     661.17      25.71
 81.07     694.47      26.35
 81.17     714.00      26.72
 81.27     728.87      27.00
 81.37     777.00      27.87
 81.47     770.95      27.77
 81.57     749.24      27.37
 81.67     736.94      27.15
 81.77     756.00      27.50
 81.87     669.00      25.87
 81.97     701.00      26.48
 82.07     637.00      25.24
 82.17     690.00      26.27
 82.27     662.00      25.73
 82.37     631.30      25.13
 82.47     567.69      23.83
 82.57     604.00      24.58
 82.67     549.26      23.44
 82.77     566.00      23.79
 82.87     605.40      24.60
 82.97     579.00      24.06
 83.07     554.87      23.56
 83.17     590.00      24.29
 83.27     543.00      23.30
 83.37     525.00      22.91
 83.47     528.50      22.99
 83.57     523.00      22.87
 83.67     577.00      24.02
 83.77     595.00      24.39
 83.87     570.00      23.87
 83.97     564.00      23.75
 84.07     547.00      23.39
 84.17     594.00      24.37
 84.27     615.24      24.80
 84.37     554.00      23.54
 84.47     580.00      24.08
 84.57     591.85      24.33
 84.67     567.00      23.81
 84.77     564.00      23.75
 84.87     538.00      23.19
 84.97     534.00      23.11
 85.07     541.00      23.26
 85.17     564.00      23.75
 85.27     515.00      22.69
 85.37     562.00      23.71
 85.47     505.08      22.47
 85.57     570.00      23.87
 85.67     555.00      23.56
 85.77     573.83      23.95
 85.87     551.00      23.47
 85.97     575.75      23.99
 86.07     520.00      22.80
 86.17     573.00      23.94
 86.27     529.00      23.00
 86.37     543.00      23.30
 86.47     547.00      23.39
 86.57     566.33      23.80
 86.67     559.22      23.65
 86.77     574.00      23.96
 86.87     634.83      25.20
 86.97     561.99      23.71
 87.07     642.35      25.34
 87.17     623.00      24.96
 87.27     611.00      24.72
 87.37     621.33      24.93
 87.47     646.00      25.42
 87.57     665.00      25.79
 87.67     588.29      24.25
 87.77     615.47      24.81
 87.87     643.00      25.36
 87.97     609.00      24.68
 88.07     553.05      23.52
 88.17     612.92      24.76
 88.27     560.00      23.66
 88.37     581.00      24.10
 88.47     606.00      24.62
 88.57     571.00      23.90
 88.67     526.46      22.94
 88.77     565.10      23.77
 88.87     616.00      24.82
 88.97     558.11      23.62
 89.07     632.00      25.14
 89.17     624.00      24.98
 89.27     594.00      24.37
 89.37     588.00      24.25
 89.47     625.00      25.00
 89.57     589.00      24.27
 89.67     618.24      24.86
 89.77     581.50      24.11
 89.87     537.00      23.17
 89.97     612.50      24.75
 90.07     537.70      23.19
 90.17     605.07      24.60
 90.27     583.51      24.16
 90.37     518.00      22.76
 90.47     495.00      22.25
 90.57     520.00      22.80
 90.67     515.00      22.69
 90.77     508.00      22.54
 90.87     507.70      22.53
 90.97     533.00      23.09
 91.07     555.06      23.56
 91.17     521.00      22.83
 91.27     532.00      23.07
 91.37     512.00      22.63
 91.47     535.00      23.13
 91.57     496.00      22.27
 91.67     566.20      23.79
 91.77     534.00      23.11
 91.87     523.00      22.87
 91.97     572.54      23.93
 92.07     566.00      23.79
 92.17     545.00      23.35
 92.27     594.00      24.37
 92.37     657.00      25.63
 92.47     655.48      25.60
 92.57     669.74      25.88
 92.67     649.00      25.48
 92.77     671.17      25.91
 92.87     701.00      26.48
 92.97     728.00      26.98
 93.07     777.11      27.88
 93.17     749.00      27.37
 93.27     821.01      28.65
 93.37     787.81      28.07
 93.47     742.44      27.25
 93.57     780.49      27.94
 93.67     796.00      28.21
 93.77     847.00      29.10
 93.87     912.00      30.20
 93.97     787.50      28.06
 94.07     847.00      29.10
 94.17     815.00      28.55
 94.27     851.00      29.17
 94.37     883.00      29.72
 94.47     917.00      30.28
 94.57     902.00      30.03
 94.67     913.43      30.22
 94.77     962.00      31.02
 94.87     913.00      30.22
 94.97     905.00      30.08
 95.07     894.94      29.92
 95.17     805.38      28.38
 95.27     878.00      29.63
 95.37     813.00      28.51
 95.47     756.15      27.50
 95.57     834.00      28.88
 95.67     682.82      26.13
 95.77     723.00      26.89
 95.87     676.30      26.01
 95.97     726.00      26.94
 96.07     733.00      27.07
 96.17     719.64      26.83
 96.27     738.00      27.17
 96.37     739.89      27.20
 96.47     795.00      28.20
 96.57     917.00      30.28
 96.67     933.00      30.55
 96.77     971.00      31.16
 96.87    1062.59      32.60
 96.97    1140.00      33.76
 97.07    1227.00      35.03
 97.17    1265.00      35.57
 97.27    1372.00      37.04
 97.37    1444.03      38.00
 97.47    1424.00      37.74
 97.57    1451.00      38.09
 97.67    1411.45      37.57
 97.77    1320.00      36.33
 97.87    1321.00      36.35
 97.97    1299.07      36.04
 98.07    1216.00      34.87
 98.17    1133.84      33.67
 98.27    1051.00      32.42
 98.37     965.00      31.06
 98.47     942.00      30.69
 98.57     961.00      31.00
 98.67     835.27      28.90
 98.77     805.86      28.39
 98.87     824.00      28.71
 98.97     830.00      28.81
 99.07     825.00      28.72
 99.17     855.00      29.24
 99.27     891.00      29.85
 99.37     968.00      31.11
 99.47    1032.00      32.12
 99.57    1068.55      32.69
 99.67    1207.00      34.74
 99.77    1326.00      36.41
 99.87    1447.00      38.04
 99.97    1531.04      39.13
100.07    1654.00      40.67
100.17    1734.00      41.64
100.27    1798.00      42.40
100.37    1936.00      44.00
100.47    2037.00      45.13
100.57    1922.72      43.85
100.67    2093.20      45.75
100.77    2081.00      45.62
100.87    1940.00      44.05
100.97    2033.03      45.09
101.07    1912.00      43.73
101.17    1823.00      42.70
101.27    1757.00      41.92
101.37    1661.00      40.76
101.47    1581.50      39.77
101.57    1454.00      38.13
101.67    1415.00      37.62
101.77    1295.12      35.99
101.87    1230.00      35.07
101.97    1250.00      35.36
102.07    1260.48      35.50
102.17    1196.93      34.60
102.27    1118.00      33.44
102.37    1144.95      33.84
102.47    1158.97      34.04
102.57    1067.00      32.66
102.67    1082.21      32.90
102.77     975.45      31.23
102.87     975.46      31.23
102.97    1010.00      31.78
103.07     961.78      31.01
103.17     855.74      29.25
103.27     846.00      29.09
103.37     789.00      28.09
103.47     745.72      27.31
103.57     777.20      27.88
103.67     720.91      26.85
103.77     656.00      25.61
103.87     678.66      26.05
103.97     662.00      25.73
104.07     607.00      24.64
104.17     620.13      24.90
104.27     581.00      24.10
104.37     538.58      23.21
104.47     646.00      25.42
104.57     574.00      23.96
104.67     606.00      24.62
104.77     566.00      23.79
104.87     532.00      23.07
104.97     562.00      23.71
105.07     570.00      23.87
105.17     529.51      23.01
105.27     557.00      23.60
105.37     519.00      22.78
105.47     577.00      24.02
105.57     568.00      23.83
105.67     580.20      24.09
105.77     618.00      24.86
105.87     563.00      23.73
105.97     548.41      23.42
106.07     660.00      25.69
106.17     608.76      24.67
106.27     554.87      23.56
106.37     634.00      25.18
106.47     588.52      24.26
106.57     603.00      24.56
106.67     608.31      24.66
106.77     608.43      24.67
106.87     721.00      26.85
106.97     683.09      26.14
107.07     667.00      25.83
107.17     717.00      26.78
107.27     632.00      25.14
107.37     746.82      27.33
107.47     672.00      25.92
107.57     656.00      25.61
107.67     702.00      26.50
107.77     691.00      26.29
107.87     676.00      26.00
107.97     690.57      26.28
108.07     692.00      26.31
108.17     684.00      26.15
108.27     678.00      26.04
108.37     715.53      26.75
108.47     724.89      26.92
108.57     683.89      26.15
108.67     693.00      26.32
108.77     742.00      27.24
108.87     708.91      26.63
108.97     725.00      26.93
109.07     691.00      26.29
109.17     666.77      25.82
109.27     669.00      25.87
109.37     635.00      25.20
109.47     647.00      25.44
109.57     623.00      24.96
109.67     656.00      25.61
109.77     617.00      24.84
109.87     611.00      24.72
109.97     573.00      23.94
110.07     604.00      24.58
110.17     615.00      24.80
110.27     545.00      23.35
110.37     550.22      23.46
110.47     554.00      23.54
110.57     544.64      23.34
110.67     559.00      23.64
110.77     543.00      23.30
110.87     570.00      23.87
110.97     520.00      22.80
111.07     546.00      23.37
111.17     539.96      23.24
111.27     576.39      24.01
111.37     547.25      23.39
111.47     553.00      23.52
111.57     590.38      24.30
111.67     538.00      23.19
111.77     596.09      24.41
111.87     575.00      23.98
111.97     563.78      23.74
112.07     558.00      23.62
112.17     562.00      23.71
112.27     633.00      25.16
112.37     594.00      24.37
112.47     608.79      24.67
112.57     632.44      25.15
112.67     606.00      24.62
112.77     658.40      25.66
112.87     607.00      24.64
112.97     608.00      24.66
113.07     605.00      24.60
113.17     705.11      26.55
113.27     631.00      25.12
113.37     728.77      27.00
113.47     716.00      26.76
113.57     728.00      26.98
113.67     835.32      28.90
113.77     800.94      28.30
113.87     860.59      29.34
113.97     884.00      29.73
114.07     952.71      30.87
114.17     995.00      31.54
114.27    1084.00      32.92
114.37    1162.00      34.09
114.47    1303.00      36.10
114.57    1432.00      37.84
114.67    1518.76      38.97
114.77    1683.00      41.02
114.87    1951.00      44.17
114.97    2105.00      45.88
115.07    2325.00      48.22
115.17    2567.39      50.67
115.27    2777.00      52.70
115.37    3182.00      56.41
115.47    3510.00      59.25
115.57    3903.00      62.47
115.67    4144.53      64.38
115.77    4490.00      67.01
115.87    4826.00      69.47
115.97    5257.07      72.51
116.07    5693.00      75.45
116.17    6051.00      77.79
116.27    6117.52      78.21
116.37    6584.00      81.14
116.47    6641.00      81.49
116.57    6887.00      82.99
116.67    6701.74      81.86
116.77    6763.55      82.24
116.87    6608.00      81.29
116.97    6484.65      80.53
117.07    6201.88      78.75
117.17    5946.00      77.11
117.27    5693.16      75.45
117.37    5182.00      71.99
117.47    4915.00      70.11
117.57    4469.00      66.85
117.67    4208.00      64.87
117.77    3990.12      63.17
117.87    3541.81      59.51
117.97    3245.30      56.97
118.07    2851.44      53.40
118.17    2541.85      50.42
118.27    2289.00      47.84
118.37    2053.28      45.31
118.47    1744.00      41.76
118.57    1553.00      39.41
118.67    1376.77      37.10
118.77    1243.73      35.27
118.87    1211.73      34.81
118.97    1013.00      31.83
119.07     973.37      31.20
119.17     885.40      29.76
119.27     786.00      28.04
119.37     827.00      28.76
119.47     771.00      27.77
119.57     688.00      26.23
119.67     696.24      26.39
119.77     651.80      25.53
119.87     665.00      25.79
119.97     628.00      25.06
120.07     621.11      24.92
120.17     595.00      24.39
120.27     613.00      24.76
120.37     631.00      25.12
120.47     600.00      24.49
120.57     578.00      24.04
120.67     582.00      24.12
120.77     576.56      24.01
120.87     559.81      23.66
120.97     576.41      24.01
121.07     562.00      23.71
121.17     565.00      23.77
121.27     550.00      23.45
121.37     552.00      23.49
121.47     553.37      23.52
121.57     606.00      24.62
121.67     624.97      25.00
121.77     566.71      23.81
121.87     625.25      25.00
121.97     594.00      24.37
122.07     624.00      24.98
122.17     662.00      25.73
122.27     567.99      23.83
122.37     600.00      24.49
122.47     611.00      24.72
122.57     643.00      25.36
122.67     665.00      25.79
122.77     620.00      24.90
122.87     616.00      24.82
122.97     682.00      26.12
123.07     667.00      25.83
123.17     629.40      25.09
123.27     584.57      24.18
123.37     662.94      25.75
123.47     650.32      25.50
123.57     599.00      24.47
123.67     648.00      25.46
123.77     668.98      25.86
123.87     650.00      25.50
123.97     621.00      24.92
124.07     640.00      25.30
124.17     595.00      24.39
124.27     584.00      24.17
124.37     642.08      25.34
124.47     582.00      24.12
124.57     604.98      24.60
124.67     600.00      24.49
124.77     537.30      23.18
124.87     532.75      23.08
124.97     563.00      23.73
