  9.97     589.00      24.27
 10.07     616.00      24.82
 10.17     599.79      24.49
 10.27     579.08      24.06
 10.37     572.00      23.92
 10.47     592.43      24.34
 10.57     593.00      24.35
 10.67     557.00      23.60
 10.77     543.00      23.30
 10.87     606.00      24.62
 10.97     576.52      24.01
 11.07     516.66      22.73
 11.17     575.63      23.99
 11.27     525.41      22.92
 11.37     559.56      23.65
 11.47     560.66      23.68
 11.57     580.00      24.08
 11.67     607.00      24.64
 11.77     561.46      23.70
 11.87     640.00      25.30
 11.97     662.00      25.73
 12.07     664.00      25.77
 12.17     673.00      25.94
 12.27     700.52      26.47
 12.37     595.00      24.39
 12.47     598.00      24.45
 12.57     574.04      23.96
 12.67     597.00      24.43
 12.77     616.00      24.82
 12.87     611.44      24.73
 12.97     609.22      24.68
 13.07     601.00      24.52
 13.17     609.59      24.69
 13.27     571.00      23.90
 13.37     533.00      23.09
 13.47     543.00      23.30
 13.57     589.00      24.27
 13.67     546.00      23.37
 13.77     572.00      23.92
 13.87     553.73      23.53
 13.97     570.00      23.87
 14.07     510.00      22.58
 14.17     536.07      23.15
 14.27     549.00      23.43
 14.37     612.00      24.74
 14.47     546.59      23.38
 14.57     599.00      24.47
 14.67     531.00      23.04
 14.77     507.00      22.52
 14.87     603.93      24.58
 14.97     510.00      22.58
 15.07     546.00      23.37
 15.17     544.00      23.32
 15.27     557.27      23.61
 15.37     556.00      23.58
 15.47     529.00      23.00
 15.57     511.00      22.61
 15.67     540.00      23.24
 15.77     536.00      23.15
 15.87     588.00      24.25
 15.97     547.30      23.39
 16.07     540.00      23.24
 16.17     551.00      23.47
 16.27     558.00      23.62
 16.37     574.67      23.97
 16.47     512.00      22.63
 16.57     517.00      22.74
 16.67     541.00      23.26
 16.77     554.00      23.54
 16.87     517.74      22.75
 16.97     590.73      24.30
 17.07     567.24      23.82
 17.17     572.00      23.92
 17.27     539.44      23.23
 17.37     572.00      23.92
 17.47     597.27      24.44
 17.57     594.33      24.38
 17.67     583.41      24.15
 17.77     566.26      23.80
 17.87     553.40      23.52
 17.97     561.00      23.69
 18.07     583.00      24.15
 18.17     563.72      23.74
 18.27     585.00      24.19
 18.37     522.93      22.87
 18.47     572.84      23.93
 18.57     570.00      23.87
 18.67     536.82      23.17
 18.77     581.00      24.10
 18.87     598.65      24.47
 18.97     523.11      22.87
 19.07     552.00      23.49
 19.17     574.00      23.96
 19.27     553.00      23.52
 19.37     547.67      23.40
 19.47     538.00      23.19
 19.57     514.97      22.69
 19.67     556.00      23.58
 19.77     544.00      23.32
 19.87     530.00      23.02
 19.97     573.69      23.95
 20.07     545.00      23.35
 20.17     541.00      23.26
 20.27     532.00      23.07
 20.37     501.00      22.38
 20.47     580.00      24.08
 20.57     535.00      23.13
 20.67     492.00      22.18
 20.77     544.00      23.32
 20.87     552.00      23.49
 20.97     534.00      23.11
 21.07     521.00      22.83
 21.17     540.00      23.24
 21.27     590.84      24.31
 21.37     572.00      23.92
 21.47     560.00      23.66
 21.57     533.00      23.09
 21.67     585.77      24.20
 21.77     526.67      22.95
 21.87     584.00      24.17
 21.97     602.00      24.54
 22.07     582.65      24.14
 22.17     551.00      23.47
 22.27     572.00      23.92
 22.37     541.97      23.28
 22.47     592.00      24.33
 22.57     540.00      23.24
 22.67     548.00      23.41
 22.77     570.00      23.87
 22.87     534.47      23.12
 22.97     576.00      24.00
 23.07     555.00      23.56
 23.17     561.00      23.69
 23.27     526.00      22.93
 23.37     569.00      23.85
 23.47     540.62      23.25
 23.57     538.00      23.19
 23.67     600.00      24.49
 23.77     580.00      24.08
 23.87     536.79      23.17
 23.97     559.08      23.64
 24.07     558.00      23.62
 24.17     567.99      23.83
 24.27     566.00      23.79
 24.37     614.00      24.78
 24.47     605.00      24.60
 24.57     628.00      25.06
 24.67     613.00      24.76
 24.77     588.88      24.27
 24.87     615.73      24.81
 24.97     578.80      24.06
 25.07     566.00      23.79
 25.17     578.00      24.04
 25.27     547.18      23.39
 25.37     543.00      23.30
 25.47     545.00      23.35
 25.57     611.00      24.72
 25.67     546.41      23.38
 25.77     555.74      23.57
 25.87     567.00      23.81
 25.97     525.19      22.92
 26.07     495.00      22.25
 26.17     579.00      24.06
 26.27     497.27      22.30
 26.37     546.00      23.37
 26.47     548.00      23.41
 26.57     553.00      23.52
 26.67     563.64      23.74
 26.77     539.00      23.22
 26.87     557.38      23.61
 26.97     564.00      23.75
 27.07     515.00      22.69
 27.17     580.00      24.08
 27.27     538.00      23.19
 27.37     499.84      22.36
 27.47     551.00      23.47
 27.57     564.88      23.77
 27.67     544.73      23.34
 27.77     577.89      24.04
 27.87     629.00      25.08
 27.97     673.08      25.94
 28.07     747.00      27.33
 28.17     839.00      28.97
 28.27     936.00      30.59
 28.37     929.10      30.48
 28.47     799.00      28.27
 28.57     715.78      26.75
 28.67     728.76      27.00
 28.77     753.00      27.44
 28.87     815.00      28.55
 28.97     802.00      28.32
 29.07     771.10      27.77
 29.17     680.00      26.08
 29.27     687.00      26.21
 29.37     642.00      25.34
 29.47     574.20      23.96
 29.57     564.24      23.75
 29.67     545.36      23.35
 29.77     576.00      24.00
 29.87     568.00      23.83
 29.97     539.31      23.22
 30.07     578.00      24.04
 30.17     573.00      23.94
 30.27     533.00      23.09
 30.37     555.42      23.57
 30.47     537.00      23.17
 30.57     607.00      24.64
 30.67     576.24      24.00
 30.77     576.00      24.00
 30.87     598.00      24.45
 30.97     602.33      24.54
 31.07     610.00      24.70
 31.17     588.00      24.25
 31.27     507.00      22.52
 31.37     549.34      23.44
 31.47     533.00      23.09
 31.57     529.00      23.00
 31.67     544.09      23.33
 31.77     544.75      23.34
 31.87     569.00      23.85
 31.97     516.16      22.72
 32.07     504.00      22.45
 32.17     511.00      22.61
 32.27     556.00      23.58
 32.37     582.00      24.12
 32.47     497.96      22.31
 32.57     532.00      23.07
 32.67     545.88      23.36
 32.77     543.00      23.30
 32.87     526.00      22.93
 32.97     521.00      22.83
 33.07     494.85      22.25
 33.17     523.00      22.87
 33.27     542.00      23.28
 33.37     521.84      22.84
 33.47     565.00      23.77
 33.57     602.88      24.55
 33.67     599.63      24.49
 33.77     742.00      27.24
 33.87     850.00      29.15
 33.97     998.00      31.59
 34.07    1039.00      32.23
 34.17    1039.00      32.23
 34.27     890.00      29.83
 34.37     789.00      28.09
 34.47     668.00      25.85
 34.57     622.00      24.94
 34.67     550.00      23.45
 34.77     524.38      22.90
 34.87     544.07      23.33
 34.97     558.00      23.62
 35.07     534.21      23.11
 35.17     551.36      23.48
 35.27     524.00      22.89
 35.37     495.00      22.25
 35.47     558.00      23.62
 35.57     547.24      23.39
 35.67     513.00      22.65
 35.77     546.13      23.37
 35.87     515.07      22.70
 35.97     479.06      21.89
 36.07     512.00      22.63
 36.17     496.00      22.27
 36.27     502.34      22.41
 36.37     525.00      22.91
 36.47     512.00      22.63
 36.57     457.00      21.38
 36.67     539.00      23.22
 36.77     513.00      22.65
 36.87     523.18      22.87
 36.97     499.00      22.34
 37.07     487.60      22.08
 37.17     501.37      22.39
 37.27     497.00      22.29
 37.37     523.00      22.87
 37.47     515.00      22.69
 37.57     508.00      22.54
 37.67     476.00      21.82
 37.77     515.50      22.70
 37.87     529.24      23.01
 37.97     519.00      22.78
 38.07     508.00      22.54
 38.17     540.00      23.24
 38.27     502.00      22.41
 38.37     489.00      22.11
 38.47     468.00      21.63
 38.57     468.00      21.63
 38.67     486.00      22.05
 38.77     513.00      22.65
 38.87     503.70      22.44
 38.97     458.00      21.40
 39.07     506.00      22.49
 39.17     522.10      22.85
 39.27     504.00      22.45
 39.37     512.00      22.63
 39.47     491.51      22.17
 39.57     516.00      22.72
 39.67     533.23      23.09
 39.77     493.00      22.20
 39.87     496.00      22.27
 39.97     470.00      21.68
 40.07     514.00      22.67
 40.17     441.00      21.00
 40.27     498.00      22.32
 40.37     521.63      22.84
 40.47     510.00      22.58
 40.57     526.91      22.95
 40.67     503.00      22.43
 40.77     427.00      20.66
 40.87     505.00      22.47
 40.97     470.23      21.68
 41.07     476.00      21.82
 41.17     504.00      22.45
 41.27     519.29      22.79
 41.37     500.00      22.36
 41.47     460.94      21.47
 41.57     478.00      21.86
 41.67     530.37      23.03
 41.77     474.00      21.77
 41.87     479.00      21.89
 41.97     495.00      22.25
 42.07     462.00      21.49
 42.17     494.00      22.23
 42.27     520.00      22.80
 42.37     562.00      23.71
 42.47     616.08      24.82
 42.57     577.79      24.04
 42.67     542.00      23.28
 42.77     626.12      25.02
 42.87     641.36      25.32
 42.97     605.00      24.60
 43.07     573.58      23.95
 43.17     565.97      23.79
 43.27     536.00      23.15
 43.37     509.00      22.56
 43.47     518.00      22.76
 43.57     476.00      21.82
 43.67     468.00      21.63
 43.77     512.00      22.63
 43.87     500.00      22.36
 43.97     504.00      22.45
 44.07     484.00      22.00
 44.17     492.00      22.18
 44.27     534.00      23.11
 44.37     459.00      21.42
 44.47     481.26      21.94
 44.57     518.00      22.76
 44.67     485.29      22.03
 44.77     506.85      22.51
 44.87     505.00      22.47
 44.97     486.86      22.06
 45.07     465.71      21.58
 45.17     507.00      22.52
 45.27     517.00      22.74
 45.37     560.00      23.66
 45.47     465.00      21.56
 45.57     495.00      22.25
 45.67     531.00      23.04
 45.77     463.31      21.52
 45.87     457.50      21.39
 45.97     498.00      22.32
 46.07     483.00      21.98
 46.17     496.00      22.27
 46.27     494.00      22.23
 46.37     511.00      22.61
 46.47     510.00      22.58
 46.57     517.33      22.74
 46.67     521.00      22.83
 46.77     520.00      22.80
 46.87     469.35      21.66
 46.97     471.00      21.70
 47.07     515.43      22.70
 47.17     518.00      22.76
 47.27     532.00      23.07
 47.37     544.19      23.33
 47.47     554.00      23.54
 47.57     574.00      23.96
 47.67     546.00      23.37
 47.77     555.91      23.58
 47.87     579.85      24.08
 47.97     626.06      25.02
 48.07     564.00      23.75
 48.17     588.00      24.25
 48.27     552.00      23.49
 48.37     571.53      23.91
 48.47     538.00      23.19
 48.57     523.34      22.88
 48.67     496.26      22.28
 48.77     556.83      23.60
 48.87     560.00      23.66
 48.97     554.49      23.55
 49.07     584.83      24.18
 49.17     561.00      23.69
 49.27     593.00      24.35
 49.37     619.00      24.88
 49.47     648.00      25.46
 49.57     721.23      26.86
 49.67     812.00      28.50
 49.77    1008.00      31.75
 49.87    1341.01      36.62
 49.97    1596.02      39.95
 50.07    2130.00      46.15
 50.17    2357.00      48.55
 50.27    2378.23      48.77
 50.37    2209.47      47.01
 50.47    1932.00      43.95
 50.57    1495.00      38.67
 50.67    1143.00      33.81
 50.77     902.00      30.03
 50.87     783.00      27.98
 50.97     680.00      26.08
 51.07     682.00      26.12
 51.17     628.00      25.06
 51.27     586.00      24.21
 51.37     616.42      24.83
 51.47     571.21      23.90
 51.57     546.00      23.37
 51.67     602.00      24.54
 51.77     549.00      23.43
 51.87     521.00      22.83
 51.97     520.64      22.82
 52.07     556.00      23.58
 52.17     543.00      23.30
 52.27     532.00      23.07
 52.37     581.00      24.10
 52.47     574.00      23.96
 52.57     584.00      24.17
 52.67     522.01      22.85
 52.77     649.00      25.48
 52.87     612.00      24.74
 52.97     721.35      26.86
 53.07     764.00      27.64
 53.17     894.24      29.90
 53.27    1016.00      31.87
 53.37    1088.75      33.00
 53.47    1206.00      34.73
 53.57    1181.00      34.37
 53.67    1153.39      33.96
 53.77    1018.00      31.91
 53.87     878.00      29.63
 53.97     848.00      29.12
 54.07     758.00      27.53
 54.17     644.06      25.38
 54.27     649.17      25.48
 54.37     585.24      24.19
 54.47     616.00      24.82
 54.57     570.24      23.88
 54.67     547.60      23.40
 54.77     563.94      23.75
 54.87     525.90      22.93
 54.97     509.50      22.57
 55.07     589.00      24.27
 55.17     552.00      23.49
 55.27     616.00      24.82
 55.37     573.77      23.95
 55.47     541.82      23.28
 55.57     587.00      24.23
 55.67     635.00      25.20
 55.77     608.00      24.66
 55.87     571.58      23.91
 55.97     587.40      24.24
 56.07     733.00      27.07
 56.17     812.56      28.51
 56.27     896.00      29.93
 56.37    1152.05      33.94
 56.47    1316.00      36.28
 56.57    1673.00      40.90
 56.67    2052.49      45.30
 56.77    2276.31      47.71
 56.87    2560.00      50.60
 56.97    2554.00      50.54
 57.07    2375.00      48.73
 57.17    2190.00      46.80
 57.27    1851.00      43.02
 57.37    1449.00      38.07
 57.47    1161.00      34.07
 57.57    1021.33      31.96
 57.67     911.00      30.18
 57.77     761.00      27.59
 57.87     739.48      27.19
 57.97     665.00      25.79
 58.07     704.00      26.53
 58.17     712.50      26.69
 58.27     733.00      27.07
 58.37     807.00      28.41
 58.47     889.00      29.82
 58.57     937.00      30.61
 58.67    1045.00      32.33
 58.77    1185.15      34.43
 58.87    1244.00      35.27
 58.97    1309.00      36.18
 59.07    1360.00      36.88
 59.17    1349.00      36.73
 59.27    1312.67      36.23
 59.37    1256.25      35.44
 59.47    1245.00      35.28
 59.57    1202.00      34.67
 59.67    1103.00      33.21
 59.77    1179.00      34.34
 59.87    1196.00      34.58
 59.97    1322.00      36.36
 60.07    1356.49      36.83
 60.17    1528.00      39.09
 60.27    1566.00      39.57
 60.37    1514.00      38.91
 60.47    1387.00      37.24
 60.57    1343.00      36.65
 60.67    1136.00      33.70
 60.77    1055.00      32.48
 60.87     821.18      28.66
 60.97     752.21      27.43
 61.07     677.00      26.02
 61.17     652.00      25.53
 61.27     686.48      26.20
 61.37     637.97      25.26
 61.47     717.00      26.78
 61.57     732.00      27.06
 61.67     832.00      28.84
 61.77     892.99      29.88
 61.87    1039.00      32.23
 61.97    1137.00      33.72
 62.07    1350.00      36.74
 62.17    1371.00      37.03
 62.27    1392.93      37.32
 62.37    1342.98      36.65
 62.47    1223.00      34.97
 62.57    1120.46      33.47
 62.67     928.98      30.48
 62.77     876.37      29.60
 62.87     736.38      27.14
 62.97     724.79      26.92
 63.07     626.00      25.02
 63.17     590.00      24.29
 63.27     593.00      24.35
 63.37     580.30      24.09
 63.47     541.00      23.26
 63.57     570.54      23.89
 63.67     580.00      24.08
 63.77     621.00      24.92
 63.87     580.49      24.09
 63.97     645.00      25.40
 64.07     710.58      26.66
 64.17     782.00      27.96
 64.27     802.00      28.32
 64.37     863.00      29.38
 64.47     970.51      31.15
 64.57     960.00      30.98
 64.67    1037.00      32.20
 64.77    1102.00      33.20
 64.87     917.83      30.30
 64.97     988.69      31.44
 65.07     862.00      29.36
 65.17     796.18      28.22
 65.27     735.17      27.11
 65.37     722.00      26.87
 65.47     692.09      26.31
 65.57     654.72      25.59
 65.67     586.00      24.21
 65.77     646.26      25.42
 65.87     534.00      23.11
 65.97     531.10      23.05
 66.07     609.00      24.68
 66.17     581.00      24.10
 66.27     542.00      23.28
 66.37     538.00      23.19
 66.47     570.00      23.87
 66.57     553.00      23.52
 66.67     545.00      23.35
 66.77     600.00      24.49
 66.87     588.00      24.25
 66.97     633.11      25.16
 67.07     657.77      25.65
 67.17     685.00      26.17
 67.27     711.42      26.67
 67.37     877.00      29.61
 67.47     969.00      31.13
 67.57    1202.00      34.67
 67.67    1439.00      37.93
 67.77    1653.00      40.66
 67.87    1953.00      44.19
 67.97    2137.40      46.23
 68.07    2405.00      49.04
 68.17    2358.95      48.57
 68.27    2370.00      48.68
 68.37    2105.00      45.88
 68.47    1872.00      43.27
 68.57    1722.47      41.50
 68.67    1454.00      38.13
 68.77    1135.00      33.69
 68.87     938.00      30.63
 68.97     857.00      29.27
 69.07     735.81      27.13
 69.17     756.00      27.50
 69.27     625.00      25.00
 69.37     608.00      24.66
 69.47     594.00      24.37
 69.57     619.42      24.89
 69.67     561.00      23.69
 69.77     580.00      24.08
 69.87     549.00      23.43
 69.97     629.00      25.08
 70.07     521.00      22.83
 70.17     583.00      24.15
 70.27     570.17      23.88
 70.37     598.00      24.45
 70.47     609.19      24.68
 70.57     582.79      24.14
 70.67     552.00      23.49
 70.77     625.21      25.00
 70.87     627.00      25.04
 70.97     582.00      24.12
 71.07     646.10      25.42
 71.17     665.00      25.79
 71.27     797.00      28.23
 71.37     884.79      29.75
 71.47    1067.00      32.66
 71.57    1174.00      34.26
 71.67    1320.03      36.33
 71.77    1495.00      38.67
 71.87    1740.00      41.71
 71.97    1905.00      43.65
 72.07    1900.00      43.59
 72.17    1933.03      43.97
 72.27    1807.00      42.51
 72.37    1605.63      40.07
 72.47    1511.00      38.87
 72.57    1335.00      36.54
 72.67    1236.96      35.17
 72.77    1047.00      32.36
 72.87     896.00      29.93
 72.97     810.74      28.47
 73.07     736.44      27.14
 73.17     768.00      27.71
 73.27     738.46      27.17
 73.37     645.00      25.40
 73.47     611.14      24.72
 73.57     604.82      24.59
 73.67     647.00      25.44
 73.77     620.00      24.90
 73.87     563.38      23.74
 73.97     608.00      24.66
 74.07     619.06      24.88
 74.17     556.00      23.58
 74.27     655.00      25.59
 74.37     576.00      24.00
 74.47     598.00      24.45
 74.57     614.00      24.78
 74.67     594.96      24.39
 74.77     617.00      24.84
 74.87     617.00      24.84
 74.97     631.00      25.12
 75.07     583.00      24.15
 75.17     628.00      25.06
 75.27     599.00      24.47
 75.37     601.00      24.52
 75.47     514.75      22.69
 75.57     540.00      23.24
 75.67     565.00      23.77
 75.77     599.00      24.47
 75.87     608.00      24.66
 75.97     606.00      24.62
 76.07     619.24      24.88
 76.17     634.00      25.18
 76.27     664.00      25.77
 76.37     737.00      27.15
 76.47     692.00      26.31
 76.57     717.61      26.79
 76.67     678.00      26.04
 76.77     664.96      25.79
 76.87     712.34      26.69
 76.97     686.96      26.21
 77.07     650.00      25.50
 77.17     580.00      24.08
 77.27     587.00      24.23
 77.37     622.06      24.94
 77.47     594.17      24.38
 77.57     588.86      24.27
 77.67     541.00      23.26
 77.77     573.40      23.95
 77.87     515.00      22.69
 77.97     559.72      23.66
 78.07     479.70      21.90
 78.17     528.33      22.99
 78.27     514.00      22.67
 78.37     547.00      23.39
 78.47     503.00      22.43
 78.57     512.00      22.63
 78.67     516.56      22.73
 78.77     522.00      22.85
 78.87     503.17      22.43
 78.97     551.00      23.47
 79.07     486.00      22.05
 79.17     492.00      22.18
 79.27     483.00      21.98
 79.37     503.37      22.44
 79.47     501.00      22.38
 79.57     494.00      22.23
 79.67     528.92      23.00
 79.77     514.00      22.67
 79.87     559.83      23.66
 79.97     585.00      24.19
 80.07     536.46      23.16
 80.17     563.94      23.75
 80.27     591.67      24.32
 80.37     562.00      23.71
 80.47     585.00      24.19
 80.57     588.00      24.25
 80.67     574.23      23.96
 80.77     679.83      26.07
 80.87     646.00      25.42
 80.97     715.09      26.74
 81.07     683.00      26.13
 81.17     704.52      26.54
 81.27     748.00      27.35
 81.37     771.42      27.77
 81.47     765.00      27.66
 81.57     751.00      27.40
 81.67     736.00      27.13
 81.77     711.00      26.66
 81.87     774.00      27.82
 81.97     726.98      26.96
 82.07     691.00      26.29
 82.17     697.00      26.40
 82.27     641.95      25.34
 82.37     606.00      24.62
 82.47     596.61      24.43
 82.57     595.29      24.40
 82.67     588.00      24.25
 82.77     582.42      24.13
 82.87     536.00      23.15
 82.97     575.78      24.00
 83.07     593.33      24.36
 83.17     513.56      22.66
 83.27     528.00      22.98
 83.37     516.03      22.72
 83.47     526.00      22.93
 83.57     576.95      24.02
 83.67     574.36      23.97
 83.77     546.00      23.37
 83.87     520.00      22.80
 83.97     595.58      24.40
 84.07     558.00      23.62
 84.17     553.00      23.52
 84.27     576.00      24.00
 84.37     569.99      23.87
 84.47     563.00      23.73
 84.57     527.00      22.96
 84.67     570.00      23.87
 84.77     543.00      23.30
 84.87     500.00      22.36
 84.97     541.90      23.28
 85.07     499.13      22.34
 85.17     511.00      22.61
 85.27     519.00      22.78
 85.37     572.00      23.92
 85.47     499.61      22.35
 85.57     539.55      23.23
 85.67     512.00      22.63
 85.77     532.73      23.08
 85.87     530.00      23.02
 85.97     551.00      23.47
 86.07     526.38      22.94
 86.17     507.00      22.52
 86.27     494.98      22.25
 86.37     568.00      23.83
 86.47     561.00      23.69
 86.57     528.00      22.98
 86.67     568.00      23.83
 86.77     587.00      24.23
 86.87     528.01      22.98
 86.97     623.00      24.96
 87.07     602.00      24.54
 87.17     637.07      25.24
 87.27     615.00      24.80
 87.37     618.00      24.86
 87.47     582.05      24.13
 87.57     633.00      25.16
 87.67     636.36      25.23
 87.77     592.55      24.34
 87.87     625.00      25.00
 87.97     564.81      23.77
 88.07     631.88      25.14
 88.17     565.76      23.79
 88.27     583.00      24.15
 88.37     606.00      24.62
 88.47     523.74      22.89
 88.57     527.44      22.97
 88.67     593.00      24.35
 88.77     538.71      23.21
 88.87     587.00      24.23
 88.97     544.00      23.32
 89.07     603.00      24.56
 89.17     626.00      25.02
 89.27     599.00      24.47
 89.37     623.00      24.96
 89.47     565.00      23.77
 89.57     622.97      24.96
 89.67     566.00      23.79
 89.77     516.00      22.72
 89.87     600.00      24.49
 89.97     613.50      24.77
 90.07     587.03      24.23
 90.17     572.00      23.92
 90.27     506.00      22.49
 90.37     549.00      23.43
 90.47     518.00      22.76
 90.57     518.00      22.76
 90.67     557.53      23.61
 90.77     526.00      22.93
 90.87     549.58      23.44
 90.97     546.00      23.37
 91.07     540.00      23.24
 91.17     517.00      22.74
 91.27     487.00      22.07
 91.37     549.00      23.43
 91.47     476.00      21.82
 91.57     526.00      22.93
 91.67     562.74      23.72
 91.77     511.15      22.61
 91.87     547.00      23.39
 91.97     574.39      23.97
 92.07     525.00      22.91
 92.17     556.00      23.58
 92.27     568.00      23.83
 92.37     547.03      23.39
 92.47     590.00      24.29
 92.57     664.29      25.77
 92.67     631.00      25.12
 92.77     667.00      25.83
 92.87     658.00      25.65
 92.97     687.00      26.21
 93.07     709.00      26.63
 93.17     771.00      27.77
 93.27     751.00      27.40
 93.37     799.00      28.27
 93.47     779.00      27.91
 93.57     794.00      28.18
 93.67     804.00      28.35
 93.77     836.00      28.91
 93.87     830.00      28.81
 93.97     829.00      28.79
 94.07     864.40      29.40
 94.17     778.52      27.90
 94.27     889.10      29.82
 94.37     801.16      28.30
 94.47     886.33      29.77
 94.57     789.00      28.09
 94.67     942.00      30.69
 94.77     854.24      29.23
 94.87     826.48      28.75
 94.97     820.46      28.64
 95.07     814.44      28.54
 95.17     864.00      29.39
 95.27     877.00      29.61
 95.37     877.00      29.61
 95.47     777.72      27.89
 95.57     750.12      27.39
 95.67     754.43      27.47
 95.77     706.00      26.57
 95.87     673.00      25.94
 95.97     648.07      25.46
 96.07     721.00      26.85
 96.17     719.01      26.81
 96.27     741.00      27.22
 96.37     780.97      27.95
 96.47     790.00      28.11
 96.57     751.00      27.40
 96.67     916.14      30.27
 96.77     926.00      30.43
 96.87     958.00      30.95
 96.97    1056.49      32.50
 97.07    1206.00      34.73
 97.17    1256.00      35.44
 97.27    1350.00      36.74
 97.37    1276.00      35.72
 97.47    1338.25      36.58
 97.57    1402.85      37.45
 97.67    1525.00      39.05
 97.77    1344.87      36.67
 97.87    1414.10      37.60
 97.97    1333.00      36.51
 98.07    1295.61      35.99
 98.17    1277.30      35.74
 98.27    1103.20      33.21
 98.37    1030.68      32.10
 98.47    1048.00      32.37
 98.57     933.00      30.55
 98.67     895.07      29.92
 98.77     871.00      29.51
 98.87     847.00      29.10
 98.97     816.00      28.57
 99.07     846.23      29.09
 99.17     894.00      29.90
 99.27     899.00      29.98
 99.37     923.39      30.39
 99.47     988.37      31.44
 99.57     997.00      31.58
 99.67    1168.12      34.18
 99.77    1206.00      34.73
 99.87    1255.00      35.43
 99.97    1403.48      37.46
100.07    1550.00      39.37
100.17    1663.00      40.78
100.27    1723.00      41.51
100.37    1815.00      42.60
100.47    1925.00      43.87
100.57    1953.00      44.19
100.67    1931.50      43.95
100.77    1985.00      44.55
100.87    2033.00      45.09
100.97    1925.58      43.88
101.07    1851.00      43.02
101.17    1878.54      43.34
101.27    1853.00      43.05
101.37    1729.84      41.59
101.47    1674.00      40.91
101.57    1637.00      40.46
101.67    1547.00      39.33
101.77    1458.00      38.18
101.87    1428.79      37.80
101.97    1291.24      35.93
102.07    1312.00      36.22
102.17    1187.00      34.45
102.27    1220.00      34.93
102.37    1155.12      33.99
102.47    1134.15      33.68
102.57    1126.00      33.56
102.67    1087.84      32.98
102.77    1093.00      33.06
102.87    1059.85      32.56
102.97    1040.00      32.25
103.07     985.00      31.38
103.17     935.00      30.58
103.27     857.58      29.28
103.37     895.00      29.92
103.47     814.56      28.54
103.57     804.00      28.35
103.67     713.00      26.70
103.77     693.93      26.34
103.87     651.00      25.51
103.97     717.00      26.78
104.07     666.94      25.83
104.17     640.00      25.30
104.27     557.36      23.61
104.37     578.00      24.04
104.47     619.00      24.88
104.57     567.00      23.81
104.67     529.80      23.02
104.77     598.00      24.45
104.87     527.00      22.96
104.97     563.00      23.73
105.07     539.00      23.22
105.17     549.00      23.43
105.27     533.45      23.10
105.37     543.59      23.32
105.47     489.58      22.13
105.57     544.00      23.32
105.67     577.54      24.03
105.77     537.00      23.17
105.87     563.00      23.73
105.97     519.25      22.79
106.07     514.81      22.69
106.17     587.00      24.23
106.27     600.00      24.49
106.37     598.00      24.45
106.47     568.76      23.85
106.57     605.00      24.60
106.67     621.34      24.93
106.77     618.00      24.86
106.87     701.31      26.48
106.97     623.72      24.97
107.07     669.00      25.87
107.17     705.11      26.55
107.27     658.00      25.65
107.37     739.32      27.19
107.47     689.00      26.25
107.57     689.00      26.25
107.67     743.66      27.27
107.77     655.84      25.61
107.87     690.26      26.27
107.97     647.00      25.44
108.07     728.00      26.98
108.17     679.00      26.06
108.27     690.00      26.27
108.37     669.00      25.87
108.47     652.00      25.53
108.57     693.76      26.34
108.67     678.68      26.05
108.77     696.63      26.39
108.87     728.00      26.98
108.97     681.91      26.11
109.07     651.00      25.51
109.17     710.98      26.66
109.27     681.00      26.10
109.37     707.44      26.60
109.47     646.69      25.43
109.57     609.00      24.68
109.67     588.80      24.27
109.77     633.00      25.16
109.87     640.95      25.32
109.97     615.00      24.80
110.07     602.00      24.54
110.17     592.00      24.33
110.27     603.00      24.56
110.37     557.95      23.62
110.47     555.11      23.56
110.57     591.94      24.33
110.67     561.00      23.69
110.77     525.00      22.91
110.87     583.00      24.15
110.97     588.00      24.25
111.07     569.40      23.86
111.17     518.19      22.76
111.27     546.00      23.37
111.37     547.00      23.39
111.47     549.00      23.43
111.57     532.00      23.07
111.67     525.00      22.91
111.77     589.25      24.27
111.87     559.00      23.64
111.97     576.09      24.00
112.07     559.00      23.64
112.17     555.00      23.56
112.27     581.00      24.10
112.37     556.00      23.58
112.47     593.88      24.37
112.57     605.00      24.60
112.67     609.68      24.69
112.77     626.84      25.04
112.87     595.00      24.39
112.97     595.00      24.39
113.07     642.29      25.34
113.17     629.00      25.08
113.27     693.19      26.33
113.37     650.00      25.50
113.47     668.00      25.85
113.57     649.00      25.48
113.67     683.38      26.14
113.77     752.54      27.43
113.87     787.99      28.07
113.97     783.51      27.99
114.07     835.00      28.90
114.17     838.16      28.95
114.27     921.99      30.36
114.37    1009.00      31.76
114.47    1067.00      32.66
114.57    1170.00      34.21
114.67    1348.33      36.72
114.77    1475.53      38.41
114.87    1634.56      40.43
114.97    1858.00      43.10
115.07    1969.71      44.38
115.17    2289.00      47.84
115.27    2555.00      50.55
115.37    2867.00      53.54
115.47    3021.36      54.97
115.57    3530.63      59.42
115.67    3727.99      61.06
115.77    4171.36      64.59
115.87    4496.34      67.05
115.97    4866.00      69.76
116.07    5191.79      72.05
116.17    5614.15      74.93
116.27    5791.96      76.10
116.37    6371.66      79.82
116.47    6392.85      79.96
116.57    6627.51      81.41
116.67    6671.00      81.68
116.77    6818.89      82.58
116.87    6952.00      83.38
116.97    6759.00      82.21
117.07    6566.76      81.04
117.17    6259.00      79.11
117.27    6154.26      78.45
117.37    5624.00      74.99
117.47    5499.86      74.16
117.57    4960.25      70.43
117.67    4739.25      68.84
117.77    4261.87      65.28
117.87    3909.00      62.52
117.97    3787.00      61.54
118.07    3338.00      57.78
118.17    2979.00      54.58
118.27    2631.00      51.29
118.37    2373.00      48.71
118.47    2127.52      46.13
118.57    1913.00      43.74
118.67    1606.00      40.07
118.77    1536.00      39.19
118.87    1270.00      35.64
118.97    1285.70      35.86
119.07    1098.00      33.14
119.17    1043.91      32.31
119.27     904.20      30.07
119.37     872.99      29.55
119.47     802.00      28.32
119.57     789.00      28.09
119.67     757.51      27.52
119.77     742.00      27.24
119.87     674.34      25.97
119.97     645.00      25.40
120.07     637.00      25.24
120.17     610.00      24.70
120.27     613.47      24.77
120.37     565.00      23.77
120.47     573.00      23.94
120.57     635.00      25.20
120.67     603.00      24.56
120.77     557.76      23.62
120.87     540.00      23.24
120.97     537.79      23.19
121.07     521.00      22.83
121.17     550.00      23.45
121.27     572.00      23.92
121.37     554.14      23.54
121.47     606.38      24.62
121.57     593.00      24.35
121.67     569.00      23.85
121.77     617.46      24.85
121.87     600.00      24.49
121.97     623.00      24.96
122.07     586.54      24.22
122.17     566.85      23.81
122.27     584.35      24.17
122.37     614.73      24.79
122.47     662.44      25.74
122.57     631.00      25.12
122.67     670.71      25.90
122.77     622.00      24.94
122.87     658.00      25.65
122.97     629.00      25.08
123.07     647.00      25.44
123.17     625.00      25.00
123.27     714.00      26.72
123.37     603.40      24.56
123.47     592.49      24.34
123.57     641.92      25.34
123.67     596.00      24.41
123.77     601.00      24.52
123.87     644.00      25.38
123.97     654.00      25.57
124.07     602.00      24.54
124.17     592.00      24.33
124.27     592.00      24.33
124.37     575.54      23.99
124.47     610.00      24.70
124.57     624.33      24.99
124.67     570.00      23.87
124.77     547.00      23.39
124.87     598.00      24.45
124.97     533.00      23.09
