  9.97     600.00      24.49
 10.07     562.00      23.71
 10.17     532.36      23.07
 10.27     597.00      24.43
 10.37     562.00      23.71
 10.47     596.00      24.41
 10.57     532.99      23.09
 10.67     597.00      24.43
 10.77     564.39      23.76
 10.87     543.20      23.31
 10.97     551.00      23.47
 11.07     600.00      24.49
 11.17     579.17      24.07
 11.27     585.00      24.19
 11.37     578.00      24.04
 11.47     532.13      23.07
 11.57     557.00      23.60
 11.67     590.00      24.29
 11.77     581.85      24.12
 11.87     663.00      25.75
 11.97     668.00      25.85
 12.07     691.00      26.29
 12.17     645.90      25.41
 12.27     700.00      26.46
 12.37     725.00      26.93
 12.47     621.00      24.92
 12.57     594.00      24.37
 12.67     595.65      24.41
 12.77     558.00      23.62
 12.87     534.00      23.11
 12.97     581.00      24.10
 13.07     573.00      23.94
 13.17     555.00      23.56
 13.27     587.00      24.23
 13.37     565.00      23.77
 13.47     526.00      22.93
 13.57     538.00      23.19
 13.67     552.00      23.49
 13.77     568.65      23.85
 13.87     578.00      24.04
 13.97     571.00      23.90
 14.07     530.00      23.02
 14.17     518.00      22.76
 14.27     543.00      23.30
 14.37     543.00      23.30
 14.47     546.57      23.38
 14.57     536.79      23.17
 14.67     576.00      24.00
 14.77     550.00      23.45
 14.87     569.00      23.85
 14.97     519.00      22.78
 15.07     597.77      24.45
 15.17     543.00      23.30
 15.27     531.00      23.04
 15.37     575.00      23.98
 15.47     574.00      23.96
 15.57     535.00      23.13
 15.67     538.00      23.19
 15.77     546.00      23.37
 15.87     524.24      22.90
 15.97     520.00      22.80
 16.07     586.00      24.21
 16.17     539.00      23.22
 16.27     596.04      24.41
 16.37     556.50      23.59
 16.47     540.00      23.24
 16.57     562.00      23.71
 16.67     524.26      22.90
 16.77     520.22      22.81
 16.87     585.83      24.20
 16.97     565.00      23.77
 17.07     541.00      23.26
 17.17     532.25      23.07
 17.27     553.00      23.52
 17.37     526.13      22.94
 17.47     597.00      24.43
 17.57     550.38      23.46
 17.67     537.00      23.17
 17.77     572.00      23.92
 17.87     594.34      24.38
 17.97     504.00      22.45
 18.07     554.00      23.54
 18.17     520.00      22.80
 18.27     561.43      23.69
 18.37     522.00      22.85
 18.47     523.00      22.87
 18.57     576.41      24.01
 18.67     545.00      23.35
 18.77     581.00      24.10
 18.87     549.01      23.43
 18.97     535.85      23.15
 19.07     543.43      23.31
 19.17     563.00      23.73
 19.27     587.50      24.24
 19.37     534.00      23.11
 19.47     577.48      24.03
 19.57     581.00      24.10
 19.67     574.00      23.96
 19.77     601.32      24.52
 19.87     546.00      23.37
 19.97     565.00      23.77
 20.07     519.00      22.78
 20.17     576.00      24.00
 20.27     538.67      23.21
 20.37     522.00      22.85
 20.47     536.39      23.16
 20.57     518.00      22.76
 20.67     565.79      23.79
 20.77     561.00      23.69
 20.87     586.15      24.21
 20.97     517.32      22.74
 21.07     545.61      23.36
 21.17     571.00      23.90
 21.27     559.00      23.64
 21.37     574.00      23.96
 21.47     548.10      23.41
 21.57     589.13      24.27
 21.67     571.23      23.90
 21.77     525.28      22.92
 21.87     499.00      22.34
 21.97     593.21      24.36
 22.07     549.58      23.44
 22.17     560.00      23.66
 22.27     544.00      23.32
 22.37     558.00      23.62
 22.47     544.97      23.34
 22.57     585.01      24.19
 22.67     581.91      24.12
 22.77     579.00      24.06
 22.87     541.00      23.26
 22.97     528.00      22.98
 23.07     535.00      23.13
 23.17     562.48      23.72
 23.27     516.53      22.73
 23.37     537.00      23.17
 23.47     570.28      23.88
 23.57     531.00      23.04
 23.67     568.00      23.83
 23.77     546.82      23.38
 23.87     535.00      23.13
 23.97     542.00      23.28
 24.07     539.21      23.22
 24.17     508.88      22.56
 24.27     587.00      24.23
 24.37     551.51      23.48
 24.47     548.89      23.43
 24.57     580.88      24.10
 24.67     623.40      24.97
 24.77     626.00      25.02
 24.87     638.00      25.26
 24.97     665.00      25.79
 25.07     568.75      23.85
 25.17     543.36      23.31
 25.27     525.03      22.91
 25.37     590.00      24.29
 25.47     523.00      22.87
 25.57     553.82      23.53
 25.67     569.00      23.85
 25.77     537.84      23.19
 25.87     524.17      22.89
 25.97     515.00      22.69
 26.07     571.00      23.90
 26.17     624.00      24.98
 26.27     559.00      23.64
 26.37     573.00      23.94
 26.47     539.28      23.22
 26.57     547.96      23.41
 26.67     536.00      23.15
 26.77     546.00      23.37
 26.87     515.00      22.69
 26.97     553.00      23.52
 27.07     570.00      23.87
 27.17     569.56      23.87
 27.27     508.26      22.54
 27.37     522.50      22.86
 27.47     562.00      23.71
 27.57     557.91      23.62
 27.67     540.86      23.26
 27.77     593.00      24.35
 27.87     608.00      24.66
 27.97     649.00      25.48
 28.07     754.00      27.46
 28.17     806.00      28.39
 28.27     904.00      30.07
 28.37     935.00      30.58
 28.47     817.00      28.58
 28.57     775.00      27.84
 28.67     688.56      26.24
 28.77     735.00      27.11
 28.87     805.00      28.37
 28.97     829.00      28.79
 29.07     805.00      28.37
 29.17     741.00      27.22
 29.27     655.00      25.59
 29.37     591.00      24.31
 29.47     585.28      24.19
 29.57     585.00      24.19
 29.67     609.00      24.68
 29.77     617.00      24.84
 29.87     564.08      23.75
 29.97     543.00      23.30
 30.07     507.00      22.52
 30.17     539.00      23.22
 30.27     543.00      23.30
 30.37     555.00      23.56
 30.47     561.00      23.69
 30.57     545.00      23.35
 30.67     542.37      23.29
 30.77     591.00      24.31
 30.87     584.62      24.18
 30.97     603.96      24.58
 31.07     567.09      23.81
 31.17     620.00      24.90
 31.27     594.00      24.37
 31.37     552.00      23.49
 31.47     528.00      22.98
 31.57     501.77      22.40
 31.67     524.00      22.89
 31.77     555.00      23.56
 31.87     527.79      22.97
 31.97     530.00      23.02
 32.07     537.06      23.17
 32.17     554.73      23.55
 32.27     550.00      23.45
 32.37     501.58      22.40
 32.47     511.69      22.62
 32.57     540.49      23.25
 32.67     569.00      23.85
 32.77     506.90      22.51
 32.87     578.00      24.04
 32.97     509.91      22.58
 33.07     492.95      22.20
 33.17     564.00      23.75
 33.27     520.00      22.80
 33.37     532.00      23.07
 33.47     517.10      22.74
 33.57     608.00      24.66
 33.67     665.00      25.79
 33.77     726.61      26.96
 33.87     825.00      28.72
 33.97     972.00      31.18
 34.07    1016.75      31.89
 34.17    1050.10      32.41
 34.27     969.00      31.13
 34.37     774.62      27.83
 34.47     698.00      26.42
 34.57     590.00      24.29
 34.67     579.06      24.06
 34.77     552.00      23.49
 34.87     569.00      23.85
 34.97     513.00      22.65
 35.07     551.00      23.47
 35.17     516.40      22.72
 35.27     531.75      23.06
 35.37     527.00      22.96
 35.47     474.22      21.78
 35.57     490.00      22.14
 35.67     536.00      23.15
 35.77     482.00      21.95
 35.87     532.65      23.08
 35.97     496.00      22.27
 36.07     511.78      22.62
 36.17     500.75      22.38
 36.27     503.00      22.43
 36.37     476.92      21.84
 36.47     493.00      22.20
 36.57     546.02      23.37
 36.67     492.44      22.19
 36.77     513.00      22.65
 36.87     483.00      21.98
 36.97     477.00      21.84
 37.07     502.91      22.43
 37.17     496.00      22.27
 37.27     514.00      22.67
 37.37     518.69      22.77
 37.47     562.00      23.71
 37.57     528.00      22.98
 37.67     480.25      21.91
 37.77     486.00      22.05
 37.87     480.00      21.91
 37.97     519.00      22.78
 38.07     541.00      23.26
 38.17     507.00      22.52
 38.27     524.00      22.89
 38.37     527.33      22.96
 38.47     506.00      22.49
 38.57     485.00      22.02
 38.67     525.13      22.92
 38.77     480.00      21.91
 38.87     492.00      22.18
 38.97     493.61      22.22
 39.07     486.72      22.06
 39.17     532.37      23.07
 39.27     518.00      22.76
 39.37     485.00      22.02
 39.47     467.44      21.62
 39.57     518.00      22.76
 39.67     508.00      22.54
 39.77     478.84      21.88
 39.87     520.19      22.81
 39.97     505.39      22.48
 40.07     474.45      21.78
 40.17     470.00      21.68
 40.27     475.00      21.79
 40.37     453.00      21.28
 40.47     483.34      21.99
 40.57     469.77      21.67
 40.67     470.28      21.69
 40.77     489.00      22.11
 40.87     507.45      22.53
 40.97     460.85      21.47
 41.07     497.00      22.29
 41.17     503.00      22.43
 41.27     517.94      22.76
 41.37     485.00      22.02
 41.47     507.00      22.52
 41.57     455.00      21.33
 41.67     487.00      22.07
 41.77     466.74      21.60
 41.87     469.97      21.68
 41.97     502.00      22.41
 42.07     543.37      23.31
 42.17     519.31      22.79
 42.27     539.39      23.22
 42.37     547.00      23.39
 42.47     513.00      22.65
 42.57     571.00      23.90
 42.67     560.00      23.66
 42.77     616.00      24.82
 42.87     647.05      25.44
 42.97     598.00      24.45
 43.07     541.00      23.26
 43.17     526.00      22.93
 43.27     511.00      22.61
 43.37     495.00      22.25
 43.47     508.00      22.54
 43.57     463.23      21.52
 43.67     449.00      21.19
 43.77     478.39      21.87
 43.87     472.30      21.73
 43.97     511.00      22.61
 44.07     491.00      22.16
 44.17     535.03      23.13
 44.27     493.00      22.20
 44.37     515.00      22.69
 44.47     528.00      22.98
 44.57     524.03      22.89
 44.67     475.00      21.79
 44.77     458.83      21.42
 44.87     482.00      21.95
 44.97     493.00      22.20
 45.07     505.00      22.47
 45.17     509.00      22.56
 45.27     512.10      22.63
 45.37     494.00      22.23
 45.47     460.00      21.45
 45.57     526.27      22.94
 45.67     486.00      22.05
 45.77     465.67      21.58
 45.87     515.08      22.70
 45.97     491.53      22.17
 46.07     496.00      22.27
 46.17     519.93      22.80
 46.27     497.32      22.30
 46.37     477.30      21.85
 46.47     465.73      21.58
 46.57     533.00      23.09
 46.67     511.07      22.61
 46.77     497.00      22.29
 46.87     527.00      22.96
 46.97     475.02      21.79
 47.07     533.52      23.10
 47.17     522.00      22.85
 47.27     496.00      22.27
 47.37     502.00      22.41
 47.47     544.19      23.33
 47.57     562.00      23.71
 47.67     522.87      22.87
 47.77     567.00      23.81
 47.87     590.00      24.29
 47.97     577.00      24.02
 48.07     577.00      24.02
 48.17     576.00      24.00
 48.27     570.00      23.87
 48.37     569.00      23.85
 48.47     580.80      24.10
 48.57     551.00      23.47
 48.67     519.00      22.78
 48.77     515.97      22.71
 48.87     521.00      22.83
 48.97     521.00      22.83
 49.07     532.46      23.08
 49.17     529.00      23.00
 49.27     567.00      23.81
 49.37     579.00      24.06
 49.47     632.00      25.14
 49.57     633.00      25.16
 49.67     779.22      27.91
 49.77     954.00      30.89
 49.87    1219.00      34.91
 49.97    1574.00      39.67
 50.07    1972.25      44.41
 50.17    2231.43      47.24
 50.27    2389.00      48.88
 50.37    2334.00      48.31
 50.47    1967.00      44.35
 50.57    1588.45      39.86
 50.67    1236.95      35.17
 50.77     959.00      30.97
 50.87     766.11      27.68
 50.97     722.03      26.87
 51.07     682.86      26.13
 51.17     640.00      25.30
 51.27     644.66      25.39
 51.37     547.24      23.39
 51.47     609.58      24.69
 51.57     573.36      23.94
 51.67     547.00      23.39
 51.77     551.07      23.47
 51.87     555.00      23.56
 51.97     543.00      23.30
 52.07     538.00      23.19
 52.17     566.17      23.79
 52.27     584.00      24.17
 52.37     505.16      22.48
 52.47     559.00      23.64
 52.57     585.89      24.21
 52.67     571.00      23.90
 52.77     619.00      24.88
 52.87     640.00      25.30
 52.97     644.18      25.38
 53.07     712.15      26.69
 53.17     847.00      29.10
 53.27     906.74      30.11
 53.37    1033.00      32.14
 53.47    1119.00      33.45
 53.57    1137.00      33.72
 53.67    1214.00      34.84
 53.77    1110.00      33.32
 53.87     941.00      30.68
 53.97     868.00      29.46
 54.07     728.42      26.99
 54.17     675.00      25.98
 54.27     668.00      25.85
 54.37     610.00      24.70
 54.47     588.00      24.25
 54.57     604.00      24.58
 54.67     530.82      23.04
 54.77     590.00      24.29
 54.87     504.92      22.47
 54.97     583.86      24.16
 55.07     519.00      22.78
 55.17     571.00      23.90
 55.27     614.00      24.78
 55.37     548.00      23.41
 55.47     600.00      24.49
 55.57     609.43      24.69
 55.67     602.00      24.54
 55.77     606.00      24.62
 55.87     585.81      24.20
 55.97     647.00      25.44
 56.07     652.13      25.54
 56.17     728.00      26.98
 56.27     847.00      29.10
 56.37    1055.65      32.49
 56.47    1324.05      36.39
 56.57    1599.95      40.00
 56.67    1949.00      44.15
 56.77    2323.00      48.20
 56.87    2441.00      49.41
 56.97    2564.00      50.64
 57.07    2414.00      49.13
 57.17    2280.00      47.75
 57.27    1954.00      44.20
 57.37    1625.57      40.32
 57.47    1321.15      36.35
 57.57    1010.00      31.78
 57.67     933.84      30.56
 57.77     841.00      29.00
 57.87     744.00      27.28
 57.97     731.00      27.04
 58.07     732.00      27.06
 58.17     668.52      25.86
 58.27     724.00      26.91
 58.37     732.00      27.06
 58.47     861.00      29.34
 58.57     942.29      30.70
 58.67     984.00      31.37
 58.77    1097.00      33.12
 58.87    1206.00      34.73
 58.97    1208.64      34.77
 59.07    1293.00      35.96
 59.17    1357.00      36.84
 59.27    1380.00      37.15
 59.37    1179.00      34.34
 59.47    1193.88      34.55
 59.57    1246.00      35.30
 59.67    1231.00      35.09
 59.77    1155.00      33.99
 59.87    1266.00      35.58
 59.97    1299.30      36.05
 60.07    1349.57      36.74
 60.17    1447.00      38.04
 60.27    1524.00      39.04
 60.37    1463.00      38.25
 60.47    1475.49      38.41
 60.57    1411.00      37.56
 60.67    1243.00      35.26
 60.77    1055.00      32.48
 60.87     948.61      30.80
 60.97     850.67      29.17
 61.07     723.00      26.89
 61.17     688.00      26.23
 61.27     634.00      25.18
 61.37     656.00      25.61
 61.47     681.00      26.10
 61.57     764.69      27.65
 61.67     777.00      27.87
 61.77     907.52      30.13
 61.87     950.00      30.82
 61.97    1086.00      32.95
 62.07    1220.00      34.93
 62.17    1309.00      36.18
 62.27    1364.36      36.94
 62.37    1331.00      36.48
 62.47    1275.00      35.71
 62.57    1102.00      33.20
 62.67     990.00      31.46
 62.77     858.00      29.29
 62.87     716.00      26.76
 62.97     696.47      26.39
 63.07     621.82      24.94
 63.17     575.00      23.98
 63.27     637.00      25.24
 63.37     574.14      23.96
 63.47     609.00      24.68
 63.57     557.95      23.62
 63.67     561.00      23.69
 63.77     592.00      24.33
 63.87     618.00      24.86
 63.97     656.00      25.61
 64.07     615.00      24.80
 64.17     742.00      27.24
 64.27     770.00      27.75
 64.37     831.00      28.83
 64.47     886.52      29.77
 64.57     937.00      30.61
 64.67    1026.00      32.03
 64.77     951.00      30.84
 64.87    1017.19      31.89
 64.97     903.36      30.06
 65.07     943.92      30.72
 65.17     815.00      28.55
 65.27     787.00      28.05
 65.37     714.00      26.72
 65.47     670.00      25.88
 65.57     629.23      25.08
 65.67     573.00      23.94
 65.77     584.00      24.17
 65.87     549.00      23.43
 65.97     548.00      23.41
 66.07     588.00      24.25
 66.17     587.05      24.23
 66.27     545.70      23.36
 66.37     554.00      23.54
 66.47     557.00      23.60
 66.57     543.00      23.30
 66.67     563.00      23.73
 66.77     549.00      23.43
 66.87     552.00      23.49
 66.97     588.20      24.25
 67.07     643.36      25.36
 67.17     651.60      25.53
 67.27     728.00      26.98
 67.37     877.85      29.63
 67.47     948.00      30.79
 67.57    1154.00      33.97
 67.67    1309.00      36.18
 67.77    1580.75      39.76
 67.87    1802.00      42.45
 67.97    2111.00      45.95
 68.07    2219.61      47.11
 68.17    2363.00      48.61
 68.27    2297.28      47.93
 68.37    2144.97      46.31
 68.47    1908.03      43.68
 68.57    1738.24      41.69
 68.67    1533.92      39.17
 68.77    1286.00      35.86
 68.87    1101.08      33.18
 68.97     875.00      29.58
 69.07     822.00      28.67
 69.17     674.86      25.98
 69.27     680.51      26.09
 69.37     675.03      25.98
 69.47     572.00      23.92
 69.57     641.00      25.32
 69.67     553.00      23.52
 69.77     536.67      23.17
 69.87     584.30      24.17
 69.97     557.02      23.60
 70.07     611.00      24.72
 70.17     605.13      24.60
 70.27     571.00      23.90
 70.37     579.00      24.06
 70.47     538.16      23.20
 70.57     577.00      24.02
 70.67     572.00      23.92
 70.77     575.00      23.98
 70.87     582.00      24.12
 70.97     629.18      25.08
 71.07     619.00      24.88
 71.17     688.00      26.23
 71.27     829.00      28.79
 71.37     874.00      29.56
 71.47    1060.06      32.56
 71.57    1099.00      33.15
 71.67    1314.00      36.25
 71.77    1496.00      38.68
 71.87    1581.00      39.76
 71.97    1769.19      42.06
 72.07    1881.04      43.37
 72.17    1841.00      42.91
 72.27    1819.00      42.65
 72.37    1736.00      41.67
 72.47    1566.00      39.57
 72.57    1448.00      38.05
 72.67    1315.00      36.26
 72.77    1108.00      33.29
 72.87     927.10      30.45
 72.97     860.00      29.33
 73.07     809.00      28.44
 73.17     746.46      27.32
 73.27     690.00      26.27
 73.37     667.00      25.83
 73.47     647.00      25.44
 73.57     604.00      24.58
 73.67     614.00      24.78
 73.77     652.00      25.53
 73.87     569.01      23.85
 73.97     600.00      24.49
 74.07     586.00      24.21
 74.17     583.60      24.16
 74.27     567.00      23.81
 74.37     597.00      24.43
 74.47     627.37      25.05
 74.57     569.00      23.85
 74.67     603.00      24.56
 74.77     638.00      25.26
 74.87     524.66      22.91
 74.97     632.00      25.14
 75.07     591.00      24.31
 75.17     594.00      24.37
 75.27     525.70      22.93
 75.37     533.43      23.10
 75.47     561.61      23.70
 75.57     571.04      23.90
 75.67     513.00      22.65
 75.77     594.00      24.37
 75.87     597.00      24.43
 75.97     569.00      23.85
 76.07     633.64      25.17
 76.17     637.00      25.24
 76.27     660.00      25.69
 76.37     696.96      26.40
 76.47     686.00      26.19
 76.57     678.00      26.04
 76.67     740.00      27.20
 76.77     708.00      26.61
 76.87     690.00      26.27
 76.97     630.00      25.10
 77.07     614.88      24.80
 77.17     641.00      25.32
 77.27     612.00      24.74
 77.37     625.60      25.01
 77.47     592.38      24.34
 77.57     528.24      22.98
 77.67     487.00      22.07
 77.77     517.00      22.74
 77.87     560.93      23.68
 77.97     552.00      23.49
 78.07     552.58      23.51
 78.17     506.00      22.49
 78.27     474.00      21.77
 78.37     495.03      22.25
 78.47     548.00      23.41
 78.57     496.65      22.29
 78.67     509.00      22.56
 78.77     506.00      22.49
 78.87     543.00      23.30
 78.97     507.46      22.53
 79.07     492.00      22.18
 79.17     501.00      22.38
 79.27     474.46      21.78
 79.37     486.00      22.05
 79.47     469.00      21.66
 79.57     490.10      22.14
 79.67     543.00      23.30
 79.77     482.00      21.95
 79.87     568.15      23.84
 79.97     549.00      23.43
 80.07     552.21      23.50
 80.17     527.00      22.96
 80.27     539.70      23.23
 80.37     562.31      23.71
 80.47     536.00      23.15
 80.57     566.91      23.81
 80.67     599.00      24.47
 80.77     659.26      25.68
 80.87     615.45      24.81
 80.97     681.00      26.10
 81.07     733.53      27.08
 81.17     620.00      24.90
 81.27     686.69      26.20
 81.37     744.00      27.28
 81.47     752.00      27.42
 81.57     744.22      27.28
 81.67     746.00      27.31
 81.77     737.00      27.15
 81.87     720.00      26.83
 81.97     713.00      26.70
 82.07     702.00      26.50
 82.17     660.00      25.69
 82.27     678.87      26.06
 82.37     657.00      25.63
 82.47     623.43      24.97
 82.57     607.00      24.64
 82.67     630.00      25.10
 82.77     529.00      23.00
 82.87     566.89      23.81
 82.97     552.00      23.49
 83.07     529.00      23.00
 83.17     548.00      23.41
 83.27     526.00      22.93
 83.37     585.83      24.20
 83.47     506.27      22.50
 83.57     542.00      23.28
 83.67     525.53      22.92
 83.77     555.00      23.56
 83.87     547.00      23.39
 83.97     538.00      23.19
 84.07     563.79      23.74
 84.17     557.64      23.61
 84.27     532.00      23.07
 84.37     554.00      23.54
 84.47     520.00      22.80
 84.57     534.00      23.11
 84.67     569.00      23.85
 84.77     552.00      23.49
 84.87     552.00      23.49
 84.97     550.00      23.45
 85.07     518.00      22.76
 85.17     499.50      22.35
 85.27     470.00      21.68
 85.37     494.23      22.23
 85.47     497.00      22.29
 85.57     528.00      22.98
 85.67     512.62      22.64
 85.77     481.29      21.94
 85.87     468.70      21.65
 85.97     516.00      22.72
 86.07     495.46      22.26
 86.17     524.00      22.89
 86.27     501.00      22.38
 86.37     507.97      22.54
 86.47     540.57      23.25
 86.57     566.00      23.79
 86.67     546.00      23.37
 86.77     538.53      23.21
 86.87     610.00      24.70
 86.97     565.00      23.77
 87.07     592.00      24.33
 87.17     584.01      24.17
 87.27     593.00      24.35
 87.37     634.59      25.19
 87.47     569.97      23.87
 87.57     617.00      24.84
 87.67     646.00      25.42
 87.77     593.96      24.37
 87.87     651.00      25.51
 87.97     642.00      25.34
 88.07     614.94      24.80
 88.17     620.00      24.90
 88.27     627.00      25.04
 88.37     526.00      22.93
 88.47     571.00      23.90
 88.57     599.00      24.47
 88.67     540.00      23.24
 88.77     601.00      24.52
 88.87     568.00      23.83
 88.97     556.00      23.58
 89.07     534.75      23.12
 89.17     588.00      24.25
 89.27     614.41      24.79
 89.37     626.00      25.02
 89.47     551.01      23.47
 89.57     617.05      24.84
 89.67     585.00      24.19
 89.77     627.71      25.05
 89.87     611.64      24.73
 89.97     545.64      23.36
 90.07     529.00      23.00
 90.17     597.20      24.44
 90.27     586.00      24.21
 90.37     515.00      22.69
 90.47     516.64      22.73
 90.57     558.37      23.63
 90.67     503.40      22.44
 90.77     531.00      23.04
 90.87     517.31      22.74
 90.97     547.99      23.41
 91.07     513.00      22.65
 91.17     553.33      23.52
 91.27     523.20      22.87
 91.37     502.00      22.41
 91.47     529.00      23.00
 91.57     481.89      21.95
 91.67     536.00      23.15
 91.77     521.00      22.83
 91.87     540.00      23.24
 91.97     535.53      23.14
 92.07     555.00      23.56
 92.17     559.00      23.64
 92.27     537.00      23.17
 92.37     563.00      23.73
 92.47     578.00      24.04
 92.57     585.00      24.19
 92.67     609.00      24.68
 92.77     669.00      25.87
 92.87     627.00      25.04
 92.97     627.67      25.05
 93.07     675.65      25.99
 93.17     744.00      27.28
 93.27     686.78      26.21
 93.37     787.94      28.07
 93.47     790.00      28.11
 93.57     806.00      28.39
 93.67     795.02      28.20
 93.77     826.00      28.74
 93.87     803.93      28.35
 93.97     773.00      27.80
 94.07     841.37      29.01
 94.17     869.83      29.49
 94.27     832.00      28.84
 94.37     870.00      29.50
 94.47     818.57      28.61
 94.57     908.00      30.13
 94.67     907.00      30.12
 94.77     907.00      30.12
 94.87     915.00      30.25
 94.97     938.00      30.63
 95.07     841.00      29.00
 95.17     906.00      30.10
 95.27     841.00      29.00
 95.37     849.00      29.14
 95.47     810.00      28.46
 95.57     772.00      27.78
 95.67     763.00      27.62
 95.77     678.65      26.05
 95.87     711.00      26.66
 95.97     724.00      26.91
 96.07     677.10      26.02
 96.17     668.00      25.85
 96.27     750.97      27.40
 96.37     737.00      27.15
 96.47     731.00      27.04
 96.57     773.11      27.80
 96.67     821.22      28.66
 96.77     902.35      30.04
 96.87     935.00      30.58
 96.97    1048.00      32.37
 97.07    1103.00      33.21
 97.17    1240.89      35.23
 97.27    1319.31      36.32
 97.37    1322.00      36.36
 97.47    1332.34      36.50
 97.57    1401.82      37.44
 97.67    1475.00      38.41
 97.77    1383.00      37.19
 97.87    1363.00      36.92
 97.97    1292.00      35.94
 98.07    1297.54      36.02
 98.17    1209.61      34.78
 98.27    1240.86      35.23
 98.37    1092.00      33.05
 98.47    1012.00      31.81
 98.57     989.00      31.45
 98.67     913.00      30.22
 98.77     916.15      30.27
 98.87     849.00      29.14
 98.97     906.39      30.11
 99.07     905.50      30.09
 99.17     888.00      29.80
 99.27     856.00      29.26
 99.37     958.00      30.95
 99.47     984.77      31.38
 99.57    1019.00      31.92
 99.67    1032.93      32.14
 99.77    1148.00      33.88
 99.87    1263.00      35.54
 99.97    1427.88      37.79
100.07    1540.00      39.24
100.17    1502.79      38.77
100.27    1604.00      40.05
100.37    1747.00      41.80
100.47    1970.00      44.38
100.57    1902.00      43.61
100.67    2016.00      44.90
100.77    1936.00      44.00
100.87    1984.00      44.54
100.97    1928.00      43.91
101.07    1951.00      44.17
101.17    1962.56      44.30
101.27    1880.00      43.36
101.37    1825.00      42.72
101.47    1658.00      40.72
101.57    1643.00      40.53
101.67    1557.00      39.46
101.77    1427.62      37.78
101.87    1402.00      37.44
101.97    1376.00      37.09
102.07    1293.00      35.96
102.17    1336.00      36.55
102.27    1182.00      34.38
102.37    1148.06      33.88
102.47    1235.41      35.15
102.57    1159.52      34.05
102.67    1072.00      32.74
102.77    1102.00      33.20
102.87    1033.00      32.14
102.97    1037.00      32.20
103.07    1002.00      31.65
103.17     948.76      30.80
103.27     952.00      30.85
103.37     939.69      30.65
103.47     848.00      29.12
103.57     801.00      28.30
103.67     755.00      27.48
103.77     714.15      26.72
103.87     762.00      27.60
103.97     700.00      26.46
104.07     628.00      25.06
104.17     586.69      24.22
104.27     621.42      24.93
104.37     581.00      24.10
104.47     599.00      24.47
104.57     603.00      24.56
104.67     562.19      23.71
104.77     508.07      22.54
104.87     553.12      23.52
104.97     550.00      23.45
105.07     485.12      22.03
105.17     562.00      23.71
105.27     512.00      22.63
105.37     554.00      23.54
105.47     522.00      22.85
105.57     539.20      23.22
105.67     528.00      22.98
105.77     537.00      23.17
105.87     549.00      23.43
105.97     588.00      24.25
106.07     528.40      22.99
106.17     589.00      24.27
106.27     564.00      23.75
106.37     589.00      24.27
106.47     558.32      23.63
106.57     587.00      24.23
106.67     603.00      24.56
106.77     634.60      25.19
106.87     616.00      24.82
106.97     680.31      26.08
107.07     634.81      25.20
107.17     670.00      25.88
107.27     678.00      26.04
107.37     647.45      25.45
107.47     643.00      25.36
107.57     656.00      25.61
107.67     701.00      26.48
107.77     645.00      25.40
107.87     672.56      25.93
107.97     701.67      26.49
108.07     740.64      27.21
108.17     705.00      26.55
108.27     723.80      26.90
108.37     686.32      26.20
108.47     683.00      26.13
108.57     693.43      26.33
108.67     692.49      26.32
108.77     694.48      26.35
108.87     696.00      26.38
108.97     691.58      26.30
109.07     674.00      25.96
109.17     632.00      25.14
109.27     632.63      25.15
109.37     686.29      26.20
109.47     673.00      25.94
109.57     698.40      26.43
109.67     591.00      24.31
109.77     651.00      25.51
109.87     633.65      25.17
109.97     589.00      24.27
110.07     599.00      24.47
110.17     602.00      24.54
110.27     549.57      23.44
110.37     531.90      23.06
110.47     563.00      23.73
110.57     520.00      22.80
110.67     543.00      23.30
110.77     532.12      23.07
110.87     575.00      23.98
110.97     536.00      23.15
111.07     572.00      23.92
111.17     556.00      23.58
111.27     562.00      23.71
111.37     594.00      24.37
111.47     539.00      23.22
111.57     554.00      23.54
111.67     536.00      23.15
111.77     579.00      24.06
111.87     508.00      22.54
111.97     561.00      23.69
112.07     567.00      23.81
112.17     576.00      24.00
112.27     552.00      23.49
112.37     586.65      24.22
112.47     588.54      24.26
112.57     596.79      24.43
112.67     536.00      23.15
112.77     629.42      25.09
112.87     566.43      23.80
112.97     637.72      25.25
113.07     572.05      23.92
113.17     623.00      24.96
113.27     645.62      25.41
113.37     587.00      24.23
113.47     674.46      25.97
113.57     683.48      26.14
113.67     667.00      25.83
113.77     680.00      26.08
113.87     753.00      27.44
113.97     734.00      27.09
114.07     816.27      28.57
114.17     791.00      28.12
114.27     890.59      29.84
114.37     890.00      29.83
114.47    1083.81      32.92
114.57    1140.00      33.76
114.67    1161.00      34.07
114.77    1377.11      37.11
114.87    1558.00      39.47
114.97    1706.00      41.30
115.07    1888.00      43.45
115.17    2149.00      46.36
115.27    2398.00      48.97
115.37    2530.01      50.30
115.47    2913.97      53.98
115.57    3173.00      56.33
115.67    3565.00      59.71
115.77    4012.16      63.34
115.87    4343.40      65.90
115.97    4717.85      68.69
116.07    4912.00      70.09
116.17    5269.95      72.59
116.27    5807.05      76.20
116.37    6034.00      77.68
116.47    6163.59      78.51
116.57    6486.20      80.54
116.67    6693.78      81.82
116.77    6810.00      82.52
116.87    6802.00      82.47
116.97    6704.00      81.88
117.07    6698.00      81.84
117.17    6507.00      80.67
117.27    6156.36      78.46
117.37    5861.00      76.56
117.47    5647.00      75.15
117.57    5341.00      73.08
117.67    5051.00      71.07
117.77    4527.26      67.28
117.87    4297.67      65.56
117.97    3831.07      61.90
118.07    3586.05      59.88
118.17    3344.00      57.83
118.27    2951.00      54.32
118.37    2552.00      50.52
118.47    2257.67      47.51
118.57    2129.81      46.15
118.67    1864.00      43.17
118.77    1664.84      40.80
118.87    1499.00      38.72
118.97    1388.00      37.26
119.07    1190.00      34.50
119.17    1174.76      34.27
119.27    1005.00      31.70
119.37    1021.00      31.95
119.47     843.00      29.03
119.57     818.00      28.60
119.67     761.00      27.59
119.77     805.00      28.37
119.87     677.97      26.04
119.97     690.94      26.29
120.07     705.94      26.57
120.17     677.00      26.02
120.27     626.00      25.02
120.37     614.61      24.79
120.47     623.65      24.97
120.57     621.51      24.93
120.67     614.00      24.78
120.77     536.00      23.15
120.87     620.27      24.91
120.97     559.00      23.64
121.07     551.00      23.47
121.17     532.11      23.07
121.27     546.00      23.37
121.37     537.00      23.17
121.47     547.09      23.39
121.57     541.00      23.26
121.67     558.82      23.64
121.77     599.00      24.47
121.87     566.00      23.79
121.97     603.00      24.56
122.07     568.00      23.83
122.17     627.69      25.05
122.27     634.00      25.18
122.37     610.00      24.70
122.47     587.00      24.23
122.57     659.00      25.67
122.67     631.00      25.12
122.77     605.00      24.60
122.87     641.62      25.33
122.97     614.00      24.78
123.07     658.00      25.65
123.17     651.00      25.51
123.27     667.71      25.84
123.37     611.00      24.72
123.47     629.43      25.09
123.57     600.00      24.49
123.67     693.00      26.32
123.77     605.00      24.60
123.87     652.03      25.53
123.97     624.00      24.98
124.07     627.00      25.04
124.17     664.00      25.77
124.27     612.00      24.74
124.37     597.00      24.43
124.47     618.04      24.86
124.57     640.00      25.30
124.67     577.31      24.03
124.77     561.86      23.70
124.87     575.00      23.98
124.97     560.00      23.66
