  9.97     581.00      24.10
 10.07     619.00      24.88
 10.17     564.00      23.75
 10.27     566.00      23.79
 10.37     593.43      24.36
 10.47     585.00      24.19
 10.57     630.00      25.10
 10.67     534.52      23.12
 10.77     588.00      24.25
 10.87     597.00      24.43
 10.97     559.81      23.66
 11.07     567.00      23.81
 11.17     603.99      24.58
 11.27     597.00      24.43
 11.37     559.00      23.64
 11.47     630.00      25.10
 11.57     612.40      24.75
 11.67     637.00      25.24
 11.77     618.29      24.87
 11.87     661.00      25.71
 11.97     640.00      25.30
 12.07     674.00      25.96
 12.17     717.75      26.79
 12.27     650.00      25.50
 12.37     608.00      24.66
 12.47     661.77      25.72
 12.57     596.00      24.41
 12.67     572.00      23.92
 12.77     544.31      23.33
 12.87     574.09      23.96
 12.97     620.00      24.90
 13.07     548.00      23.41
 13.17     528.59      22.99
 13.27     607.91      24.66
 13.37     591.00      24.31
 13.47     563.00      23.73
 13.57     530.62      23.04
 13.67     581.00      24.10
 13.77     556.00      23.58
 13.87     564.00      23.75
 13.97     543.53      23.31
 14.07     579.74      24.08
 14.17     526.00      22.93
 14.27     561.00      23.69
 14.37     546.00      23.37
 14.47     567.56      23.82
 14.57     575.00      23.98
 14.67     558.00      23.62
 14.77     563.00      23.73
 14.87     583.00      24.15
 14.97     529.00      23.00
 15.07     565.72      23.78
 15.17     540.04      23.24
 15.27     576.00      24.00
 15.37     529.13      23.00
 15.47     567.00      23.81
 15.57     571.00      23.90
 15.67     533.18      23.09
 15.77     587.81      24.24
 15.87     561.00      23.69
 15.97     518.84      22.78
 16.07     583.00      24.15
 16.17     583.00      24.15
 16.27     595.25      24.40
 16.37     536.63      23.17
 16.47     564.00      23.75
 16.57     561.53      23.70
 16.67     556.00      23.58
 16.77     577.00      24.02
 16.87     568.99      23.85
 16.97     527.00      22.96
 17.07     553.00      23.52
 17.17     539.00      23.22
 17.27     597.00      24.43
 17.37     509.00      22.56
 17.47     579.00      24.06
 17.57     574.00      23.96
 17.67     545.99      23.37
 17.77     531.00      23.04
 17.87     558.00      23.62
 17.97     537.00      23.17
 18.07     604.16      24.58
 18.17     541.00      23.26
 18.27     586.79      24.22
 18.37     597.62      24.45
 18.47     576.00      24.00
 18.57     555.00      23.56
 18.67     537.00      23.17
 18.77     584.63      24.18
 18.87     585.31      24.19
 18.97     525.00      22.91
 19.07     541.81      23.28
 19.17     541.00      23.26
 19.27     562.39      23.71
 19.37     593.72      24.37
 19.47     596.81      24.43
 19.57     528.00      22.98
 19.67     563.00      23.73
 19.77     508.73      22.56
 19.87     510.00      22.58
 19.97     555.00      23.56
 20.07     515.29      22.70
 20.17     562.00      23.71
 20.27     583.00      24.15
 20.37     522.66      22.86
 20.47     554.00      23.54
 20.57     551.87      23.49
 20.67     552.89      23.51
 20.77     541.00      23.26
 20.87     520.00      22.80
 20.97     539.00      23.22
 21.07     595.70      24.41
 21.17     533.00      23.09
 21.27     557.00      23.60
 21.37     521.00      22.83
 21.47     543.00      23.30
 21.57     523.00      22.87
 21.67     552.00      23.49
 21.77     551.00      23.47
 21.87     566.00      23.79
 21.97     584.00      24.17
 22.07     539.00      23.22
 22.17     527.33      22.96
 22.27     521.08      22.83
 22.37     522.00      22.85
 22.47     512.89      22.65
 22.57     570.00      23.87
 22.67     564.00      23.75
 22.77     493.00      22.20
 22.87     569.00      23.85
 22.97     538.92      23.21
 23.07     576.00      24.00
 23.17     554.12      23.54
 23.27     513.32      22.66
 23.37     563.00      23.73
 23.47     527.00      22.96
 23.57     558.00      23.62
 23.67     586.08      24.21
 23.77     556.00      23.58
 23.87     549.00      23.43
 23.97     527.00      22.96
 24.07     565.00      23.77
 24.17     558.00      23.62
 24.27     558.90      23.64
 24.37     602.00      24.54
 24.47     574.00      23.96
 24.57     572.88      23.93
 24.67     648.00      25.46
 24.77     634.52      25.19
 24.87     627.00      25.04
 24.97     637.68      25.25
 25.07     594.00      24.37
 25.17     581.00      24.10
 25.27     597.00      24.43
 25.37     516.00      22.72
 25.47     552.00      23.49
 25.57     537.22      23.18
 25.67     566.00      23.79
 25.77     508.00      22.54
 25.87     510.36      22.59
 25.97     536.00      23.15
 26.07     579.24      24.07
 26.17     551.00      23.47
 26.27     558.00      23.62
 26.37     500.72      22.38
 26.47     553.11      23.52
 26.57     548.00      23.41
 26.67     555.09      23.56
 26.77     547.00      23.39
 26.87     517.00      22.74
 26.97     542.00      23.28
 27.07     555.00      23.56
 27.17     539.00      23.22
 27.27     582.45      24.13
 27.37     586.00      24.21
 27.47     552.00      23.49
 27.57     570.00      23.87
 27.67     574.00      23.96
 27.77     524.13      22.89
 27.87     587.41      24.24
 27.97     611.84      24.74
 28.07     746.24      27.32
 28.17     941.43      30.68
 28.27     895.00      29.92
 28.37     927.00      30.45
 28.47     813.00      28.51
 28.57     683.93      26.15
 28.67     729.00      27.00
 28.77     704.00      26.53
 28.87     744.00      27.28
 28.97     810.42      28.47
 29.07     779.00      27.91
 29.17     746.00      27.31
 29.27     626.00      25.02
 29.37     627.00      25.04
 29.47     584.70      24.18
 29.57     531.41      23.05
 29.67     617.00      24.84
 29.77     520.75      22.82
 29.87     571.00      23.90
 29.97     560.00      23.66
 30.07     575.98      24.00
 30.17     506.32      22.50
 30.27     573.36      23.94
 30.37     567.08      23.81
 30.47     558.00      23.62
 30.57     549.00      23.43
 30.67     590.00      24.29
 30.77     614.14      24.78
 30.87     597.00      24.43
 30.97     597.00      24.43
 31.07     605.33      24.60
 31.17     589.00      24.27
 31.27     543.00      23.30
 31.37     554.00      23.54
 31.47     561.00      23.69
 31.57     512.00      22.63
 31.67     529.00      23.00
 31.77     555.00      23.56
 31.87     568.73      23.85
 31.97     558.00      23.62
 32.07     576.00      24.00
 32.17     538.00      23.19
 32.27     605.00      24.60
 32.37     550.00      23.45
 32.47     535.64      23.14
 32.57     586.00      24.21
 32.67     528.00      22.98
 32.77     563.00      23.73
 32.87     534.00      23.11
 32.97     548.00      23.41
 33.07     552.00      23.49
 33.17     597.00      24.43
 33.27     523.00      22.87
 33.37     555.00      23.56
 33.47     561.00      23.69
 33.57     609.00      24.68
 33.67     646.00      25.42
 33.77     745.13      27.30
 33.87     832.87      28.86
 33.97     967.00      31.10
 34.07    1012.00      31.81
 34.17    1007.00      31.73
 34.27     845.00      29.07
 34.37     782.00      27.96
 34.47     617.00      24.84
 34.57     593.00      24.35
 34.67     559.00      23.64
 34.77     503.20      22.43
 34.87     570.65      23.89
 34.97     510.00      22.58
 35.07     522.00      22.85
 35.17     530.91      23.04
 35.27     523.00      22.87
 35.37     515.00      22.69
 35.47     507.10      22.52
 35.57     509.00      22.56
 35.67     562.30      23.71
 35.77     538.00      23.19
 35.87     534.44      23.12
 35.97     513.00      22.65
 36.07     533.00      23.09
 36.17     500.39      22.37
 36.27     479.87      21.91
 36.37     553.68      23.53
 36.47     478.00      21.86
 36.57     488.00      22.09
 36.67     552.83      23.51
 36.77     549.85      23.45
 36.87     480.82      21.93
 36.97     521.00      22.83
 37.07     541.07      23.26
 37.17     542.00      23.28
 37.27     514.00      22.67
 37.37     562.97      23.73
 37.47     522.00      22.85
 37.57     533.00      23.09
 37.67     541.60      23.27
 37.77     509.27      22.57
 37.87     560.00      23.66
 37.97     486.00      22.05
 38.07     536.00      23.15
 38.17     513.00      22.65
 38.27     494.09      22.23
 38.37     524.00      22.89
 38.47     545.91      23.36
 38.57     515.35      22.70
 38.67     477.24      21.85
 38.77     496.00      22.27
 38.87     529.19      23.00
 38.97     533.00      23.09
 39.07     500.00      22.36
 39.17     483.00      21.98
 39.27     490.00      22.14
 39.37     451.00      21.24
 39.47     544.35      23.33
 39.57     478.87      21.88
 39.67     507.00      22.52
 39.77     536.35      23.16
 39.87     539.00      23.22
 39.97     496.00      22.27
 40.07     519.00      22.78
 40.17     505.00      22.47
 40.27     546.00      23.37
 40.37     466.66      21.60
 40.47     508.38      22.55
 40.57     500.00      22.36
 40.67     481.00      21.93
 40.77     548.68      23.42
 40.87     508.39      22.55
 40.97     518.00      22.76
 41.07     499.00      22.34
 41.17     543.49      23.31
 41.27     504.95      22.47
 41.37     534.00      23.11
 41.47     527.30      22.96
 41.57     513.00      22.65
 41.67     486.00      22.05
 41.77     542.38      23.29
 41.87     496.00      22.27
 41.97     522.00      22.85
 42.07     566.00      23.79
 42.17     499.07      22.34
 42.27     514.70      22.69
 42.37     544.00      23.32
 42.47     596.93      24.43
 42.57     593.00      24.35
 42.67     577.00      24.02
 42.77     596.13      24.42
 42.87     558.24      23.63
 42.97     620.00      24.90
 43.07     532.49      23.08
 43.17     537.00      23.17
 43.27     502.00      22.41
 43.37     536.68      23.17
 43.47     485.00      22.02
 43.57     497.00      22.29
 43.67     515.00      22.69
 43.77     542.72      23.30
 43.87     469.32      21.66
 43.97     481.98      21.95
 44.07     467.00      21.61
 44.17     480.00      21.91
 44.27     492.60      22.19
 44.37     473.00      21.75
 44.47     493.95      22.22
 44.57     507.00      22.52
 44.67     470.00      21.68
 44.77     495.00      22.25
 44.87     556.00      23.58
 44.97     513.00      22.65
 45.07     539.00      23.22
 45.17     542.42      23.29
 45.27     547.47      23.40
 45.37     514.00      22.67
 45.47     511.00      22.61
 45.57     497.00      22.29
 45.67     462.34      21.50
 45.77     516.00      22.72
 45.87     482.79      21.97
 45.97     537.00      23.17
 46.07     522.37      22.86
 46.17     517.46      22.75
 46.27     561.00      23.69
 46.37     488.00      22.09
 46.47     473.00      21.75
 46.57     511.52      22.62
 46.67     515.84      22.71
 46.77     506.00      22.49
 46.87     471.81      21.72
 46.97     548.37      23.42
 47.07     543.00      23.30
 47.17     509.00      22.56
 47.27     513.17      22.65
 47.37     502.00      22.41
 47.47     568.00      23.83
 47.57     517.00      22.74
 47.67     578.48      24.05
 47.77     606.00      24.62
 47.87     586.00      24.21
 47.97     612.51      24.75
 48.07     583.00      24.15
 48.17     597.63      24.45
 48.27     506.33      22.50
 48.37     590.00      24.29
 48.47     553.02      23.52
 48.57     559.00      23.64
 48.67     519.00      22.78
 48.77     533.00      23.09
 48.87     545.00      23.35
 48.97     528.00      22.98
 49.07     577.00      24.02
 49.17     570.00      23.87
 49.27     577.00      24.02
 49.37     666.00      25.81
 49.47     727.00      26.96
 49.57     774.00      27.82
 49.67     892.00      29.87
 49.77    1109.00      33.30
 49.87    1451.00      38.09
 49.97    1877.00      43.32
 50.07    2303.00      47.99
 50.17    2392.93      48.92
 50.27    2466.00      49.66
 50.37    2297.00      47.93
 50.47    1824.00      42.71
 50.57    1386.55      37.24
 50.67    1093.37      33.07
 50.77     854.00      29.22
 50.87     708.00      26.61
 50.97     670.00      25.88
 51.07     602.43      24.54
 51.17     578.32      24.05
 51.27     643.00      25.36
 51.37     563.00      23.73
 51.47     562.87      23.72
 51.57     597.00      24.43
 51.67     590.00      24.29
 51.77     576.89      24.02
 51.87     578.37      24.05
 51.97     526.06      22.94
 52.07     611.00      24.72
 52.17     546.00      23.37
 52.27     509.76      22.58
 52.37     534.71      23.12
 52.47     569.00      23.85
 52.57     546.00      23.37
 52.67     553.00      23.52
 52.77     622.00      24.94
 52.87     597.00      24.43
 52.97     782.00      27.96
 53.07     817.32      28.59
 53.17     952.44      30.86
 53.27    1055.00      32.48
 53.37    1167.00      34.16
 53.47    1207.91      34.76
 53.57    1161.00      34.07
 53.67    1073.61      32.77
 53.77    1062.28      32.59
 53.87     860.00      29.33
 53.97     714.00      26.72
 54.07     646.55      25.43
 54.17     624.00      24.98
 54.27     615.03      24.80
 54.37     578.00      24.04
 54.47     561.00      23.69
 54.57     587.00      24.23
 54.67     580.31      24.09
 54.77     575.00      23.98
 54.87     524.01      22.89
 54.97     558.94      23.64
 55.07     540.00      23.24
 55.17     586.00      24.21
 55.27     563.00      23.73
 55.37     540.00      23.24
 55.47     551.10      23.48
 55.57     595.00      24.39
 55.67     545.00      23.35
 55.77     590.00      24.29
 55.87     614.00      24.78
 55.97     623.00      24.96
 56.07     707.19      26.59
 56.17     746.95      27.33
 56.27     877.57      29.62
 56.37    1021.00      31.95
 56.47    1433.00      37.85
 56.57    1759.42      41.95
 56.67    2176.00      46.65
 56.77    2519.33      50.19
 56.87    2717.75      52.13
 56.97    2587.53      50.87
 57.07    2378.24      48.77
 57.17    2030.00      45.06
 57.27    1653.00      40.66
 57.37    1286.00      35.86
 57.47    1017.41      31.90
 57.57     858.03      29.29
 57.67     787.00      28.05
 57.77     731.00      27.04
 57.87     733.00      27.07
 57.97     665.00      25.79
 58.07     699.00      26.44
 58.17     745.00      27.29
 58.27     820.85      28.65
 58.37     881.33      29.69
 58.47     970.00      31.14
 58.57    1019.00      31.92
 58.67    1238.00      35.19
 58.77    1404.88      37.48
 58.87    1455.00      38.14
 58.97    1547.00      39.33
 59.07    1595.20      39.94
 59.17    1563.00      39.53
 59.27    1477.00      38.43
 59.37    1357.00      36.84
 59.47    1312.00      36.22
 59.57    1125.43      33.55
 59.67    1080.00      32.86
 59.77    1172.00      34.23
 59.87    1155.68      34.00
 59.97    1337.00      36.57
 60.07    1436.50      37.90
 60.17    1478.77      38.45
 60.27    1562.00      39.52
 60.37    1533.00      39.15
 60.47    1462.00      38.24
 60.57    1245.00      35.28
 60.67    1077.00      32.82
 60.77     914.00      30.23
 60.87     750.00      27.39
 60.97     724.00      26.91
 61.07     681.00      26.10
 61.17     670.30      25.89
 61.27     589.58      24.28
 61.37     699.31      26.44
 61.47     680.00      26.08
 61.57     795.97      28.21
 61.67     837.00      28.93
 61.77     942.30      30.70
 61.87    1092.72      33.06
 61.97    1250.05      35.36
 62.07    1381.00      37.16
 62.17    1494.21      38.66
 62.27    1353.00      36.78
 62.37    1288.00      35.89
 62.47    1233.38      35.12
 62.57    1090.00      33.02
 62.67     871.50      29.52
 62.77     785.00      28.02
 62.87     747.00      27.33
 62.97     645.00      25.40
 63.07     577.00      24.02
 63.17     608.25      24.66
 63.27     605.05      24.60
 63.37     571.61      23.91
 63.47     560.41      23.67
 63.57     556.00      23.58
 63.67     551.85      23.49
 63.77     604.00      24.58
 63.87     628.31      25.07
 63.97     629.00      25.08
 64.07     729.00      27.00
 64.17     705.86      26.57
 64.27     824.00      28.71
 64.37     926.14      30.43
 64.47     979.00      31.29
 64.57    1000.70      31.63
 64.67    1031.00      32.11
 64.77     937.35      30.62
 64.87     984.00      31.37
 64.97     936.49      30.60
 65.07     901.17      30.02
 65.17     773.29      27.81
 65.27     717.00      26.78
 65.37     674.00      25.96
 65.47     630.00      25.10
 65.57     602.00      24.54
 65.67     572.52      23.93
 65.77     570.74      23.89
 65.87     529.00      23.00
 65.97     580.00      24.08
 66.07     561.62      23.70
 66.17     571.00      23.90
 66.27     532.00      23.07
 66.37     560.00      23.66
 66.47     586.00      24.21
 66.57     557.00      23.60
 66.67     541.08      23.26
 66.77     544.00      23.32
 66.87     636.00      25.22
 66.97     596.00      24.41
 67.07     686.30      26.20
 67.17     699.00      26.44
 67.27     741.23      27.23
 67.37     880.00      29.66
 67.47    1022.00      31.97
 67.57    1266.00      35.58
 67.67    1470.00      38.34
 67.77    1731.60      41.61
 67.87    2122.01      46.07
 67.97    2346.70      48.44
 68.07    2450.00      49.50
 68.17    2379.25      48.78
 68.27    2323.00      48.20
 68.37    2075.00      45.55
 68.47    1842.92      42.93
 68.57    1577.00      39.71
 68.67    1236.00      35.16
 68.77     992.00      31.50
 68.87     867.00      29.44
 68.97     769.00      27.73
 69.07     697.60      26.41
 69.17     640.99      25.32
 69.27     657.00      25.63
 69.37     594.00      24.37
 69.47     580.00      24.08
 69.57     578.55      24.05
 69.67     567.00      23.81
 69.77     599.00      24.47
 69.87     582.66      24.14
 69.97     585.00      24.19
 70.07     534.91      23.13
 70.17     555.00      23.56
 70.27     562.00      23.71
 70.37     585.27      24.19
 70.47     601.00      24.52
 70.57     555.00      23.56
 70.67     613.15      24.76
 70.77     581.86      24.12
 70.87     578.00      24.04
 70.97     621.00      24.92
 71.07     691.50      26.30
 71.17     669.00      25.87
 71.27     841.00      29.00
 71.37     908.00      30.13
 71.47    1101.00      33.18
 71.57    1321.95      36.36
 71.67    1392.00      37.31
 71.77    1615.00      40.19
 71.87    1719.00      41.46
 71.97    1954.76      44.21
 72.07    1949.62      44.15
 72.17    1875.60      43.31
 72.27    1755.00      41.89
 72.37    1670.00      40.87
 72.47    1515.51      38.93
 72.57    1363.00      36.92
 72.67    1208.00      34.76
 72.77    1066.00      32.65
 72.87     930.00      30.50
 72.97     888.00      29.80
 73.07     863.10      29.38
 73.17     720.00      26.83
 73.27     702.00      26.50
 73.37     714.94      26.74
 73.47     715.95      26.76
 73.57     616.00      24.82
 73.67     577.00      24.02
 73.77     594.00      24.37
 73.87     574.00      23.96
 73.97     583.00      24.15
 74.07     613.00      24.76
 74.17     572.45      23.93
 74.27     542.97      23.30
 74.37     627.00      25.04
 74.47     600.00      24.49
 74.57     697.00      26.40
 74.67     657.00      25.63
 74.77     604.02      24.58
 74.87     588.95      24.27
 74.97     590.00      24.29
 75.07     577.89      24.04
 75.17     545.00      23.35
 75.27     592.00      24.33
 75.37     573.00      23.94
 75.47     519.41      22.79
 75.57     569.00      23.85
 75.67     550.00      23.45
 75.77     597.00      24.43
 75.87     622.36      24.95
 75.97     577.28      24.03
 76.07     634.00      25.18
 76.17     607.61      24.65
 76.27     657.14      25.63
 76.37     737.66      27.16
 76.47     737.00      27.15
 76.57     756.00      27.50
 76.67     699.54      26.45
 76.77     725.01      26.93
 76.87     649.86      25.49
 76.97     609.00      24.68
 77.07     576.00      24.00
 77.17     612.04      24.74
 77.27     552.07      23.50
 77.37     566.00      23.79
 77.47     534.00      23.11
 77.57     513.00      22.65
 77.67     576.89      24.02
 77.77     502.54      22.42
 77.87     534.76      23.12
 77.97     530.00      23.02
 78.07     524.00      22.89
 78.17     555.61      23.57
 78.27     542.52      23.29
 78.37     491.94      22.18
 78.47     504.00      22.45
 78.57     568.99      23.85
 78.67     536.13      23.15
 78.77     512.00      22.63
 78.87     543.25      23.31
 78.97     558.75      23.64
 79.07     536.46      23.16
 79.17     548.00      23.41
 79.27     532.00      23.07
 79.37     557.00      23.60
 79.47     564.81      23.77
 79.57     561.77      23.70
 79.67     504.00      22.45
 79.77     506.00      22.49
 79.87     566.00      23.79
 79.97     523.00      22.87
 80.07     554.00      23.54
 80.17     491.00      22.16
 80.27     547.00      23.39
 80.37     574.00      23.96
 80.47     606.07      24.62
 80.57     625.29      25.01
 80.67     628.00      25.06
 80.77     650.00      25.50
 80.87     677.00      26.02
 80.97     712.87      26.70
 81.07     694.48      26.35
 81.17     732.00      27.06
 81.27     736.00      27.13
 81.37     774.00      27.82
 81.47     691.00      26.29
 81.57     801.00      28.30
 81.67     781.00      27.95
 81.77     711.00      26.66
 81.87     675.09      25.98
 81.97     734.00      27.09
 82.07     693.00      26.32
 82.17     664.92      25.79
 82.27     692.00      26.31
 82.37     599.00      24.47
 82.47     569.00      23.85
 82.57     583.00      24.15
 82.67     600.00      24.49
 82.77     576.32      24.01
 82.87     547.00      23.39
 82.97     541.00      23.26
 83.07     533.00      23.09
 83.17     532.00      23.07
 83.27     549.00      23.43
 83.37     580.00      24.08
 83.47     540.00      23.24
 83.57     552.28      23.50
 83.67     548.63      23.42
 83.77     552.00      23.49
 83.87     555.00      23.56
 83.97     568.00      23.83
 84.07     543.27      23.31
 84.17     578.00      24.04
 84.27     535.00      23.13
 84.37     607.23      24.64
 84.47     538.00      23.19
 84.57     525.00      22.91
 84.67     579.87      24.08
 84.77     541.39      23.27
 84.87     497.00      22.29
 84.97     493.00      22.20
 85.07     527.00      22.96
 85.17     524.00      22.89
 85.27     518.45      22.77
 85.37     532.02      23.07
 85.47     511.00      22.61
 85.57     483.29      21.98
 85.67     502.00      22.41
 85.77     554.00      23.54
 85.87     535.00      23.13
 85.97     503.10      22.43
 86.07     534.00      23.11
 86.17     488.31      22.10
 86.27     576.00      24.00
 86.37     512.00      22.63
 86.47     565.00      23.77
 86.57     576.00      24.00
 86.67     545.00      23.35
 86.77     565.00      23.77
 86.87     620.00      24.90
 86.97     550.89      23.47
 87.07     590.00      24.29
 87.17     637.00      25.24
 87.27     651.23      25.52
 87.37     665.00      25.79
 87.47     586.22      24.21
 87.57     668.00      25.85
 87.67     672.00      25.92
 87.77     578.36      24.05
 87.87     665.00      25.79
 87.97     649.00      25.48
 88.07     602.55      24.55
 88.17     613.00      24.76
 88.27     546.41      23.38
 88.37     590.99      24.31
 88.47     603.00      24.56
 88.57     581.00      24.10
 88.67     592.00      24.33
 88.77     582.27      24.13
 88.87     590.01      24.29
 88.97     561.39      23.69
 89.07     609.00      24.68
 89.17     601.00      24.52
 89.27     628.00      25.06
 89.37     587.00      24.23
 89.47     566.00      23.79
 89.57     588.00      24.25
 89.67     580.00      24.08
 89.77     583.00      24.15
 89.87     629.00      25.08
 89.97     575.00      23.98
 90.07     595.00      24.39
 90.17     568.00      23.83
 90.27     506.23      22.50
 90.37     559.49      23.65
 90.47     529.00      23.00
 90.57     506.00      22.49
 90.67     509.00      22.56
 90.77     540.00      23.24
 90.87     526.00      22.93
 90.97     500.00      22.36
 91.07     538.00      23.19
 91.17     527.00      22.96
 91.27     524.00      22.89
 91.37     531.00      23.04
 91.47     519.00      22.78
 91.57     554.00      23.54
 91.67     562.00      23.71
 91.77     533.00      23.09
 91.87     543.00      23.30
 91.97     580.91      24.10
 92.07     585.00      24.19
 92.17     570.00      23.87
 92.27     593.00      24.35
 92.37     625.83      25.02
 92.47     608.00      24.66
 92.57     640.63      25.31
 92.67     609.00      24.68
 92.77     698.88      26.44
 92.87     761.00      27.59
 92.97     712.00      26.68
 93.07     815.00      28.55
 93.17     754.81      27.47
 93.27     810.02      28.46
 93.37     753.46      27.45
 93.47     832.00      28.84
 93.57     794.00      28.18
 93.67     785.12      28.02
 93.77     917.00      30.28
 93.87     861.00      29.34
 93.97     797.92      28.25
 94.07     852.00      29.19
 94.17     846.00      29.09
 94.27     890.43      29.84
 94.37     852.00      29.19
 94.47     953.00      30.87
 94.57     880.00      29.66
 94.67     912.00      30.20
 94.77     849.99      29.15
 94.87     882.95      29.71
 94.97     879.00      29.65
 95.07     835.00      28.90
 95.17     932.00      30.53
 95.27     854.00      29.22
 95.37     751.32      27.41
 95.47     842.00      29.02
 95.57     755.00      27.48
 95.67     663.62      25.76
 95.77     690.00      26.27
 95.87     673.00      25.94
 95.97     683.00      26.13
 96.07     713.98      26.72
 96.17     675.00      25.98
 96.27     755.00      27.48
 96.37     782.00      27.96
 96.47     788.77      28.09
 96.57     836.00      28.91
 96.67     901.00      30.02
 96.77     923.00      30.38
 96.87    1075.00      32.79
 96.97    1083.00      32.91
 97.07    1207.00      34.74
 97.17    1233.00      35.11
 97.27    1437.00      37.91
 97.37    1473.72      38.39
 97.47    1425.58      37.76
 97.57    1445.00      38.01
 97.67    1466.00      38.29
 97.77    1349.31      36.73
 97.87    1301.00      36.07
 97.97    1350.00      36.74
 98.07    1238.00      35.19
 98.17    1199.00      34.63
 98.27    1055.00      32.48
 98.37    1073.00      32.76
 98.47     985.27      31.39
 98.57     915.00      30.25
 98.67     853.00      29.21
 98.77     799.00      28.27
 98.87     758.74      27.55
 98.97     786.00      28.04
 99.07     831.00      28.83
 99.17     845.00      29.07
 99.27     900.00      30.00
 99.37     918.00      30.30
 99.47     993.00      31.51
 99.57    1077.00      32.82
 99.67    1162.00      34.09
 99.77    1313.00      36.24
 99.87    1372.42      37.05
 99.97    1547.12      39.33
100.07    1641.00      40.51
100.17    1726.00      41.55
100.27    1866.00      43.20
100.37    2015.00      44.89
100.47    2094.00      45.76
100.57    2089.00      45.71
100.67    2055.00      45.33
100.77    2095.00      45.77
100.87    2043.16      45.20
100.97    2105.73      45.89
101.07    1951.00      44.17
101.17    1818.43      42.64
101.27    1857.87      43.10
101.37    1655.67      40.69
101.47    1583.00      39.79
101.57    1540.00      39.24
101.67    1409.00      37.54
101.77    1335.00      36.54
101.87    1251.41      35.38
101.97    1276.00      35.72
102.07    1242.00      35.24
102.17    1181.09      34.37
102.27    1160.00      34.06
102.37    1126.00      33.56
102.47    1122.87      33.51
102.57    1102.00      33.20
102.67    1067.00      32.66
102.77    1029.00      32.08
102.87     996.49      31.57
102.97     921.00      30.35
103.07     935.18      30.58
103.17     921.12      30.35
103.27     882.76      29.71
103.37     787.00      28.05
103.47     751.31      27.41
103.57     725.00      26.93
103.67     732.00      27.06
103.77     680.00      26.08
103.87     680.75      26.09
103.97     604.92      24.60
104.07     624.00      24.98
104.17     587.00      24.23
104.27     545.36      23.35
104.37     576.00      24.00
104.47     564.19      23.75
104.57     577.02      24.02
104.67     505.76      22.49
104.77     539.00      23.22
104.87     544.00      23.32
104.97     549.14      23.43
105.07     520.00      22.80
105.17     562.12      23.71
105.27     558.00      23.62
105.37     541.44      23.27
105.47     521.11      22.83
105.57     560.00      23.66
105.67     530.63      23.04
105.77     568.61      23.85
105.87     583.68      24.16
105.97     566.10      23.79
106.07     555.00      23.56
106.17     595.00      24.39
106.27     592.00      24.33
106.37     585.00      24.19
106.47     581.00      24.10
106.57     577.00      24.02
106.67     663.39      25.76
106.77     612.00      24.74
106.87     645.55      25.41
106.97     724.96      26.93
107.07     711.17      26.67
107.17     681.56      26.11
107.27     671.00      25.90
107.37     668.23      25.85
107.47     702.93      26.51
107.57     688.00      26.23
107.67     661.06      25.71
107.77     657.60      25.64
107.87     713.44      26.71
107.97     669.00      25.87
108.07     674.00      25.96
108.17     748.12      27.35
108.27     699.00      26.44
108.37     642.00      25.34
108.47     736.63      27.14
108.57     703.94      26.53
108.67     660.00      25.69
108.77     768.00      27.71
108.87     717.44      26.79
108.97     721.01      26.85
109.07     645.00      25.40
109.17     649.00      25.48
109.27     703.92      26.53
109.37     624.00      24.98
109.47     672.57      25.93
109.57     627.22      25.04
109.67     656.28      25.62
109.77     612.00      24.74
109.87     581.76      24.12
109.97     615.00      24.80
110.07     583.29      24.15
110.17     592.06      24.33
110.27     584.00      24.17
110.37     604.00      24.58
110.47     594.33      24.38
110.57     561.70      23.70
110.67     512.15      22.63
110.77     575.00      23.98
110.87     512.80      22.65
110.97     536.00      23.15
111.07     552.07      23.50
111.17     500.00      22.36
111.27     526.08      22.94
111.37     513.12      22.65
111.47     567.00      23.81
111.57     517.85      22.76
111.67     548.00      23.41
111.77     584.57      24.18
111.87     569.00      23.85
111.97     554.00      23.54
112.07     611.64      24.73
112.17     558.00      23.62
112.27     595.00      24.39
112.37     602.00      24.54
112.47     598.00      24.45
112.57     581.00      24.10
112.67     585.00      24.19
112.77     658.00      25.65
112.87     702.03      26.50
112.97     649.00      25.48
113.07     675.00      25.98
113.17     674.84      25.98
113.27     697.00      26.40
113.37     791.86      28.14
113.47     794.00      28.18
113.57     815.00      28.55
113.67     875.00      29.58
113.77     936.82      30.61
113.87     941.00      30.68
113.97     979.56      31.30
114.07     984.81      31.38
114.17    1083.00      32.91
114.27    1072.00      32.74
114.37    1188.00      34.47
114.47    1270.84      35.65
114.57    1393.00      37.32
114.67    1584.63      39.81
114.77    1640.14      40.50
114.87    1893.00      43.51
114.97    2132.00      46.17
115.07    2305.00      48.01
115.17    2540.00      50.40
115.27    2835.00      53.24
115.37    3124.00      55.89
115.47    3415.00      58.44
115.57    3705.00      60.87
115.67    4108.00      64.09
115.77    4441.00      66.64
115.87    4826.16      69.47
115.97    5433.76      73.71
116.07    5764.45      75.92
116.17    5955.81      77.17
116.27    6284.30      79.27
116.37    6480.00      80.50
116.47    6606.21      81.28
116.57    6996.03      83.64
116.67    6930.00      83.25
116.77    6997.00      83.65
116.87    6878.00      82.93
116.97    6626.00      81.40
117.07    6456.00      80.35
117.17    6174.00      78.57
117.27    5592.00      74.78
117.37    5374.80      73.31
117.47    4924.00      70.17
117.57    4665.71      68.31
117.67    4364.00      66.06
117.77    3950.00      62.85
117.87    3557.40      59.64
117.97    3224.00      56.78
118.07    2864.09      53.52
118.17    2483.87      49.84
118.27    2193.06      46.83
118.37    1978.73      44.48
118.47    1727.00      41.56
118.57    1552.53      39.40
118.67    1367.95      36.99
118.77    1209.00      34.77
118.87    1179.00      34.34
118.97    1048.33      32.38
119.07     926.71      30.44
119.17     936.00      30.59
119.27     822.00      28.67
119.37     786.99      28.05
119.47     744.00      27.28
119.57     693.00      26.32
119.67     634.89      25.20
119.77     649.74      25.49
119.87     671.20      25.91
119.97     665.36      25.79
120.07     584.00      24.17
120.17     576.97      24.02
120.27     558.00      23.62
120.37     571.00      23.90
120.47     570.00      23.87
120.57     591.06      24.31
120.67     577.00      24.02
120.77     523.22      22.87
120.87     571.00      23.90
120.97     552.00      23.49
121.07     581.00      24.10
121.17     612.00      24.74
121.27     518.00      22.76
121.37     590.34      24.30
121.47     621.14      24.92
121.57     576.00      24.00
121.67     591.00      24.31
121.77     562.35      23.71
121.87     565.03      23.77
121.97     612.00      24.74
122.07     634.00      25.18
122.17     597.00      24.43
122.27     620.68      24.91
122.37     621.43      24.93
122.47     663.00      25.75
122.57     700.00      26.46
122.67     640.00      25.30
122.77     639.00      25.28
122.87     681.00      26.10
122.97     633.69      25.17
123.07     628.00      25.06
123.17     650.00      25.50
123.27     645.00      25.40
123.37     580.00      24.08
123.47     673.00      25.94
123.57     639.00      25.28
123.67     657.22      25.64
123.77     628.00      25.06
123.87     641.00      25.32
123.97     569.54      23.86
124.07     628.00      25.06
124.17     594.00      24.37
124.27     581.08      24.11
124.37     546.00      23.37
124.47     588.00      24.25
124.57     543.61      23.32
124.67     567.96      23.83
124.77     582.00      24.12
124.87     553.00      23.52
124.97     557.00      23.60
