  9.97     602.00      24.54
 10.07     597.00      24.43
 10.17     555.01      23.56
 10.27     596.39      24.42
 10.37     609.00      24.68
 10.47     537.69      23.19
 10.57     608.63      24.67
 10.67     595.00      24.39
 10.77     588.00      24.25
 10.87     585.00      24.19
 10.97     560.00      23.66
 11.07     603.00      24.56
 11.17     561.00      23.69
 11.27     552.00      23.49
 11.37     596.00      24.41
 11.47     584.00      24.17
 11.57     557.00      23.60
 11.67     544.69      23.34
 11.77     714.00      26.72
 11.87     670.00      25.88
 11.97     654.00      25.57
 12.07     624.60      24.99
 12.17     718.00      26.80
 12.27     673.00      25.94
 12.37     728.43      26.99
 12.47     658.00      25.65
 12.57     570.71      23.89
 12.67     624.30      24.99
 12.77     608.12      24.66
 12.87     594.00      24.37
 12.97     556.00      23.58
 13.07     543.23      23.31
 13.17     551.00      23.47
 13.27     565.00      23.77
 13.37     591.00      24.31
 13.47     555.00      23.56
 13.57     586.27      24.21
 13.67     530.00      23.02
 13.77     571.00      23.90
 13.87     557.92      23.62
 13.97     560.00      23.66
 14.07     554.90      23.56
 14.17     612.73      24.75
 14.27     545.00      23.35
 14.37     535.00      23.13
 14.47     557.00      23.60
 14.57     595.00      24.39
 14.67     561.00      23.69
 14.77     562.00      23.71
 14.87     600.00      24.49
 14.97     550.00      23.45
 15.07     555.00      23.56
 15.17     579.00      24.06
 15.27     615.50      24.81
 15.37     594.03      24.37
 15.47     556.00      23.58
 15.57     596.07      24.41
 15.67     548.00      23.41
 15.77     520.00      22.80
 15.87     588.54      24.26
 15.97     566.00      23.79
 16.07     616.01      24.82
 16.17     601.00      24.52
 16.27     519.00      22.78
 16.37     584.00      24.17
 16.47     543.00      23.30
 16.57     522.00      22.85
 16.67     533.00      23.09
 16.77     527.21      22.96
 16.87     601.00      24.52
 16.97     579.00      24.06
 17.07     589.00      24.27
 17.17     577.00      24.02
 17.27     612.67      24.75
 17.37     523.00      22.87
 17.47     540.00      23.24
 17.57     534.38      23.12
 17.67     575.00      23.98
 17.77     570.00      23.87
 17.87     521.19      22.83
 17.97     536.80      23.17
 18.07     578.00      24.04
 18.17     599.00      24.47
 18.27     567.00      23.81
 18.37     594.39      24.38
 18.47     544.00      23.32
 18.57     577.00      24.02
 18.67     602.64      24.55
 18.77     609.00      24.68
 18.87     569.00      23.85
 18.97     524.09      22.89
 19.07     545.00      23.35
 19.17     564.00      23.75
 19.27     533.49      23.10
 19.37     576.00      24.00
 19.47     573.00      23.94
 19.57     542.00      23.28
 19.67     513.00      22.65
 19.77     598.64      24.47
 19.87     561.00      23.69
 19.97     556.00      23.58
 20.07     543.00      23.30
 20.17     568.88      23.85
 20.27     575.00      23.98
 20.37     524.14      22.89
 20.47     527.84      22.97
 20.57     551.44      23.48
 20.67     548.00      23.41
 20.77     585.73      24.20
 20.87     540.00      23.24
 20.97     558.00      23.62
 21.07     552.00      23.49
 21.17     556.00      23.58
 21.27     607.00      24.64
 21.37     567.73      23.83
 21.47     549.00      23.43
 21.57     562.86      23.72
 21.67     542.00      23.28
 21.77     582.00      24.12
 21.87     507.69      22.53
 21.97     579.00      24.06
 22.07     564.00      23.75
 22.17     539.00      23.22
 22.27     580.00      24.08
 22.37     521.00      22.83
 22.47     512.39      22.64
 22.57     564.00      23.75
 22.67     542.71      23.30
 22.77     588.00      24.25
 22.87     513.04      22.65
 22.97     527.24      22.96
 23.07     564.00      23.75
 23.17     529.83      23.02
 23.27     547.00      23.39
 23.37     573.66      23.95
 23.47     515.53      22.71
 23.57     567.00      23.81
 23.67     566.00      23.79
 23.77     594.59      24.38
 23.87     545.77      23.36
 23.97     484.00      22.00
 24.07     579.58      24.07
 24.17     524.51      22.90
 24.27     571.07      23.90
 24.37     583.00      24.15
 24.47     597.00      24.43
 24.57     592.00      24.33
 24.67     597.35      24.44
 24.77     625.00      25.00
 24.87     614.72      24.79
 24.97     599.00      24.47
 25.07     603.00      24.56
 25.17     549.79      23.45
 25.27     540.00      23.24
 25.37     560.00      23.66
 25.47     590.00      24.29
 25.57     568.00      23.83
 25.67     541.00      23.26
 25.77     586.00      24.21
 25.87     547.00      23.39
 25.97     552.00      23.49
 26.07     568.70      23.85
 26.17     530.00      23.02
 26.27     541.37      23.27
 26.37     567.30      23.82
 26.47     567.00      23.81
 26.57     531.00      23.04
 26.67     546.00      23.37
 26.77     538.00      23.19
 26.87     501.26      22.39
 26.97     596.00      24.41
 27.07     565.00      23.77
 27.17     571.00      23.90
 27.27     562.00      23.71
 27.37     537.64      23.19
 27.47     588.00      24.25
 27.57     532.49      23.08
 27.67     547.00      23.39
 27.77     534.00      23.11
 27.87     602.70      24.55
 27.97     675.00      25.98
 28.07     742.00      27.24
 28.17     891.00      29.85
 28.27     956.51      30.93
 28.37     893.00      29.88
 28.47     810.00      28.46
 28.57     709.00      26.63
 28.67     703.00      26.51
 28.77     709.98      26.65
 28.87     832.86      28.86
 28.97     753.00      27.44
 29.07     827.93      28.77
 29.17     727.00      26.96
 29.27     636.00      25.22
 29.37     573.64      23.95
 29.47     626.57      25.03
 29.57     577.00      24.02
 29.67     588.00      24.25
 29.77     611.00      24.72
 29.87     576.00      24.00
 29.97     537.81      23.19
 30.07     562.00      23.71
 30.17     572.00      23.92
 30.27     540.00      23.24
 30.37     537.00      23.17
 30.47     572.99      23.94
 30.57     596.80      24.43
 30.67     561.00      23.69
 30.77     613.00      24.76
 30.87     616.00      24.82
 30.97     625.00      25.00
 31.07     637.00      25.24
 31.17     543.00      23.30
 31.27     558.00      23.62
 31.37     568.09      23.83
 31.47     539.53      23.23
 31.57     517.65      22.75
 31.67     517.05      22.74
 31.77     554.00      23.54
 31.87     538.00      23.19
 31.97     525.61      22.93
 32.07     560.00      23.66
 32.17     563.00      23.73
 32.27     522.00      22.85
 32.37     531.00      23.04
 32.47     509.08      22.56
 32.57     539.00      23.22
 32.67     575.00      23.98
 32.77     505.86      22.49
 32.87     564.00      23.75
 32.97     562.00      23.71
 33.07     504.63      22.46
 33.17     557.31      23.61
 33.27     584.00      24.17
 33.37     573.00      23.94
 33.47     572.00      23.92
 33.57     583.00      24.15
 33.67     605.69      24.61
 33.77     775.13      27.84
 33.87     906.06      30.10
 33.97    1017.00      31.89
 34.07    1032.00      32.12
 34.17    1012.97      31.83
 34.27     844.00      29.05
 34.37     706.56      26.58
 34.47     622.00      24.94
 34.57     585.00      24.19
 34.67     578.00      24.04
 34.77     559.00      23.64
 34.87     531.00      23.04
 34.97     499.00      22.34
 35.07     546.63      23.38
 35.17     509.11      22.56
 35.27     515.00      22.69
 35.37     534.00      23.11
 35.47     501.00      22.38
 35.57     559.00      23.64
 35.67     533.18      23.09
 35.77     533.00      23.09
 35.87     473.02      21.75
 35.97     517.00      22.74
 36.07     481.22      21.94
 36.17     539.00      23.22
 36.27     511.00      22.61
 36.37     501.00      22.38
 36.47     562.00      23.71
 36.57     512.00      22.63
 36.67     495.00      22.25
 36.77     514.00      22.67
 36.87     547.84      23.41
 36.97     546.00      23.37
 37.07     551.95      23.49
 37.17     518.00      22.76
 37.27     507.00      22.52
 37.37     497.00      22.29
 37.47     497.00      22.29
 37.57     521.74      22.84
 37.67     530.00      23.02
 37.77     542.00      23.28
 37.87     487.00      22.07
 37.97     529.00      23.00
 38.07     506.00      22.49
 38.17     525.00      22.91
 38.27     490.16      22.14
 38.37     530.33      23.03
 38.47     490.62      22.15
 38.57     540.14      23.24
 38.67     512.00      22.63
 38.77     486.00      22.05
 38.87     541.62      23.27
 38.97     516.16      22.72
 39.07     454.00      21.31
 39.17     535.58      23.14
 39.27     510.00      22.58
 39.37     537.00      23.17
 39.47     531.26      23.05
 39.57     513.26      22.66
 39.67     534.16      23.11
 39.77     531.02      23.04
 39.87     539.09      23.22
 39.97     530.15      23.03
 40.07     485.00      22.02
 40.17     505.00      22.47
 40.27     490.00      22.14
 40.37     489.00      22.11
 40.47     494.00      22.23
 40.57     494.00      22.23
 40.67     534.43      23.12
 40.77     477.00      21.84
 40.87     473.90      21.77
 40.97     456.00      21.35
 41.07     512.00      22.63
 41.17     487.00      22.07
 41.27     503.00      22.43
 41.37     502.00      22.41
 41.47     504.00      22.45
 41.57     519.39      22.79
 41.67     492.09      22.18
 41.77     550.11      23.45
 41.87     536.75      23.17
 41.97     530.02      23.02
 42.07     557.46      23.61
 42.17     538.00      23.19
 42.27     507.00      22.52
 42.37     530.00      23.02
 42.47     585.00      24.19
 42.57     580.00      24.08
 42.67     566.00      23.79
 42.77     534.00      23.11
 42.87     613.64      24.77
 42.97     560.01      23.66
 43.07     527.00      22.96
 43.17     530.00      23.02
 43.27     553.00      23.52
 43.37     500.00      22.36
 43.47     482.79      21.97
 43.57     506.00      22.49
 43.67     473.24      21.75
 43.77     482.62      21.97
 43.87     501.31      22.39
 43.97     509.87      22.58
 44.07     535.00      23.13
 44.17     517.99      22.76
 44.27     531.00      23.04
 44.37     524.00      22.89
 44.47     545.62      23.36
 44.57     479.00      21.89
 44.67     521.00      22.83
 44.77     524.00      22.89
 44.87     533.00      23.09
 44.97     472.24      21.73
 45.07     532.00      23.07
 45.17     540.00      23.24
 45.27     519.00      22.78
 45.37     471.49      21.71
 45.47     498.00      22.32
 45.57     473.00      21.75
 45.67     512.00      22.63
 45.77     510.00      22.58
 45.87     511.00      22.61
 45.97     515.00      22.69
 46.07     534.60      23.12
 46.17     474.84      21.79
 46.27     487.00      22.07
 46.37     464.00      21.54
 46.47     533.00      23.09
 46.57     533.78      23.10
 46.67     479.00      21.89
 46.77     551.13      23.48
 46.87     464.95      21.56
 46.97     526.29      22.94
 47.07     494.15      22.23
 47.17     520.00      22.80
 47.27     487.06      22.07
 47.37     518.00      22.76
 47.47     559.57      23.66
 47.57     541.16      23.26
 47.67     565.00      23.77
 47.77     538.00      23.19
 47.87     541.71      23.27
 47.97     597.98      24.45
 48.07     622.00      24.94
 48.17     571.00      23.90
 48.27     559.00      23.64
 48.37     525.00      22.91
 48.47     535.00      23.13
 48.57     507.00      22.52
 48.67     484.40      22.01
 48.77     545.34      23.35
 48.87     538.00      23.19
 48.97     513.81      22.67
 49.07     579.00      24.06
 49.17     567.75      23.83
 49.27     630.00      25.10
 49.37     697.48      26.41
 49.47     686.23      26.20
 49.57     818.00      28.60
 49.67     906.00      30.10
 49.77    1171.06      34.22
 49.87    1362.00      36.91
 49.97    1848.00      42.99
 50.07    2306.31      48.02
 50.17    2452.22      49.52
 50.27    2429.89      49.29
 50.37    2279.47      47.74
 50.47    1893.00      43.51
 50.57    1511.68      38.88
 50.67    1101.00      33.18
 50.77     860.84      29.34
 50.87     698.00      26.42
 50.97     684.00      26.15
 51.07     660.50      25.70
 51.17     620.00      24.90
 51.27     600.00      24.49
 51.37     627.73      25.05
 51.47     567.00      23.81
 51.57     589.00      24.27
 51.67     550.02      23.45
 51.77     572.31      23.92
 51.87     523.46      22.88
 51.97     549.94      23.45
 52.07     522.00      22.85
 52.17     501.26      22.39
 52.27     557.00      23.60
 52.37     596.00      24.41
 52.47     513.00      22.65
 52.57     560.00      23.66
 52.67     604.00      24.58
 52.77     613.00      24.76
 52.87     638.70      25.27
 52.97     694.00      26.34
 53.07     846.00      29.09
 53.17     992.00      31.50
 53.27    1034.00      32.16
 53.37    1140.00      33.76
 53.47    1204.00      34.70
 53.57    1185.00      34.42
 53.67    1054.00      32.47
 53.77    1045.78      32.34
 53.87     903.99      30.07
 53.97     746.00      27.31
 54.07     668.00      25.85
 54.17     591.00      24.31
 54.27     583.00      24.15
 54.37     534.00      23.11
 54.47     549.00      23.43
 54.57     573.16      23.94
 54.67     592.00      24.33
 54.77     522.97      22.87
 54.87     570.00      23.87
 54.97     578.39      24.05
 55.07     545.63      23.36
 55.17     515.23      22.70
 55.27     604.00      24.58
 55.37     625.00      25.00
 55.47     533.00      23.09
 55.57     543.00      23.30
 55.67     557.00      23.60
 55.77     605.00      24.60
 55.87     572.00      23.92
 55.97     664.00      25.77
 56.07     656.14      25.62
 56.17     699.00      26.44
 56.27     868.00      29.46
 56.37    1133.48      33.67
 56.47    1421.00      37.70
 56.57    1773.00      42.11
 56.67    2121.15      46.06
 56.77    2449.00      49.49
 56.87    2736.00      52.31
 56.97    2637.32      51.35
 57.07    2382.00      48.81
 57.17    2113.00      45.97
 57.27    1632.00      40.40
 57.37    1304.00      36.11
 57.47    1052.94      32.45
 57.57     863.00      29.38
 57.67     784.69      28.01
 57.77     735.00      27.11
 57.87     671.00      25.90
 57.97     646.76      25.43
 58.07     677.00      26.02
 58.17     727.00      26.96
 58.27     790.58      28.12
 58.37     904.58      30.08
 58.47     922.00      30.36
 58.57    1071.00      32.73
 58.67    1166.00      34.15
 58.77    1394.00      37.34
 58.87    1436.00      37.89
 58.97    1480.14      38.47
 59.07    1488.23      38.58
 59.17    1577.34      39.72
 59.27    1525.00      39.05
 59.37    1307.65      36.16
 59.47    1178.00      34.32
 59.57    1166.39      34.15
 59.67    1153.67      33.97
 59.77    1119.00      33.45
 59.87    1111.65      33.34
 59.97    1332.00      36.50
 60.07    1428.00      37.79
 60.17    1463.92      38.26
 60.27    1588.37      39.85
 60.37    1576.00      39.70
 60.47    1392.00      37.31
 60.57    1290.00      35.92
 60.67    1052.00      32.43
 60.77     932.66      30.54
 60.87     790.18      28.11
 60.97     715.11      26.74
 61.07     679.00      26.06
 61.17     592.01      24.33
 61.27     656.00      25.61
 61.37     627.00      25.04
 61.47     682.00      26.12
 61.57     709.00      26.63
 61.67     817.00      28.58
 61.77     927.00      30.45
 61.87    1078.00      32.83
 61.97    1197.00      34.60
 62.07    1310.00      36.19
 62.17    1458.00      38.18
 62.27    1390.94      37.30
 62.37    1310.00      36.19
 62.47    1230.00      35.07
 62.57    1006.00      31.72
 62.67     903.00      30.05
 62.77     747.25      27.34
 62.87     674.00      25.96
 62.97     623.00      24.96
 63.07     649.65      25.49
 63.17     586.00      24.21
 63.27     529.00      23.00
 63.37     579.00      24.06
 63.47     548.59      23.42
 63.57     570.00      23.87
 63.67     549.24      23.44
 63.77     605.65      24.61
 63.87     577.00      24.02
 63.97     636.00      25.22
 64.07     671.00      25.90
 64.17     805.24      28.38
 64.27     784.30      28.01
 64.37     892.96      29.88
 64.47     896.48      29.94
 64.57     993.18      31.51
 64.67     999.00      31.61
 64.77    1037.00      32.20
 64.87     996.92      31.57
 64.97     977.00      31.26
 65.07     870.00      29.50
 65.17     766.00      27.68
 65.27     722.00      26.87
 65.37     674.00      25.96
 65.47     664.85      25.78
 65.57     583.53      24.16
 65.67     641.00      25.32
 65.77     556.00      23.58
 65.87     553.00      23.52
 65.97     592.00      24.33
 66.07     527.00      22.96
 66.17     528.00      22.98
 66.27     541.00      23.26
 66.37     550.72      23.47
 66.47     542.00      23.28
 66.57     593.12      24.35
 66.67     548.00      23.41
 66.77     613.00      24.76
 66.87     544.00      23.32
 66.97     618.03      24.86
 67.07     662.00      25.73
 67.17     702.00      26.50
 67.27     807.00      28.41
 67.37     861.47      29.35
 67.47    1040.00      32.25
 67.57    1333.11      36.51
 67.67    1499.00      38.72
 67.77    1878.56      43.34
 67.87    2099.00      45.81
 67.97    2261.37      47.55
 68.07    2442.00      49.42
 68.17    2323.02      48.20
 68.27    2275.90      47.71
 68.37    2136.40      46.22
 68.47    1813.56      42.59
 68.57    1446.16      38.03
 68.67    1231.00      35.09
 68.77    1097.00      33.12
 68.87     923.52      30.39
 68.97     820.83      28.65
 69.07     659.00      25.67
 69.17     680.00      26.08
 69.27     616.30      24.83
 69.37     574.00      23.96
 69.47     627.00      25.04
 69.57     606.00      24.62
 69.67     531.00      23.04
 69.77     531.78      23.06
 69.87     578.00      24.04
 69.97     603.67      24.57
 70.07     605.00      24.60
 70.17     547.49      23.40
 70.27     544.00      23.32
 70.37     571.00      23.90
 70.47     577.00      24.02
 70.57     564.00      23.75
 70.67     631.00      25.12
 70.77     575.00      23.98
 70.87     633.95      25.18
 70.97     602.00      24.54
 71.07     669.37      25.87
 71.17     759.00      27.55
 71.27     806.00      28.39
 71.37     881.58      29.69
 71.47    1133.38      33.67
 71.57    1199.00      34.63
 71.67    1459.00      38.20
 71.77    1596.00      39.95
 71.87    1721.48      41.49
 71.97    1924.00      43.86
 72.07    1830.01      42.78
 72.17    1899.61      43.58
 72.27    1795.00      42.37
 72.37    1559.10      39.49
 72.47    1554.94      39.43
 72.57    1396.00      37.36
 72.67    1195.85      34.58
 72.77    1092.24      33.05
 72.87    1019.81      31.93
 72.97     952.37      30.86
 73.07     852.00      29.19
 73.17     765.00      27.66
 73.27     673.00      25.94
 73.37     733.24      27.08
 73.47     722.15      26.87
 73.57     609.83      24.69
 73.67     597.55      24.44
 73.77     617.96      24.86
 73.87     584.00      24.17
 73.97     602.97      24.56
 74.07     556.00      23.58
 74.17     617.00      24.84
 74.27     620.00      24.90
 74.37     670.00      25.88
 74.47     638.00      25.26
 74.57     619.00      24.88
 74.67     669.00      25.87
 74.77     604.00      24.58
 74.87     583.00      24.15
 74.97     536.07      23.15
 75.07     576.00      24.00
 75.17     588.12      24.25
 75.27     582.00      24.12
 75.37     555.00      23.56
 75.47     566.00      23.79
 75.57     560.00      23.66
 75.67     533.00      23.09
 75.77     652.00      25.53
 75.87     588.00      24.25
 75.97     622.00      24.94
 76.07     607.00      24.64
 76.17     665.19      25.79
 76.27     676.88      26.02
 76.37     711.00      26.66
 76.47     726.00      26.94
 76.57     717.00      26.78
 76.67     712.00      26.68
 76.77     688.23      26.23
 76.87     668.00      25.85
 76.97     660.40      25.70
 77.07     630.00      25.10
 77.17     611.00      24.72
 77.27     537.00      23.17
 77.37     582.33      24.13
 77.47     546.00      23.37
 77.57     543.00      23.30
 77.67     564.00      23.75
 77.77     540.00      23.24
 77.87     550.00      23.45
 77.97     518.00      22.76
 78.07     554.00      23.54
 78.17     550.92      23.47
 78.27     512.97      22.65
 78.37     566.13      23.79
 78.47     518.70      22.77
 78.57     551.19      23.48
 78.67     513.00      22.65
 78.77     558.49      23.63
 78.87     539.00      23.22
 78.97     542.28      23.29
 79.07     539.00      23.22
 79.17     514.00      22.67
 79.27     550.00      23.45
 79.37     555.00      23.56
 79.47     534.00      23.11
 79.57     538.00      23.19
 79.67     520.01      22.80
 79.77     585.64      24.20
 79.87     558.00      23.62
 79.97     531.00      23.04
 80.07     540.00      23.24
 80.17     504.00      22.45
 80.27     562.18      23.71
 80.37     586.00      24.21
 80.47     599.91      24.49
 80.57     656.28      25.62
 80.67     583.00      24.15
 80.77     627.00      25.04
 80.87     721.12      26.85
 80.97     717.00      26.78
 81.07     709.78      26.64
 81.17     696.48      26.39
 81.27     751.00      27.40
 81.37     710.60      26.66
 81.47     731.00      27.04
 81.57     764.56      27.65
 81.67     762.00      27.60
 81.77     754.00      27.46
 81.87     674.41      25.97
 81.97     637.34      25.25
 82.07     683.00      26.13
 82.17     648.00      25.46
 82.27     649.00      25.48
 82.37     603.00      24.56
 82.47     575.00      23.98
 82.57     604.49      24.59
 82.67     534.00      23.11
 82.77     559.00      23.64
 82.87     556.00      23.58
 82.97     532.35      23.07
 83.07     567.00      23.81
 83.17     579.00      24.06
 83.27     531.41      23.05
 83.37     510.75      22.60
 83.47     536.56      23.16
 83.57     540.00      23.24
 83.67     601.41      24.52
 83.77     582.00      24.12
 83.87     583.50      24.16
 83.97     579.00      24.06
 84.07     554.00      23.54
 84.17     579.00      24.06
 84.27     571.00      23.90
 84.37     552.00      23.49
 84.47     530.00      23.02
 84.57     581.06      24.11
 84.67     556.00      23.58
 84.77     535.00      23.13
 84.87     533.00      23.09
 84.97     563.03      23.73
 85.07     521.00      22.83
 85.17     538.00      23.19
 85.27     523.00      22.87
 85.37     521.96      22.85
 85.47     513.00      22.65
 85.57     544.00      23.32
 85.67     500.00      22.36
 85.77     501.00      22.38
 85.87     543.00      23.30
 85.97     508.00      22.54
 86.07     587.00      24.23
 86.17     548.31      23.42
 86.27     581.00      24.10
 86.37     516.00      22.72
 86.47     555.00      23.56
 86.57     592.43      24.34
 86.67     555.00      23.56
 86.77     612.00      24.74
 86.87     566.00      23.79
 86.97     646.11      25.42
 87.07     625.00      25.00
 87.17     617.66      24.85
 87.27     613.00      24.76
 87.37     638.00      25.26
 87.47     631.00      25.12
 87.57     662.90      25.75
 87.67     623.13      24.96
 87.77     629.00      25.08
 87.87     625.00      25.00
 87.97     619.00      24.88
 88.07     639.83      25.29
 88.17     588.00      24.25
 88.27     535.12      23.13
 88.37     563.00      23.73
 88.47     532.88      23.08
 88.57     594.27      24.38
 88.67     579.78      24.08
 88.77     616.99      24.84
 88.87     556.72      23.59
 88.97     617.00      24.84
 89.07     607.00      24.64
 89.17     598.00      24.45
 89.27     574.54      23.97
 89.37     599.00      24.47
 89.47     620.00      24.90
 89.57     586.00      24.21
 89.67     604.26      24.58
 89.77     568.20      23.84
 89.87     591.38      24.32
 89.97     540.99      23.26
 90.07     533.00      23.09
 90.17     553.98      23.54
 90.27     544.00      23.32
 90.37     512.00      22.63
 90.47     538.00      23.19
 90.57     561.00      23.69
 90.67     541.99      23.28
 90.77     521.00      22.83
 90.87     496.00      22.27
 90.97     494.83      22.24
 91.07     527.00      22.96
 91.17     512.00      22.63
 91.27     513.73      22.67
 91.37     532.67      23.08
 91.47     492.13      22.18
 91.57     503.00      22.43
 91.67     525.00      22.91
 91.77     541.00      23.26
 91.87     572.61      23.93
 91.97     552.00      23.49
 92.07     581.72      24.12
 92.17     612.00      24.74
 92.27     611.00      24.72
 92.37     605.73      24.61
 92.47     644.83      25.39
 92.57     625.00      25.00
 92.67     643.53      25.37
 92.77     702.00      26.50
 92.87     750.43      27.39
 92.97     732.00      27.06
 93.07     795.24      28.20
 93.17     800.00      28.28
 93.27     838.00      28.95
 93.37     839.68      28.98
 93.47     846.00      29.09
 93.57     789.00      28.09
 93.67     863.00      29.38
 93.77     823.00      28.69
 93.87     867.23      29.45
 93.97     822.61      28.68
 94.07     811.36      28.48
 94.17     854.00      29.22
 94.27     845.00      29.07
 94.37     877.00      29.61
 94.47     910.00      30.17
 94.57     846.45      29.09
 94.67     829.43      28.80
 94.77     906.00      30.10
 94.87     838.55      28.96
 94.97     904.00      30.07
 95.07     905.00      30.08
 95.17     835.13      28.90
 95.27     856.00      29.26
 95.37     811.00      28.48
 95.47     798.00      28.25
 95.57     707.95      26.61
 95.67     721.00      26.85
 95.77     692.79      26.32
 95.87     682.39      26.12
 95.97     727.00      26.96
 96.07     641.00      25.32
 96.17     674.00      25.96
 96.27     711.00      26.66
 96.37     806.24      28.39
 96.47     804.00      28.35
 96.57     861.00      29.34
 96.67     925.00      30.41
 96.77     994.00      31.53
 96.87    1047.00      32.36
 96.97    1157.00      34.01
 97.07    1189.84      34.49
 97.17    1273.00      35.68
 97.27    1279.93      35.78
 97.37    1366.34      36.96
 97.47    1526.00      39.06
 97.57    1447.00      38.04
 97.67    1443.00      37.99
 97.77    1410.32      37.55
 97.87    1331.00      36.48
 97.97    1386.00      37.23
 98.07    1216.00      34.87
 98.17    1119.00      33.45
 98.27    1009.91      31.78
 98.37     975.00      31.22
 98.47     947.00      30.77
 98.57     906.00      30.10
 98.67     888.97      29.82
 98.77     857.55      29.28
 98.87     827.00      28.76
 98.97     798.99      28.27
 99.07     767.62      27.71
 99.17     841.00      29.00
 99.27     882.00      29.70
 99.37     885.44      29.76
 99.47     983.00      31.35
 99.57    1035.00      32.17
 99.67    1189.02      34.48
 99.77    1285.00      35.85
 99.87    1432.00      37.84
 99.97    1485.30      38.54
100.07    1690.08      41.11
100.17    1739.00      41.70
100.27    1921.00      43.83
100.37    1835.17      42.84
100.47    2011.00      44.84
100.57    2030.53      45.06
100.67    2181.00      46.70
100.77    2065.41      45.45
100.87    2006.42      44.79
100.97    1989.30      44.60
101.07    2059.81      45.39
101.17    1948.53      44.14
101.27    1838.00      42.87
101.37    1745.89      41.78
101.47    1590.32      39.88
101.57    1488.00      38.57
101.67    1368.36      36.99
101.77    1366.00      36.96
101.87    1258.74      35.48
101.97    1196.63      34.59
102.07    1254.40      35.42
102.17    1184.37      34.41
102.27    1121.00      33.48
102.37    1059.07      32.54
102.47    1086.00      32.95
102.57    1116.89      33.42
102.67     988.00      31.43
102.77     972.51      31.19
102.87     941.23      30.68
102.97     945.00      30.74
103.07     911.92      30.20
103.17     867.00      29.44
103.27     813.00      28.51
103.37     813.00      28.51
103.47     824.00      28.71
103.57     742.00      27.24
103.67     690.00      26.27
103.77     660.00      25.69
103.87     664.00      25.77
103.97     653.00      25.55
104.07     593.00      24.35
104.17     610.00      24.70
104.27     560.00      23.66
104.37     571.00      23.90
104.47     572.41      23.93
104.57     573.00      23.94
104.67     597.00      24.43
104.77     579.00      24.06
104.87     552.90      23.51
104.97     525.00      22.91
105.07     539.00      23.22
105.17     558.07      23.62
105.27     541.00      23.26
105.37     523.00      22.87
105.47     541.38      23.27
105.57     541.29      23.27
105.67     566.00      23.79
105.77     559.00      23.64
105.87     584.00      24.17
105.97     565.00      23.77
106.07     548.95      23.43
106.17     564.00      23.75
106.27     590.00      24.29
106.37     558.00      23.62
106.47     625.00      25.00
106.57     644.00      25.38
106.67     660.43      25.70
106.77     653.13      25.56
106.87     679.00      26.06
106.97     699.73      26.45
107.07     659.00      25.67
107.17     642.00      25.34
107.27     744.90      27.29
107.37     748.20      27.35
107.47     691.01      26.29
107.57     651.00      25.51
107.67     673.00      25.94
107.77     663.00      25.75
107.87     700.36      26.46
107.97     656.00      25.61
108.07     668.00      25.85
108.17     691.00      26.29
108.27     720.00      26.83
108.37     697.00      26.40
108.47     652.00      25.53
108.57     737.38      27.15
108.67     647.00      25.44
108.77     727.00      26.96
108.87     677.00      26.02
108.97     691.00      26.29
109.07     710.00      26.65
109.17     669.19      25.87
109.27     697.00      26.40
109.37     665.00      25.79
109.47     597.00      24.43
109.57     614.42      24.79
109.67     622.00      24.94
109.77     594.00      24.37
109.87     587.00      24.23
109.97     586.00      24.21
110.07     597.00      24.43
110.17     571.00      23.90
110.27     570.77      23.89
110.37     526.89      22.95
110.47     500.22      22.37
110.57     495.21      22.25
110.67     555.00      23.56
110.77     498.83      22.33
110.87     520.07      22.80
110.97     532.00      23.07
111.07     522.00      22.85
111.17     521.84      22.84
111.27     560.00      23.66
111.37     500.16      22.36
111.47     591.00      24.31
111.57     516.00      22.72
111.67     499.00      22.34
111.77     572.82      23.93
111.87     555.00      23.56
111.97     583.33      24.15
112.07     581.08      24.11
112.17     574.00      23.96
112.27     600.00      24.49
112.37     553.07      23.52
112.47     598.00      24.45
112.57     602.38      24.54
112.67     632.00      25.14
112.77     597.00      24.43
112.87     647.00      25.44
112.97     680.00      26.08
113.07     681.00      26.10
113.17     650.00      25.50
113.27     728.00      26.98
113.37     762.93      27.62
113.47     782.00      27.96
113.57     834.00      28.88
113.67     841.60      29.01
113.77     938.45      30.63
113.87     930.00      30.50
113.97     989.00      31.45
114.07    1048.00      32.37
114.17    1153.75      33.97
114.27    1124.00      33.53
114.37    1297.95      36.03
114.47    1302.74      36.09
114.57    1505.76      38.80
114.67    1628.00      40.35
114.77    1674.22      40.92
114.87    1898.02      43.57
114.97    2092.00      45.74
115.07    2374.00      48.72
115.17    2463.00      49.63
115.27    2777.00      52.70
115.37    3122.48      55.88
115.47    3390.88      58.23
115.57    3653.00      60.44
115.67    4200.60      64.81
115.77    4380.00      66.18
115.87    4670.00      68.34
115.97    5427.40      73.67
116.07    5760.62      75.90
116.17    5856.73      76.53
116.27    6160.47      78.49
116.37    6693.00      81.81
116.47    6892.73      83.02
116.57    6808.00      82.51
116.67    6899.00      83.06
116.77    6862.11      82.84
116.87    6759.51      82.22
116.97    6649.00      81.54
117.07    6390.00      79.94
117.17    5952.36      77.15
117.27    5759.90      75.89
117.37    5460.06      73.89
117.47    4954.08      70.39
117.57    4800.00      69.28
117.67    4291.00      65.51
117.77    4002.00      63.26
117.87    3648.00      60.40
117.97    3294.00      57.39
118.07    2942.00      54.24
118.17    2551.00      50.51
118.27    2222.68      47.15
118.37    1966.95      44.35
118.47    1755.00      41.89
118.57    1548.12      39.35
118.67    1399.00      37.40
118.77    1218.19      34.90
118.87    1147.37      33.87
118.97    1079.00      32.85
119.07     951.00      30.84
119.17     821.00      28.65
119.27     801.00      28.30
119.37     774.00      27.82
119.47     680.00      26.08
119.57     710.00      26.65
119.67     708.50      26.62
119.77     644.00      25.38
119.87     645.01      25.40
119.97     608.00      24.66
120.07     649.46      25.48
120.17     615.00      24.80
120.27     601.00      24.52
120.37     606.00      24.62
120.47     614.82      24.80
120.57     548.00      23.41
120.67     606.00      24.62
120.77     615.54      24.81
120.87     550.00      23.45
120.97     592.00      24.33
121.07     549.00      23.43
121.17     578.00      24.04
121.27     613.00      24.76
121.37     612.00      24.74
121.47     591.00      24.31
121.57     597.00      24.43
121.67     605.00      24.60
121.77     532.00      23.07
121.87     554.69      23.55
121.97     623.00      24.96
122.07     596.66      24.43
122.17     621.00      24.92
122.27     570.00      23.87
122.37     619.42      24.89
122.47     626.00      25.02
122.57     590.62      24.30
122.67     550.00      23.45
122.77     650.97      25.51
122.87     678.00      26.04
122.97     661.00      25.71
123.07     661.00      25.71
123.17     656.78      25.63
123.27     606.67      24.63
123.37     694.00      26.34
123.47     654.10      25.58
123.57     647.00      25.44
123.67     610.00      24.70
123.77     654.00      25.57
123.87     636.00      25.22
123.97     653.30      25.56
124.07     626.00      25.02
124.17     618.15      24.86
124.27     642.35      25.34
124.37     589.00      24.27
124.47     611.00      24.72
124.57     555.63      23.57
124.67     606.00      24.62
124.77     606.80      24.63
124.87     597.00      24.43
124.97     588.00      24.25
