  9.97     719.11      26.82
 10.07     716.95      26.78
 10.17     681.08      26.10
 10.27     727.05      26.96
 10.37     657.46      25.64
 10.47     722.00      26.87
 10.57     684.00      26.15
 10.67     692.00      26.31
 10.77     708.00      26.61
 10.87     708.00      26.61
 10.97     724.00      26.91
 11.07     693.00      26.32
 11.17     733.00      27.07
 11.27     699.00      26.44
 11.37     690.00      26.27
 11.47     638.69      25.27
 11.57     715.13      26.74
 11.67     689.00      26.25
 11.77     791.00      28.12
 11.87     783.00      27.98
 11.97     784.00      28.00
 12.07     731.00      27.04
 12.17     800.00      28.28
 12.27     823.66      28.70
 12.37     790.00      28.11
 12.47     767.00      27.69
 12.57     731.00      27.04
 12.67     683.00      26.13
 12.77     648.00      25.46
 12.87     685.00      26.17
 12.97     702.75      26.51
 13.07     636.00      25.22
 13.17     707.00      26.59
 13.27     639.00      25.28
 13.37     637.00      25.24
 13.47     635.00      25.20
 13.57     639.00      25.28
 13.67     634.57      25.19
 13.77     632.00      25.14
 13.87     679.56      26.07
 13.97     612.00      24.74
 14.07     620.00      24.90
 14.17     641.03      25.32
 14.27     614.00      24.78
 14.37     592.00      24.33
 14.47     666.08      25.81
 14.57     626.00      25.02
 14.67     610.17      24.70
 14.77     682.67      26.13
 14.87     596.00      24.41
 14.97     651.00      25.51
 15.07     651.00      25.51
 15.17     642.00      25.34
 15.27     600.00      24.49
 15.37     665.00      25.79
 15.47     654.00      25.57
 15.57     622.00      24.94
 15.67     617.00      24.84
 15.77     619.00      24.88
 15.87     646.09      25.42
 15.97     639.00      25.28
 16.07     658.00      25.65
 16.17     624.00      24.98
 16.27     629.00      25.08
 16.37     645.00      25.40
 16.47     644.00      25.38
 16.57     668.45      25.85
 16.67     623.00      24.96
 16.77     590.00      24.29
 16.87     599.29      24.48
 16.97     621.00      24.92
 17.07     623.00      24.96
 17.17     624.00      24.98
 17.27     653.00      25.55
 17.37     615.00      24.80
 17.47     673.45      25.95
 17.57     623.00      24.96
 17.67     652.92      25.55
 17.77     580.00      24.08
 17.87     618.00      24.86
 17.97     623.00      24.96
 18.07     641.00      25.32
 18.17     592.31      24.34
 18.27     629.00      25.08
 18.37     590.45      24.30
 18.47     634.44      25.19
 18.57     592.00      24.33
 18.67     617.00      24.84
 18.77     631.16      25.12
 18.87     593.00      24.35
 18.97     645.65      25.41
 19.07     587.67      24.24
 19.17     597.00      24.43
 19.27     587.00      24.23
 19.37     600.00      24.49
 19.47     603.00      24.56
 19.57     636.00      25.22
 19.67     603.00      24.56
 19.77     639.00      25.28
 19.87     586.39      24.22
 19.97     628.00      25.06
 20.07     612.00      24.74
 20.17     622.37      24.95
 20.27     649.84      25.49
 20.37     587.00      24.23
 20.47     607.26      24.64
 20.57     622.34      24.95
 20.67     590.00      24.29
 20.77     634.00      25.18
 20.87     574.00      23.96
 20.97     569.00      23.85
 21.07     628.61      25.07
 21.17     637.68      25.25
 21.27     579.62      24.08
 21.37     624.00      24.98
 21.47     599.00      24.47
 21.57     603.00      24.56
 21.67     615.00      24.80
 21.77     565.77      23.79
 21.87     636.66      25.23
 21.97     591.00      24.31
 22.07     601.58      24.53
 22.17     622.00      24.94
 22.27     658.01      25.65
 22.37     640.00      25.30
 22.47     643.24      25.36
 22.57     600.09      24.50
 22.67     649.13      25.48
 22.77     609.00      24.68
 22.87     602.00      24.54
 22.97     651.21      25.52
 23.07     587.00      24.23
 23.17     631.00      25.12
 23.27     583.75      24.16
 23.37     656.06      25.61
 23.47     570.00      23.87
 23.57     645.00      25.40
 23.67     602.42      24.54
 23.77     586.00      24.21
 23.87     636.00      25.22
 23.97     650.00      25.50
 24.07     589.00      24.27
 24.17     583.00      24.15
 24.27     616.00      24.82
 24.37     666.00      25.81
 24.47     637.00      25.24
 24.57     612.40      24.75
 24.67     658.00      25.65
 24.77     628.54      25.07
 24.87     760.00      27.57
 24.97     692.00      26.31
 25.07     639.66      25.29
 25.17     713.00      26.70
 25.27     623.10      24.96
 25.37     686.00      26.19
 25.47     587.11      24.23
 25.57     608.00      24.66
 25.67     628.00      25.06
 25.77     649.77      25.49
 25.87     661.00      25.71
 25.97     574.89      23.98
 26.07     629.00      25.08
 26.17     641.00      25.32
 26.27     640.00      25.30
 26.37     654.00      25.57
 26.47     650.49      25.50
 26.57     642.00      25.34
 26.67     640.00      25.30
 26.77     612.00      24.74
 26.87     683.52      26.14
 26.97     594.67      24.39
 27.07     705.00      26.55
 27.17     670.55      25.89
 27.27     628.40      25.07
 27.37     691.00      26.29
 27.47     692.54      26.32
 27.57     675.00      25.98
 27.67     788.61      28.08
 27.77     816.14      28.57
 27.87     997.00      31.58
 27.97    1234.00      35.13
 28.07    1963.75      44.31
 28.17    2890.00      53.76
 28.27    4255.00      65.23
 28.37    5500.03      74.16
 28.47    5605.93      74.87
 28.57    4814.00      69.38
 28.67    3629.00      60.24
 28.77    2732.00      52.27
 28.87    2550.00      50.50
 28.97    2890.00      53.76
 29.07    3260.00      57.10
 29.17    3309.00      57.52
 29.27    2674.57      51.72
 29.37    2027.63      45.03
 29.47    1462.00      38.24
 29.57    1113.24      33.37
 29.67     963.00      31.03
 29.77     889.00      29.82
 29.87     787.00      28.05
 29.97     729.00      27.00
 30.07     696.36      26.39
 30.17     725.57      26.94
 30.27     629.38      25.09
 30.37     701.00      26.48
 30.47     634.00      25.18
 30.57     683.00      26.13
 30.67     657.00      25.63
 30.77     701.00      26.48
 30.87     712.37      26.69
 30.97     730.00      27.02
 31.07     697.67      26.41
 31.17     727.00      26.96
 31.27     691.17      26.29
 31.37     711.00      26.66
 31.47     662.00      25.73
 31.57     653.00      25.55
 31.67     616.34      24.83
 31.77     634.00      25.18
 31.87     579.00      24.06
 31.97     565.44      23.78
 32.07     645.00      25.40
 32.17     613.00      24.76
 32.27     630.00      25.10
 32.37     600.23      24.50
 32.47     638.00      25.26
 32.57     620.00      24.90
 32.67     590.00      24.29
 32.77     577.00      24.02
 32.87     638.00      25.26
 32.97     577.49      24.03
 33.07     608.00      24.66
 33.17     586.00      24.21
 33.27     592.00      24.33
 33.37     639.87      25.30
 33.47     623.00      24.96
 33.57     666.00      25.81
 33.67     620.22      24.90
 33.77     696.86      26.40
 33.87     775.00      27.84
 33.97     867.00      29.44
 34.07     987.00      31.42
 34.17    1060.00      32.56
 34.27    1097.00      33.12
 34.37    1118.00      33.44
 34.47     978.00      31.27
 34.57     899.00      29.98
 34.67     752.00      27.42
 34.77     712.11      26.69
 34.87     652.00      25.53
 34.97     637.00      25.24
 35.07     634.00      25.18
 35.17     564.78      23.77
 35.27     633.00      25.16
 35.37     561.88      23.70
 35.47     606.00      24.62
 35.57     611.00      24.72
 35.67     562.00      23.71
 35.77     621.54      24.93
 35.87     612.00      24.74
 35.97     562.00      23.71
 36.07     599.00      24.47
 36.17     595.00      24.39
 36.27     566.00      23.79
 36.37     559.00      23.64
 36.47     546.72      23.38
 36.57     555.11      23.56
 36.67     616.00      24.82
 36.77     532.03      23.07
 36.87     587.54      24.24
 36.97     563.00      23.73
 37.07     550.13      23.45
 37.17     619.00      24.88
 37.27     609.00      24.68
 37.37     590.61      24.30
 37.47     563.00      23.73
 37.57     587.78      24.24
 37.67     612.00      24.74
 37.77     549.00      23.43
 37.87     579.23      24.07
 37.97     688.68      26.24
 38.07     710.77      26.66
 38.17     693.00      26.32
 38.27     720.62      26.84
 38.37     674.49      25.97
 38.47     628.00      25.06
 38.57     624.00      24.98
 38.67     612.00      24.74
 38.77     590.00      24.29
 38.87     585.06      24.19
 38.97     512.00      22.63
 39.07     607.00      24.64
 39.17     607.20      24.64
 39.27     584.00      24.17
 39.37     595.00      24.39
 39.47     568.00      23.83
 39.57     535.24      23.14
 39.67     573.67      23.95
 39.77     618.00      24.86
 39.87     601.75      24.53
 39.97     598.58      24.47
 40.07     602.47      24.55
 40.17     527.00      22.96
 40.27     570.73      23.89
 40.37     557.00      23.60
 40.47     551.00      23.47
 40.57     561.00      23.69
 40.67     577.05      24.02
 40.77     548.00      23.41
 40.87     534.00      23.11
 40.97     566.00      23.79
 41.07     524.00      22.89
 41.17     526.87      22.95
 41.27     581.02      24.10
 41.37     513.00      22.65
 41.47     555.60      23.57
 41.57     577.00      24.02
 41.67     597.31      24.44
 41.77     590.00      24.29
 41.87     557.00      23.60
 41.97     565.30      23.78
 42.07     546.00      23.37
 42.17     566.00      23.79
 42.27     570.61      23.89
 42.37     557.20      23.61
 42.47     577.79      24.04
 42.57     578.00      24.04
 42.67     593.70      24.37
 42.77     623.00      24.96
 42.87     628.00      25.06
 42.97     644.62      25.39
 43.07     664.00      25.77
 43.17     601.00      24.52
 43.27     601.00      24.52
 43.37     616.28      24.83
 43.47     559.17      23.65
 43.57     580.76      24.10
 43.67     582.53      24.14
 43.77     606.74      24.63
 43.87     537.00      23.17
 43.97     566.00      23.79
 44.07     605.00      24.60
 44.17     617.00      24.84
 44.27     572.00      23.92
 44.37     603.70      24.57
 44.47     536.76      23.17
 44.57     558.00      23.62
 44.67     587.80      24.24
 44.77     538.52      23.21
 44.87     595.01      24.39
 44.97     533.00      23.09
 45.07     594.38      24.38
 45.17     560.00      23.66
 45.27     534.56      23.12
 45.37     565.64      23.78
 45.47     585.00      24.19
 45.57     604.74      24.59
 45.67     561.68      23.70
 45.77     610.16      24.70
 45.87     563.64      23.74
 45.97     584.00      24.17
 46.07     525.17      22.92
 46.17     552.00      23.49
 46.27     572.00      23.92
 46.37     550.85      23.47
 46.47     555.00      23.56
 46.57     561.09      23.69
 46.67     602.50      24.55
 46.77     537.70      23.19
 46.87     558.33      23.63
 46.97     612.00      24.74
 47.07     565.00      23.77
 47.17     528.88      23.00
 47.27     579.89      24.08
 47.37     549.00      23.43
 47.47     652.00      25.53
 47.57     630.00      25.10
 47.67     624.00      24.98
 47.77     573.63      23.95
 47.87     605.52      24.61
 47.97     679.76      26.07
 48.07     672.00      25.92
 48.17     659.00      25.67
 48.27     653.00      25.55
 48.37     645.00      25.40
 48.47     620.00      24.90
 48.57     590.41      24.30
 48.67     588.80      24.27
 48.77     604.00      24.58
 48.87     598.00      24.45
 48.97     573.52      23.95
 49.07     645.00      25.40
 49.17     572.64      23.93
 49.27     582.69      24.14
 49.37     593.89      24.37
 49.47     675.21      25.98
 49.57     591.00      24.31
 49.67     708.00      26.61
 49.77     722.63      26.88
 49.87     822.00      28.67
 49.97    1012.00      31.81
 50.07    1322.00      36.36
 50.17    1658.00      40.72
 50.27    2136.00      46.22
 50.37    2605.00      51.04
 50.47    2780.92      52.73
 50.57    2843.00      53.32
 50.67    2667.00      51.64
 50.77    2214.00      47.05
 50.87    1727.00      41.56
 50.97    1302.00      36.08
 51.07    1051.00      32.42
 51.17     960.88      31.00
 51.27     851.00      29.17
 51.37     769.00      27.73
 51.47     738.51      27.18
 51.57     709.00      26.63
 51.67     687.00      26.21
 51.77     699.00      26.44
 51.87     652.00      25.53
 51.97     608.05      24.66
 52.07     624.00      24.98
 52.17     659.00      25.67
 52.27     657.82      25.65
 52.37     664.00      25.77
 52.47     651.00      25.51
 52.57     639.00      25.28
 52.67     675.00      25.98
 52.77     646.13      25.42
 52.87     645.00      25.40
 52.97     663.00      25.75
 53.07     674.00      25.96
 53.17     716.00      26.76
 53.27     800.96      28.30
 53.37     831.00      28.83
 53.47     931.00      30.51
 53.57    1010.01      31.78
 53.67    1111.99      33.35
 53.77    1160.93      34.07
 53.87    1265.00      35.57
 53.97    1270.00      35.64
 54.07    1183.00      34.39
 54.17    1102.00      33.20
 54.27     940.00      30.66
 54.37     805.00      28.37
 54.47     791.00      28.12
 54.57     752.37      27.43
 54.67     713.00      26.70
 54.77     681.70      26.11
 54.87     655.89      25.61
 54.97     672.00      25.92
 55.07     623.00      24.96
 55.17     667.00      25.83
 55.27     609.79      24.69
 55.37     656.46      25.62
 55.47     653.00      25.55
 55.57     595.91      24.41
 55.67     651.00      25.51
 55.77     647.00      25.44
 55.87     665.02      25.79
 55.97     618.64      24.87
 56.07     700.42      26.47
 56.17     735.31      27.12
 56.27     701.19      26.48
 56.37     770.00      27.75
 56.47     801.00      28.30
 56.57    1044.59      32.32
 56.67    1140.55      33.77
 56.77    1360.00      36.88
 56.87    1766.00      42.02
 56.97    2114.00      45.98
 57.07    2380.97      48.80
 57.17    2568.56      50.68
 57.27    2719.13      52.15
 57.37    2586.00      50.85
 57.47    2315.00      48.11
 57.57    2045.54      45.23
 57.67    1676.00      40.94
 57.77    1322.00      36.36
 57.87    1147.00      33.87
 57.97     939.08      30.64
 58.07     839.13      28.97
 58.17     856.73      29.27
 58.27     758.00      27.53
 58.37     735.36      27.12
 58.47     774.00      27.82
 58.57     860.22      29.33
 58.67     796.00      28.21
 58.77     922.00      30.36
 58.87     997.00      31.58
 58.97    1099.00      33.15
 59.07    1196.00      34.58
 59.17    1180.00      34.35
 59.27    1347.40      36.71
 59.37    1257.90      35.47
 59.47    1256.00      35.44
 59.57    1212.46      34.82
 59.67    1299.89      36.05
 59.77    1279.00      35.76
 59.87    1207.36      34.75
 59.97    1246.00      35.30
 60.07    1176.34      34.30
 60.17    1263.00      35.54
 60.27    1378.00      37.12
 60.37    1466.00      38.29
 60.47    1536.00      39.19
 60.57    1598.00      39.97
 60.67    1605.00      40.06
 60.77    1497.00      38.69
 60.87    1356.64      36.83
 60.97    1290.00      35.92
 61.07    1156.15      34.00
 61.17     949.85      30.82
 61.27     899.00      29.98
 61.37     819.63      28.63
 61.47     794.00      28.18
 61.57     764.00      27.64
 61.67     766.07      27.68
 61.77     795.34      28.20
 61.87     819.00      28.62
 61.97     930.00      30.50
 62.07     990.00      31.46
 62.17    1153.49      33.96
 62.27    1348.00      36.72
 62.37    1490.55      38.61
 62.47    1643.91      40.55
 62.57    1587.00      39.84
 62.67    1614.20      40.18
 62.77    1431.00      37.83
 62.87    1334.00      36.52
 62.97    1187.00      34.45
 63.07    1019.00      31.92
 63.17     987.52      31.42
 63.27     873.00      29.55
 63.37     777.00      27.87
 63.47     763.00      27.62
 63.57     712.00      26.68
 63.67     690.00      26.27
 63.77     639.75      25.29
 63.87     647.00      25.44
 63.97     699.00      26.44
 64.07     685.12      26.17
 64.17     735.00      27.11
 64.27     779.00      27.91
 64.37     857.00      29.27
 64.47     833.07      28.86
 64.57     960.00      30.98
 64.67    1020.00      31.94
 64.77    1040.46      32.26
 64.87    1165.86      34.14
 64.97    1372.00      37.04
 65.07    1375.00      37.08
 65.17    1334.11      36.53
 65.27    1356.82      36.84
 65.37    1288.00      35.89
 65.47    1227.00      35.03
 65.57    1118.00      33.44
 65.67     989.00      31.45
 65.77     926.00      30.43
 65.87     850.00      29.15
 65.97     802.38      28.33
 66.07     731.00      27.04
 66.17     752.00      27.42
 66.27     663.70      25.76
 66.37     677.00      26.02
 66.47     600.00      24.49
 66.57     684.00      26.15
 66.67     642.04      25.34
 66.77     711.12      26.67
 66.87     697.28      26.41
 66.97     617.00      24.84
 67.07     625.00      25.00
 67.17     679.00      26.06
 67.27     704.07      26.53
 67.37     679.00      26.06
 67.47     781.85      27.96
 67.57     786.00      28.04
 67.67     855.00      29.24
 67.77     997.00      31.58
 67.87    1155.00      33.99
 67.97    1361.00      36.89
 68.07    1589.60      39.87
 68.17    1814.55      42.60
 68.27    1960.97      44.28
 68.37    2212.60      47.04
 68.47    2512.82      50.13
 68.57    2478.00      49.78
 68.67    2421.00      49.20
 68.77    2236.46      47.29
 68.87    2190.00      46.80
 68.97    1845.32      42.96
 69.07    1685.00      41.05
 69.17    1384.00      37.20
 69.27    1143.73      33.82
 69.37    1030.70      32.10
 69.47     939.33      30.65
 69.57     812.11      28.50
 69.67     718.21      26.80
 69.77     704.40      26.54
 69.87     662.85      25.75
 69.97     771.00      27.77
 70.07     632.50      25.15
 70.17     701.10      26.48
 70.27     701.64      26.49
 70.37     702.00      26.50
 70.47     687.00      26.21
 70.57     656.00      25.61
 70.67     691.87      26.30
 70.77     691.22      26.29
 70.87     660.00      25.69
 70.97     649.10      25.48
 71.07     714.00      26.72
 71.17     672.00      25.92
 71.27     640.00      25.30
 71.37     677.26      26.02
 71.47     803.00      28.34
 71.57     776.81      27.87
 71.67     899.00      29.98
 71.77     983.00      31.35
 71.87    1050.50      32.41
 71.97    1252.00      35.38
 72.07    1417.00      37.64
 72.17    1520.00      38.99
 72.27    1637.00      40.46
 72.37    1852.68      43.04
 72.47    1999.92      44.72
 72.57    1902.00      43.61
 72.67    1824.53      42.71
 72.77    1772.71      42.10
 72.87    1701.00      41.24
 72.97    1438.00      37.92
 73.07    1373.00      37.05
 73.17    1151.97      33.94
 73.27    1027.00      32.05
 73.37     865.00      29.41
 73.47     822.00      28.67
 73.57     768.67      27.72
 73.67     780.27      27.93
 73.77     706.00      26.57
 73.87     717.38      26.78
 73.97     701.69      26.49
 74.07     684.78      26.17
 74.17     635.28      25.20
 74.27     696.00      26.38
 74.37     677.11      26.02
 74.47     627.34      25.05
 74.57     678.00      26.04
 74.67     604.00      24.58
 74.77     616.00      24.82
 74.87     619.00      24.88
 74.97     692.00      26.31
 75.07     701.00      26.48
 75.17     692.00      26.31
 75.27     691.00      26.29
 75.37     680.00      26.08
 75.47     725.00      26.93
 75.57     659.00      25.67
 75.67     656.00      25.61
 75.77     620.00      24.90
 75.87     641.00      25.32
 75.97     604.69      24.59
 76.07     638.45      25.27
 76.17     688.57      26.24
 76.27     664.00      25.77
 76.37     719.36      26.82
 76.47     678.22      26.04
 76.57     778.00      27.89
 76.67     780.00      27.93
 76.77     819.94      28.63
 76.87     868.52      29.47
 76.97     875.00      29.58
 77.07     881.00      29.68
 77.17     895.00      29.92
 77.27     884.00      29.73
 77.37     913.92      30.23
 77.47     825.00      28.72
 77.57     791.00      28.12
 77.67     811.43      28.49
 77.77     761.61      27.60
 77.87     685.00      26.17
 77.97     678.00      26.04
 78.07     629.00      25.08
 78.17     673.45      25.95
 78.27     648.00      25.46
 78.37     653.47      25.56
 78.47     604.26      24.58
 78.57     593.00      24.35
 78.67     623.00      24.96
 78.77     586.00      24.21
 78.87     569.23      23.86
 78.97     628.88      25.08
 79.07     581.00      24.10
 79.17     590.00      24.29
 79.27     602.00      24.54
 79.37     578.00      24.04
 79.47     588.00      24.25
 79.57     587.67      24.24
 79.67     599.00      24.47
 79.77     571.00      23.90
 79.87     594.00      24.37
 79.97     576.00      24.00
 80.07     648.82      25.47
 80.17     617.00      24.84
 80.27     595.00      24.39
 80.37     652.00      25.53
 80.47     653.42      25.56
 80.57     635.12      25.20
 80.67     702.00      26.50
 80.77     751.00      27.40
 80.87     755.60      27.49
 80.97     829.00      28.79
 81.07     922.00      30.36
 81.17     962.00      31.02
 81.27    1031.00      32.11
 81.37    1152.00      33.94
 81.47    1210.00      34.79
 81.57    1104.83      33.24
 81.67    1092.83      33.06
 81.77    1197.00      34.60
 81.87    1216.00      34.87
 81.97    1204.00      34.70
 82.07    1076.00      32.80
 82.17    1094.00      33.08
 82.27    1045.04      32.33
 82.37     914.77      30.25
 82.47     900.66      30.01
 82.57     849.00      29.14
 82.67     806.00      28.39
 82.77     810.00      28.46
 82.87     766.02      27.68
 82.97     743.00      27.26
 83.07     651.00      25.51
 83.17     633.00      25.16
 83.27     655.00      25.59
 83.37     598.00      24.45
 83.47     640.00      25.30
 83.57     624.00      24.98
 83.67     627.00      25.04
 83.77     615.00      24.80
 83.87     636.00      25.22
 83.97     621.00      24.92
 84.07     607.00      24.64
 84.17     653.00      25.55
 84.27     612.99      24.76
 84.37     607.00      24.64
 84.47     659.00      25.67
 84.57     642.24      25.34
 84.67     601.00      24.52
 84.77     624.00      24.98
 84.87     592.58      24.34
 84.97     657.71      25.65
 85.07     591.00      24.31
 85.17     600.00      24.49
 85.27     544.00      23.32
 85.37     583.00      24.15
 85.47     575.46      23.99
 85.57     607.00      24.64
 85.67     574.29      23.96
 85.77     627.79      25.06
 85.87     592.00      24.33
 85.97     578.00      24.04
 86.07     600.00      24.49
 86.17     573.00      23.94
 86.27     587.00      24.23
 86.37     608.00      24.66
 86.47     561.54      23.70
 86.57     597.00      24.43
 86.67     590.00      24.29
 86.77     576.00      24.00
 86.87     661.17      25.71
 86.97     635.46      25.21
 87.07     647.79      25.45
 87.17     681.00      26.10
 87.27     692.00      26.31
 87.37     620.95      24.92
 87.47     631.14      25.12
 87.57     687.00      26.21
 87.67     719.58      26.83
 87.77     720.23      26.84
 87.87     736.00      27.13
 87.97     648.79      25.47
 88.07     736.62      27.14
 88.17     722.00      26.87
 88.27     640.00      25.30
 88.37     694.00      26.34
 88.47     681.00      26.10
 88.57     660.00      25.69
 88.67     696.00      26.38
 88.77     657.00      25.63
 88.87     662.83      25.75
 88.97     617.64      24.85
 89.07     695.00      26.36
 89.17     651.00      25.51
 89.27     601.00      24.52
 89.37     582.68      24.14
 89.47     624.00      24.98
 89.57     628.00      25.06
 89.67     613.00      24.76
 89.77     641.74      25.33
 89.87     658.00      25.65
 89.97     626.73      25.03
 90.07     623.00      24.96
 90.17     658.00      25.65
 90.27     637.00      25.24
 90.37     605.69      24.61
 90.47     680.00      26.08
 90.57     613.00      24.76
 90.67     623.00      24.96
 90.77     640.58      25.31
 90.87     562.00      23.71
 90.97     550.63      23.47
 91.07     572.00      23.92
 91.17     568.00      23.83
 91.27     570.00      23.87
 91.37     568.00      23.83
 91.47     618.08      24.86
 91.57     559.50      23.65
 91.67     572.55      23.93
 91.77     532.00      23.07
 91.87     595.14      24.40
 91.97     559.00      23.64
 92.07     551.00      23.47
 92.17     603.00      24.56
 92.27     522.00      22.85
 92.37     563.31      23.73
 92.47     598.00      24.45
 92.57     553.95      23.54
 92.67     633.15      25.16
 92.77     578.00      24.04
 92.87     611.00      24.72
 92.97     589.00      24.27
 93.07     633.00      25.16
 93.17     655.00      25.59
 93.27     651.25      25.52
 93.37     697.00      26.40
 93.47     691.00      26.29
 93.57     734.00      27.09
 93.67     714.01      26.72
 93.77     773.00      27.80
 93.87     828.00      28.77
 93.97     799.00      28.27
 94.07     806.00      28.39
 94.17     825.00      28.72
 94.27     869.00      29.48
 94.37     836.41      28.92
 94.47     908.00      30.13
 94.57     914.00      30.23
 94.67     931.09      30.51
 94.77     947.00      30.77
 94.87     942.96      30.71
 94.97     911.58      30.19
 95.07     988.00      31.43
 95.17     926.00      30.43
 95.27    1049.99      32.40
 95.37     988.18      31.44
 95.47     977.56      31.27
 95.57    1025.16      32.02
 95.67     928.38      30.47
 95.77     959.00      30.97
 95.87     927.00      30.45
 95.97     924.00      30.40
 96.07     913.60      30.23
 96.17     818.85      28.62
 96.27     857.00      29.27
 96.37     764.09      27.64
 96.47     832.35      28.85
 96.57     730.98      27.04
 96.67     773.98      27.82
 96.77     819.23      28.62
 96.87     833.00      28.86
 96.97     772.69      27.80
 97.07     866.00      29.43
 97.17     886.21      29.77
 97.27     915.35      30.25
 97.37     996.00      31.56
 97.47    1030.00      32.09
 97.57    1096.00      33.11
 97.67    1204.00      34.70
 97.77    1314.00      36.25
 97.87    1370.00      37.01
 97.97    1473.00      38.38
 98.07    1424.08      37.74
 98.17    1520.00      38.99
 98.27    1658.00      40.72
 98.37    1589.00      39.86
 98.47    1629.00      40.36
 98.57    1613.00      40.16
 98.67    1518.83      38.97
 98.77    1379.00      37.13
 98.87    1310.00      36.19
 98.97    1235.47      35.15
 99.07    1229.00      35.06
 99.17    1159.00      34.04
 99.27    1145.00      33.84
 99.37    1035.00      32.17
 99.47    1064.00      32.62
 99.57    1003.13      31.67
 99.67     979.00      31.29
 99.77     970.00      31.14
 99.87     954.00      30.89
 99.97    1006.00      31.72
100.07    1066.00      32.65
100.17    1106.00      33.26
100.27    1129.86      33.61
100.37    1240.00      35.21
100.47    1330.99      36.48
100.57    1376.04      37.10
100.67    1527.79      39.09
100.77    1635.00      40.44
100.87    1673.00      40.90
100.97    1761.00      41.96
101.07    1897.92      43.57
101.17    1944.00      44.09
101.27    1957.39      44.24
101.37    1946.29      44.12
101.47    2038.53      45.15
101.57    2077.00      45.57
101.67    2042.48      45.19
101.77    2037.00      45.13
101.87    1972.73      44.42
101.97    2017.29      44.91
102.07    1989.15      44.60
102.17    1852.00      43.03
102.27    1771.76      42.09
102.37    1653.00      40.66
102.47    1521.00      39.00
102.57    1632.33      40.40
102.67    1580.84      39.76
102.77    1514.51      38.92
102.87    1369.00      37.00
102.97    1376.04      37.10
103.07    1273.00      35.68
103.17    1290.03      35.92
103.27    1216.00      34.87
103.37    1187.00      34.45
103.47    1177.00      34.31
103.57    1168.00      34.18
103.67    1139.00      33.75
103.77    1093.60      33.07
103.87    1021.00      31.95
103.97    1075.21      32.79
104.07     978.00      31.27
104.17     949.00      30.81
104.27     857.13      29.28
104.37     874.00      29.56
104.47     755.00      27.48
104.57     788.00      28.07
104.67     734.00      27.09
104.77     741.00      27.22
104.87     711.00      26.66
104.97     708.00      26.61
105.07     650.00      25.50
105.17     614.41      24.79
105.27     635.00      25.20
105.37     669.00      25.87
105.47     606.00      24.62
105.57     644.00      25.38
105.67     626.00      25.02
105.77     563.99      23.75
105.87     559.00      23.64
105.97     605.00      24.60
106.07     558.83      23.64
106.17     566.00      23.79
106.27     597.00      24.43
106.37     595.00      24.39
106.47     566.37      23.80
106.57     609.00      24.68
106.67     621.00      24.92
106.77     611.08      24.72
106.87     642.00      25.34
106.97     584.08      24.17
107.07     701.00      26.48
107.17     652.00      25.53
107.27     662.00      25.73
107.37     688.00      26.23
107.47     653.00      25.55
107.57     692.00      26.31
107.67     665.64      25.80
107.77     682.79      26.13
107.87     751.00      27.40
107.97     756.00      27.50
108.07     733.69      27.09
108.17     742.00      27.24
108.27     758.00      27.53
108.37     766.00      27.68
108.47     704.00      26.53
108.57     756.00      27.50
108.67     788.00      28.07
108.77     736.00      27.13
108.87     790.06      28.11
108.97     770.73      27.76
109.07     731.00      27.04
109.17     715.00      26.74
109.27     743.76      27.27
109.37     760.00      27.57
109.47     740.23      27.21
109.57     745.01      27.29
109.67     732.36      27.06
109.77     733.32      27.08
109.87     737.00      27.15
109.97     732.00      27.06
110.07     754.19      27.46
110.17     760.76      27.58
110.27     730.60      27.03
110.37     713.00      26.70
110.47     702.00      26.50
110.57     673.00      25.94
110.67     714.63      26.73
110.77     699.00      26.44
110.87     644.00      25.38
110.97     691.82      26.30
111.07     661.00      25.71
111.17     643.45      25.37
111.27     641.31      25.32
111.37     637.50      25.25
111.47     642.00      25.34
111.57     604.00      24.58
111.67     635.00      25.20
111.77     560.00      23.66
111.87     570.80      23.89
111.97     569.00      23.85
112.07     585.00      24.19
112.17     525.00      22.91
112.27     582.00      24.12
112.37     609.00      24.68
112.47     605.21      24.60
112.57     620.00      24.90
112.67     602.00      24.54
112.77     560.00      23.66
112.87     602.00      24.54
112.97     610.49      24.71
113.07     603.00      24.56
113.17     616.00      24.82
113.27     607.00      24.64
113.37     570.39      23.88
113.47     589.00      24.27
113.57     574.00      23.96
113.67     573.41      23.95
113.77     624.00      24.98
113.87     654.00      25.57
113.97     607.85      24.65
114.07     663.60      25.76
114.17     610.70      24.71
114.27     652.00      25.53
114.37     694.00      26.34
114.47     698.59      26.43
114.57     697.00      26.40
114.67     714.62      26.73
114.77     747.00      27.33
114.87     829.00      28.79
114.97     895.47      29.92
115.07     880.59      29.67
115.17     950.82      30.84
115.27    1063.72      32.61
115.37    1191.20      34.51
115.47    1285.00      35.85
115.57    1420.00      37.68
115.67    1494.00      38.65
115.77    1841.44      42.91
115.87    1942.35      44.07
115.97    2262.10      47.56
116.07    2521.37      50.21
116.17    2878.00      53.65
116.27    3084.00      55.53
116.37    3341.36      57.80
116.47    3715.43      60.95
116.57    4157.00      64.47
116.67    4568.32      67.59
116.77    4795.00      69.25
116.87    5234.00      72.35
116.97    5605.00      74.87
117.07    6097.78      78.09
117.17    6360.00      79.75
117.27    6784.68      82.37
117.37    6860.00      82.83
117.47    7298.00      85.43
117.57    7332.00      85.63
117.67    7480.00      86.49
117.77    7263.77      85.23
117.87    7174.18      84.70
117.97    7291.38      85.39
118.07    7131.00      84.45
118.17    6728.00      82.02
118.27    6432.00      80.20
118.37    5988.00      77.38
118.47    5608.00      74.89
118.57    5216.00      72.22
118.67    4941.06      70.29
118.77    4631.00      68.05
118.87    4165.30      64.54
118.97    3796.83      61.62
119.07    3545.40      59.54
119.17    3173.84      56.34
119.27    2875.00      53.62
119.37    2647.00      51.45
119.47    2417.00      49.16
119.57    2142.00      46.28
119.67    1966.00      44.34
119.77    1734.00      41.64
119.87    1554.48      39.43
119.97    1432.60      37.85
120.07    1288.39      35.89
120.17    1228.00      35.04
120.27    1161.00      34.07
120.37    1078.36      32.84
120.47    1039.00      32.23
120.57     916.97      30.28
120.67     931.39      30.52
120.77     875.40      29.59
120.87     859.97      29.33
120.97     797.00      28.23
121.07     803.00      28.34
121.17     734.00      27.09
121.27     745.00      27.29
121.37     706.00      26.57
121.47     724.00      26.91
121.57     743.40      27.27
121.67     637.00      25.24
121.77     620.00      24.90
121.87     731.39      27.04
121.97     690.18      26.27
122.07     659.00      25.67
122.17     639.00      25.28
122.27     685.00      26.17
122.37     650.00      25.50
122.47     697.71      26.41
122.57     656.00      25.61
122.67     672.00      25.92
122.77     685.00      26.17
122.87     635.00      25.20
122.97     670.00      25.88
123.07     679.00      26.06
123.17     732.90      27.07
123.27     700.00      26.46
123.37     739.00      27.18
123.47     754.32      27.46
123.57     704.20      26.54
123.67     675.00      25.98
123.77     760.00      27.57
123.87     784.00      28.00
123.97     735.00      27.11
124.07     762.00      27.60
124.17     775.00      27.84
124.27     776.00      27.86
124.37     719.00      26.81
124.47     764.00      27.64
124.57     776.00      27.86
124.67     757.00      27.51
124.77     711.00      26.66
124.87     804.00      28.35
124.97     756.00      27.50
