  9.97     605.42      24.61
 10.07     604.00      24.58
 10.17     607.00      24.64
 10.27     578.00      24.04
 10.37     634.00      25.18
 10.47     568.14      23.84
 10.57     600.00      24.49
 10.67     545.03      23.35
 10.77     628.00      25.06
 10.87     580.00      24.08
 10.97     610.00      24.70
 11.07     578.20      24.05
 11.17     585.00      24.19
 11.27     533.08      23.09
 11.37     555.00      23.56
 11.47     543.69      23.32
 11.57     615.61      24.81
 11.67     625.00      25.00
 11.77     596.73      24.43
 11.87     643.00      25.36
 11.97     682.00      26.12
 12.07     663.62      25.76
 12.17     697.00      26.40
 12.27     685.00      26.17
 12.37     653.90      25.57
 12.47     614.00      24.78
 12.57     636.51      25.23
 12.67     581.00      24.10
 12.77     625.51      25.01
 12.87     607.00      24.64
 12.97     555.00      23.56
 13.07     592.00      24.33
 13.17     558.94      23.64
 13.27     583.96      24.17
 13.37     537.00      23.17
 13.47     549.00      23.43
 13.57     533.00      23.09
 13.67     566.00      23.79
 13.77     554.00      23.54
 13.87     533.35      23.09
 13.97     557.00      23.60
 14.07     598.64      24.47
 14.17     579.00      24.06
 14.27     546.00      23.37
 14.37     579.00      24.06
 14.47     560.00      23.66
 14.57     548.00      23.41
 14.67     569.00      23.85
 14.77     593.51      24.36
 14.87     534.18      23.11
 14.97     550.97      23.47
 15.07     525.00      22.91
 15.17     604.41      24.58
 15.27     542.00      23.28
 15.37     543.00      23.30
 15.47     589.00      24.27
 15.57     595.00      24.39
 15.67     559.00      23.64
 15.77     534.88      23.13
 15.87     563.00      23.73
 15.97     598.00      24.45
 16.07     558.13      23.62
 16.17     584.74      24.18
 16.27     560.97      23.68
 16.37     582.75      24.14
 16.47     525.00      22.91
 16.57     536.00      23.15
 16.67     566.00      23.79
 16.77     588.00      24.25
 16.87     587.28      24.23
 16.97     534.89      23.13
 17.07     538.00      23.19
 17.17     547.00      23.39
 17.27     546.94      23.39
 17.37     580.29      24.09
 17.47     566.00      23.79
 17.57     595.74      24.41
 17.67     569.00      23.85
 17.77     574.00      23.96
 17.87     574.00      23.96
 17.97     563.64      23.74
 18.07     529.37      23.01
 18.17     534.95      23.13
 18.27     549.00      23.43
 18.37     520.03      22.80
 18.47     553.00      23.52
 18.57     543.00      23.30
 18.67     566.00      23.79
 18.77     551.00      23.47
 18.87     521.00      22.83
 18.97     562.75      23.72
 19.07     589.00      24.27
 19.17     556.51      23.59
 19.27     601.00      24.52
 19.37     554.00      23.54
 19.47     539.00      23.22
 19.57     550.00      23.45
 19.67     551.00      23.47
 19.77     544.00      23.32
 19.87     585.00      24.19
 19.97     552.00      23.49
 20.07     573.00      23.94
 20.17     553.00      23.52
 20.27     571.00      23.90
 20.37     533.80      23.10
 20.47     543.00      23.30
 20.57     590.00      24.29
 20.67     520.00      22.80
 20.77     555.00      23.56
 20.87     570.00      23.87
 20.97     588.11      24.25
 21.07     537.00      23.17
 21.17     538.00      23.19
 21.27     555.00      23.56
 21.37     504.00      22.45
 21.47     560.81      23.68
 21.57     523.00      22.87
 21.67     542.00      23.28
 21.77     545.00      23.35
 21.87     553.00      23.52
 21.97     545.93      23.37
 22.07     529.35      23.01
 22.17     584.26      24.17
 22.27     513.00      22.65
 22.37     564.00      23.75
 22.47     529.78      23.02
 22.57     561.31      23.69
 22.67     564.00      23.75
 22.77     568.97      23.85
 22.87     552.74      23.51
 22.97     563.42      23.74
 23.07     537.00      23.17
 23.17     538.79      23.21
 23.27     535.00      23.13
 23.37     535.51      23.14
 23.47     553.00      23.52
 23.57     507.63      22.53
 23.67     590.10      24.29
 23.77     570.59      23.89
 23.87     547.00      23.39
 23.97     545.82      23.36
 24.07     542.87      23.30
 24.17     536.00      23.15
 24.27     564.00      23.75
 24.37     557.00      23.60
 24.47     563.00      23.73
 24.57     628.91      25.08
 24.67     661.33      25.72
 24.77     653.00      25.55
 24.87     647.02      25.44
 24.97     587.43      24.24
 25.07     626.00      25.02
 25.17     545.04      23.35
 25.27     557.00      23.60
 25.37     511.63      22.62
 25.47     566.00      23.79
 25.57     543.00      23.30
 25.67     506.32      22.50
 25.77     557.63      23.61
 25.87     519.63      22.80
 25.97     563.00      23.73
 26.07     540.00      23.24
 26.17     532.00      23.07
 26.27     565.00      23.77
 26.37     519.00      22.78
 26.47     545.00      23.35
 26.57     563.99      23.75
 26.67     545.00      23.35
 26.77     543.00      23.30
 26.87     594.00      24.37
 26.97     589.00      24.27
 27.07     576.00      24.00
 27.17     516.00      22.72
 27.27     563.00      23.73
 27.37     534.91      23.13
 27.47     548.00      23.41
 27.57     553.00      23.52
 27.67     557.00      23.60
 27.77     552.00      23.49
 27.87     637.50      25.25
 27.97     679.00      26.06
 28.07     798.00      28.25
 28.17     909.00      30.15
 28.27     879.00      29.65
 28.37     876.00      29.60
 28.47     810.00      28.46
 28.57     704.00      26.53
 28.67     729.00      27.00
 28.77     748.16      27.35
 28.87     830.00      28.81
 28.97     825.00      28.72
 29.07     761.00      27.59
 29.17     719.35      26.82
 29.27     663.00      25.75
 29.37     566.20      23.80
 29.47     573.84      23.95
 29.57     597.00      24.43
 29.67     608.00      24.66
 29.77     565.00      23.77
 29.87     548.18      23.41
 29.97     568.29      23.84
 30.07     563.00      23.73
 30.17     591.00      24.31
 30.27     584.00      24.17
 30.37     543.00      23.30
 30.47     546.95      23.39
 30.57     566.00      23.79
 30.67     535.28      23.14
 30.77     640.00      25.30
 30.87     606.00      24.62
 30.97     613.00      24.76
 31.07     633.00      25.16
 31.17     562.73      23.72
 31.27     547.00      23.39
 31.37     575.00      23.98
 31.47     532.56      23.08
 31.57     546.00      23.37
 31.67     562.00      23.71
 31.77     546.49      23.38
 31.87     572.00      23.92
 31.97     548.00      23.41
 32.07     557.00      23.60
 32.17     499.94      22.36
 32.27     537.00      23.17
 32.37     504.28      22.46
 32.47     508.00      22.54
 32.57     554.00      23.54
 32.67     523.56      22.88
 32.77     562.00      23.71
 32.87     539.00      23.22
 32.97     577.00      24.02
 33.07     524.00      22.89
 33.17     552.00      23.49
 33.27     530.86      23.04
 33.37     538.00      23.19
 33.47     577.00      24.02
 33.57     609.00      24.68
 33.67     631.00      25.12
 33.77     687.17      26.21
 33.87     840.98      29.00
 33.97     971.22      31.16
 34.07    1029.54      32.09
 34.17    1015.00      31.86
 34.27     866.00      29.43
 34.37     791.44      28.13
 34.47     639.00      25.28
 34.57     561.00      23.69
 34.67     561.00      23.69
 34.77     526.00      22.93
 34.87     529.51      23.01
 34.97     539.00      23.22
 35.07     539.00      23.22
 35.17     491.45      22.17
 35.27     489.82      22.13
 35.37     531.00      23.04
 35.47     534.00      23.11
 35.57     480.86      21.93
 35.67     523.67      22.88
 35.77     508.00      22.54
 35.87     533.00      23.09
 35.97     477.68      21.86
 36.07     510.00      22.58
 36.17     548.86      23.43
 36.27     500.00      22.36
 36.37     540.39      23.25
 36.47     481.00      21.93
 36.57     503.00      22.43
 36.67     500.01      22.36
 36.77     500.00      22.36
 36.87     502.00      22.41
 36.97     493.00      22.20
 37.07     549.00      23.43
 37.17     490.00      22.14
 37.27     568.00      23.83
 37.37     578.00      24.04
 37.47     506.94      22.52
 37.57     537.00      23.17
 37.67     520.42      22.81
 37.77     478.00      21.86
 37.87     507.36      22.52
 37.97     518.00      22.76
 38.07     497.00      22.29
 38.17     494.11      22.23
 38.27     486.00      22.05
 38.37     511.00      22.61
 38.47     496.54      22.28
 38.57     476.06      21.82
 38.67     480.56      21.92
 38.77     551.03      23.47
 38.87     529.00      23.00
 38.97     485.00      22.02
 39.07     455.00      21.33
 39.17     506.00      22.49
 39.27     519.00      22.78
 39.37     486.29      22.05
 39.47     544.01      23.32
 39.57     500.90      22.38
 39.67     524.00      22.89
 39.77     516.00      22.72
 39.87     509.00      22.56
 39.97     514.00      22.67
 40.07     472.08      21.73
 40.17     499.00      22.34
 40.27     473.00      21.75
 40.37     486.00      22.05
 40.47     510.00      22.58
 40.57     515.00      22.69
 40.67     513.00      22.65
 40.77     496.83      22.29
 40.87     512.00      22.63
 40.97     529.14      23.00
 41.07     518.49      22.77
 41.17     511.00      22.61
 41.27     498.00      22.32
 41.37     516.00      22.72
 41.47     494.00      22.23
 41.57     506.00      22.49
 41.67     518.00      22.76
 41.77     504.00      22.45
 41.87     497.00      22.29
 41.97     539.96      23.24
 42.07     476.93      21.84
 42.17     519.77      22.80
 42.27     498.69      22.33
 42.37     524.00      22.89
 42.47     561.00      23.69
 42.57     589.00      24.27
 42.67     619.00      24.88
 42.77     590.47      24.30
 42.87     579.00      24.06
 42.97     609.45      24.69
 43.07     562.55      23.72
 43.17     518.00      22.76
 43.27     536.72      23.17
 43.37     510.00      22.58
 43.47     545.01      23.35
 43.57     516.00      22.72
 43.67     514.00      22.67
 43.77     491.01      22.16
 43.87     546.31      23.37
 43.97     515.25      22.70
 44.07     509.00      22.56
 44.17     534.30      23.11
 44.27     504.00      22.45
 44.37     463.00      21.52
 44.47     512.00      22.63
 44.57     534.12      23.11
 44.67     477.00      21.84
 44.77     473.75      21.77
 44.87     522.00      22.85
 44.97     523.00      22.87
 45.07     507.00      22.52
 45.17     496.80      22.29
 45.27     530.00      23.02
 45.37     504.43      22.46
 45.47     486.00      22.05
 45.57     493.00      22.20
 45.67     542.00      23.28
 45.77     535.90      23.15
 45.87     486.00      22.05
 45.97     464.00      21.54
 46.07     523.16      22.87
 46.17     490.00      22.14
 46.27     525.00      22.91
 46.37     521.39      22.83
 46.47     495.00      22.25
 46.57     525.00      22.91
 46.67     502.00      22.41
 46.77     499.35      22.35
 46.87     545.85      23.36
 46.97     527.00      22.96
 47.07     514.00      22.67
 47.17     487.00      22.07
 47.27     571.00      23.90
 47.37     539.57      23.23
 47.47     499.00      22.34
 47.57     559.00      23.64
 47.67     638.00      25.26
 47.77     590.00      24.29
 47.87     617.00      24.84
 47.97     598.00      24.45
 48.07     550.78      23.47
 48.17     586.86      24.23
 48.27     592.00      24.33
 48.37     509.00      22.56
 48.47     532.00      23.07
 48.57     539.00      23.22
 48.67     548.00      23.41
 48.77     553.25      23.52
 48.87     527.00      22.96
 48.97     543.00      23.30
 49.07     545.00      23.35
 49.17     604.00      24.58
 49.27     574.00      23.96
 49.37     616.00      24.82
 49.47     708.57      26.62
 49.57     823.00      28.69
 49.67     872.00      29.53
 49.77    1098.00      33.14
 49.87    1496.00      38.68
 49.97    1904.11      43.64
 50.07    2262.69      47.57
 50.17    2477.04      49.77
 50.27    2418.00      49.17
 50.37    2231.00      47.23
 50.47    1898.55      43.57
 50.57    1449.00      38.07
 50.67    1060.00      32.56
 50.77     793.00      28.16
 50.87     708.00      26.61
 50.97     707.78      26.60
 51.07     670.00      25.88
 51.17     622.00      24.94
 51.27     624.00      24.98
 51.37     590.00      24.29
 51.47     589.00      24.27
 51.57     571.00      23.90
 51.67     578.00      24.04
 51.77     547.00      23.39
 51.87     556.00      23.58
 51.97     566.00      23.79
 52.07     563.00      23.73
 52.17     542.04      23.28
 52.27     560.68      23.68
 52.37     553.00      23.52
 52.47     533.00      23.09
 52.57     567.32      23.82
 52.67     642.00      25.34
 52.77     612.00      24.74
 52.87     630.11      25.10
 52.97     686.00      26.19
 53.07     872.00      29.53
 53.17     940.00      30.66
 53.27    1058.00      32.53
 53.37    1109.30      33.31
 53.47    1201.00      34.66
 53.57    1224.00      34.99
 53.67    1135.34      33.69
 53.77    1012.00      31.81
 53.87     861.89      29.36
 53.97     812.39      28.50
 54.07     633.00      25.16
 54.17     627.00      25.04
 54.27     602.00      24.54
 54.37     572.00      23.92
 54.47     567.00      23.81
 54.57     556.00      23.58
 54.67     547.92      23.41
 54.77     578.00      24.04
 54.87     578.00      24.04
 54.97     514.20      22.68
 55.07     579.00      24.06
 55.17     605.00      24.60
 55.27     545.83      23.36
 55.37     592.00      24.33
 55.47     576.00      24.00
 55.57     578.46      24.05
 55.67     580.00      24.08
 55.77     617.34      24.85
 55.87     593.00      24.35
 55.97     622.00      24.94
 56.07     645.76      25.41
 56.17     734.00      27.09
 56.27     864.00      29.39
 56.37    1132.36      33.65
 56.47    1422.00      37.71
 56.57    1794.53      42.36
 56.67    2146.47      46.33
 56.77    2466.00      49.66
 56.87    2696.00      51.92
 56.97    2580.00      50.79
 57.07    2459.53      49.59
 57.17    2063.00      45.42
 57.27    1623.37      40.29
 57.37    1326.02      36.41
 57.47    1029.00      32.08
 57.57     881.00      29.68
 57.67     775.79      27.85
 57.77     645.29      25.40
 57.87     616.72      24.83
 57.97     659.00      25.67
 58.07     706.00      26.57
 58.17     668.43      25.85
 58.27     768.23      27.72
 58.37     836.00      28.91
 58.47     907.00      30.12
 58.57    1023.00      31.98
 58.67    1131.16      33.63
 58.77    1325.00      36.40
 58.87    1398.39      37.40
 58.97    1491.00      38.61
 59.07    1532.54      39.15
 59.17    1416.52      37.64
 59.27    1349.16      36.73
 59.37    1318.00      36.30
 59.47    1242.67      35.25
 59.57    1148.81      33.89
 59.67    1165.00      34.13
 59.77    1170.26      34.21
 59.87    1180.05      34.35
 59.97    1338.78      36.59
 60.07    1467.00      38.30
 60.17    1556.00      39.45
 60.27    1596.00      39.95
 60.37    1601.00      40.01
 60.47    1424.98      37.75
 60.57    1257.83      35.47
 60.67    1030.33      32.10
 60.77     931.00      30.51
 60.87     828.76      28.79
 60.97     758.00      27.53
 61.07     650.00      25.50
 61.17     649.00      25.48
 61.27     616.00      24.82
 61.37     706.00      26.57
 61.47     676.00      26.00
 61.57     711.00      26.66
 61.67     818.00      28.60
 61.77     937.54      30.62
 61.87    1125.00      33.54
 61.97    1285.00      35.85
 62.07    1352.68      36.78
 62.17    1400.00      37.42
 62.27    1393.00      37.32
 62.37    1339.40      36.60
 62.47    1153.00      33.96
 62.57    1043.00      32.30
 62.67     849.00      29.14
 62.77     765.00      27.66
 62.87     690.00      26.27
 62.97     673.65      25.95
 63.07     613.00      24.76
 63.17     567.00      23.81
 63.27     562.50      23.72
 63.37     545.00      23.35
 63.47     570.15      23.88
 63.57     575.00      23.98
 63.67     596.06      24.41
 63.77     585.00      24.19
 63.87     605.02      24.60
 63.97     671.00      25.90
 64.07     665.15      25.79
 64.17     785.55      28.03
 64.27     832.00      28.84
 64.37     858.76      29.30
 64.47    1007.00      31.73
 64.57    1023.00      31.98
 64.67    1043.17      32.30
 64.77     984.39      31.38
 64.87     984.00      31.37
 64.97     911.00      30.18
 65.07     850.00      29.15
 65.17     814.00      28.53
 65.27     726.00      26.94
 65.37     692.00      26.31
 65.47     612.00      24.74
 65.57     654.00      25.57
 65.67     563.00      23.73
 65.77     622.93      24.96
 65.87     568.00      23.83
 65.97     537.96      23.19
 66.07     540.08      23.24
 66.17     601.87      24.53
 66.27     556.00      23.58
 66.37     543.00      23.30
 66.47     542.65      23.29
 66.57     512.00      22.63
 66.67     603.30      24.56
 66.77     557.81      23.62
 66.87     595.00      24.39
 66.97     580.00      24.08
 67.07     632.88      25.16
 67.17     639.00      25.28
 67.27     769.00      27.73
 67.37     901.00      30.02
 67.47    1049.00      32.39
 67.57    1272.08      35.67
 67.67    1526.56      39.07
 67.77    1783.00      42.23
 67.87    2116.12      46.00
 67.97    2310.00      48.06
 68.07    2375.00      48.73
 68.17    2422.00      49.21
 68.27    2255.00      47.49
 68.37    2056.11      45.34
 68.47    1866.00      43.20
 68.57    1531.85      39.14
 68.67    1320.00      36.33
 68.77    1063.00      32.60
 68.87     914.00      30.23
 68.97     815.00      28.55
 69.07     717.14      26.78
 69.17     657.00      25.63
 69.27     645.23      25.40
 69.37     569.00      23.85
 69.47     611.00      24.72
 69.57     531.79      23.06
 69.67     562.86      23.72
 69.77     534.84      23.13
 69.87     547.73      23.40
 69.97     578.86      24.06
 70.07     540.00      23.24
 70.17     524.41      22.90
 70.27     586.00      24.21
 70.37     522.94      22.87
 70.47     582.00      24.12
 70.57     581.48      24.11
 70.67     548.00      23.41
 70.77     564.00      23.75
 70.87     621.20      24.92
 70.97     635.75      25.21
 71.07     675.00      25.98
 71.17     725.00      26.93
 71.27     798.49      28.26
 71.37     988.21      31.44
 71.47    1092.00      33.05
 71.57    1213.00      34.83
 71.67    1511.45      38.88
 71.77    1636.96      40.46
 71.87    1857.00      43.09
 71.97    1943.00      44.08
 72.07    2109.00      45.92
 72.17    1905.00      43.65
 72.27    1790.00      42.31
 72.37    1578.00      39.72
 72.47    1466.00      38.29
 72.57    1245.94      35.30
 72.67    1213.16      34.83
 72.77    1071.49      32.73
 72.87     954.00      30.89
 72.97     795.00      28.20
 73.07     816.00      28.57
 73.17     750.90      27.40
 73.27     704.00      26.53
 73.37     621.00      24.92
 73.47     600.00      24.49
 73.57     571.00      23.90
 73.67     578.90      24.06
 73.77     573.23      23.94
 73.87     611.00      24.72
 73.97     558.00      23.62
 74.07     591.80      24.33
 74.17     587.00      24.23
 74.27     624.00      24.98
 74.37     569.21      23.86
 74.47     637.00      25.24
 74.57     595.95      24.41
 74.67     643.00      25.36
 74.77     612.00      24.74
 74.87     643.00      25.36
 74.97     590.00      24.29
 75.07     599.00      24.47
 75.17     584.00      24.17
 75.27     544.00      23.32
 75.37     550.00      23.45
 75.47     535.00      23.13
 75.57     601.00      24.52
 75.67     549.00      23.43
 75.77     612.33      24.75
 75.87     597.03      24.43
 75.97     623.00      24.96
 76.07     578.00      24.04
 76.17     694.24      26.35
 76.27     680.00      26.08
 76.37     674.86      25.98
 76.47     676.83      26.02
 76.57     719.38      26.82
 76.67     691.68      26.30
 76.77     652.90      25.55
 76.87     625.00      25.00
 76.97     647.00      25.44
 77.07     637.73      25.25
 77.17     586.00      24.21
 77.27     576.30      24.01
 77.37     546.61      23.38
 77.47     564.00      23.75
 77.57     530.00      23.02
 77.67     520.00      22.80
 77.77     527.00      22.96
 77.87     552.99      23.52
 77.97     544.00      23.32
 78.07     540.00      23.24
 78.17     541.00      23.26
 78.27     552.00      23.49
 78.37     552.00      23.49
 78.47     524.74      22.91
 78.57     552.57      23.51
 78.67     536.00      23.15
 78.77     567.00      23.81
 78.87     499.00      22.34
 78.97     497.00      22.29
 79.07     539.00      23.22
 79.17     540.78      23.25
 79.27     537.00      23.17
 79.37     524.00      22.89
 79.47     571.93      23.92
 79.57     538.44      23.20
 79.67     573.75      23.95
 79.77     523.00      22.87
 79.87     508.00      22.54
 79.97     552.00      23.49
 80.07     557.22      23.61
 80.17     566.00      23.79
 80.27     590.05      24.29
 80.37     586.00      24.21
 80.47     573.92      23.96
 80.57     633.00      25.16
 80.67     625.00      25.00
 80.77     671.00      25.90
 80.87     636.00      25.22
 80.97     706.00      26.57
 81.07     711.00      26.66
 81.17     738.00      27.17
 81.27     749.00      27.37
 81.37     701.59      26.49
 81.47     791.55      28.13
 81.57     761.00      27.59
 81.67     741.00      27.22
 81.77     711.10      26.67
 81.87     699.21      26.44
 81.97     704.97      26.55
 82.07     722.00      26.87
 82.17     632.86      25.16
 82.27     637.00      25.24
 82.37     605.36      24.60
 82.47     616.23      24.82
 82.57     560.72      23.68
 82.67     550.00      23.45
 82.77     607.98      24.66
 82.87     549.00      23.43
 82.97     525.00      22.91
 83.07     541.00      23.26
 83.17     560.00      23.66
 83.27     555.61      23.57
 83.37     562.23      23.71
 83.47     567.71      23.83
 83.57     568.18      23.84
 83.67     598.00      24.45
 83.77     535.00      23.13
 83.87     545.00      23.35
 83.97     582.80      24.14
 84.07     562.00      23.71
 84.17     588.91      24.27
 84.27     608.00      24.66
 84.37     550.00      23.45
 84.47     570.00      23.87
 84.57     559.69      23.66
 84.67     510.00      22.58
 84.77     563.00      23.73
 84.87     574.00      23.96
 84.97     547.00      23.39
 85.07     516.00      22.72
 85.17     551.00      23.47
 85.27     558.00      23.62
 85.37     510.00      22.58
 85.47     560.46      23.67
 85.57     562.00      23.71
 85.67     549.00      23.43
 85.77     542.00      23.28
 85.87     511.00      22.61
 85.97     507.00      22.52
 86.07     498.65      22.33
 86.17     547.00      23.39
 86.27     514.95      22.69
 86.37     545.00      23.35
 86.47     525.45      22.92
 86.57     560.00      23.66
 86.67     546.00      23.37
 86.77     547.12      23.39
 86.87     613.09      24.76
 86.97     635.00      25.20
 87.07     637.00      25.24
 87.17     612.00      24.74
 87.27     660.00      25.69
 87.37     640.00      25.30
 87.47     671.00      25.90
 87.57     606.78      24.63
 87.67     680.00      26.08
 87.77     624.88      25.00
 87.87     600.12      24.50
 87.97     631.00      25.12
 88.07     616.00      24.82
 88.17     646.00      25.42
 88.27     529.00      23.00
 88.37     534.43      23.12
 88.47     577.00      24.02
 88.57     595.00      24.39
 88.67     563.22      23.73
 88.77     584.00      24.17
 88.87     547.68      23.40
 88.97     551.15      23.48
 89.07     612.00      24.74
 89.17     557.00      23.60
 89.27     604.00      24.58
 89.37     594.00      24.37
 89.47     588.00      24.25
 89.57     592.00      24.33
 89.67     588.00      24.25
 89.77     559.72      23.66
 89.87     543.00      23.30
 89.97     606.57      24.63
 90.07     542.14      23.28
 90.17     535.00      23.13
 90.27     522.54      22.86
 90.37     575.86      24.00
 90.47     572.00      23.92
 90.57     511.48      22.62
 90.67     511.21      22.61
 90.77     553.00      23.52
 90.87     508.75      22.56
 90.97     541.00      23.26
 91.07     494.00      22.23
 91.17     510.35      22.59
 91.27     525.00      22.91
 91.37     535.20      23.13
 91.47     508.43      22.55
 91.57     504.00      22.45
 91.67     487.00      22.07
 91.77     489.00      22.11
 91.87     511.00      22.61
 91.97     572.00      23.92
 92.07     535.00      23.13
 92.17     542.00      23.28
 92.27     550.00      23.45
 92.37     621.00      24.92
 92.47     595.00      24.39
 92.57     662.00      25.73
 92.67     627.00      25.04
 92.77     672.36      25.93
 92.87     667.09      25.83
 92.97     758.00      27.53
 93.07     693.61      26.34
 93.17     718.30      26.80
 93.27     807.00      28.41
 93.37     777.00      27.87
 93.47     776.00      27.86
 93.57     794.00      28.18
 93.67     859.00      29.31
 93.77     818.27      28.61
 93.87     881.00      29.68
 93.97     810.00      28.46
 94.07     853.00      29.21
 94.17     804.03      28.36
 94.27     902.16      30.04
 94.37     888.00      29.80
 94.47     884.00      29.73
 94.57     944.00      30.72
 94.67     860.52      29.33
 94.77     912.00      30.20
 94.87     902.43      30.04
 94.97     855.57      29.25
 95.07     855.52      29.25
 95.17     906.00      30.10
 95.27     866.00      29.43
 95.37     803.00      28.34
 95.47     782.00      27.96
 95.57     743.00      27.26
 95.67     712.70      26.70
 95.77     690.00      26.27
 95.87     658.00      25.65
 95.97     674.00      25.96
 96.07     663.17      25.75
 96.17     725.00      26.93
 96.27     726.00      26.94
 96.37     780.79      27.94
 96.47     838.23      28.95
 96.57     885.00      29.75
 96.67     927.00      30.45
 96.77     953.00      30.87
 96.87    1117.75      33.43
 96.97    1174.00      34.26
 97.07    1217.00      34.89
 97.17    1242.56      35.25
 97.27    1402.55      37.45
 97.37    1365.00      36.95
 97.47    1415.00      37.62
 97.57    1390.03      37.28
 97.67    1421.00      37.70
 97.77    1410.44      37.56
 97.87    1394.00      37.34
 97.97    1335.32      36.54
 98.07    1271.72      35.66
 98.17    1154.76      33.98
 98.27    1110.31      33.32
 98.37    1015.00      31.86
 98.47    1011.00      31.80
 98.57     934.00      30.56
 98.67     837.00      28.93
 98.77     847.00      29.10
 98.87     781.79      27.96
 98.97     758.00      27.53
 99.07     826.10      28.74
 99.17     858.00      29.29
 99.27     912.00      30.20
 99.37     914.00      30.23
 99.47     989.00      31.45
 99.57    1083.00      32.91
 99.67    1161.00      34.07
 99.77    1325.00      36.40
 99.87    1397.49      37.38
 99.97    1570.25      39.63
100.07    1598.00      39.97
100.17    1778.00      42.17
100.27    1896.29      43.55
100.37    1903.00      43.62
100.47    1965.09      44.33
100.57    1990.76      44.62
100.67    2068.00      45.48
100.77    2087.70      45.69
100.87    2070.00      45.50
100.97    2022.41      44.97
101.07    1960.62      44.28
101.17    1897.00      43.55
101.27    1754.01      41.88
101.37    1650.57      40.63
101.47    1575.00      39.69
101.57    1464.84      38.27
101.67    1402.92      37.46
101.77    1369.00      37.00
101.87    1310.00      36.19
101.97    1285.91      35.86
102.07    1170.00      34.21
102.17    1206.00      34.73
102.27    1161.80      34.09
102.37    1123.00      33.51
102.47    1071.00      32.73
102.57    1118.69      33.45
102.67    1041.00      32.26
102.77    1027.00      32.05
102.87    1017.00      31.89
102.97     976.00      31.24
103.07     944.49      30.73
103.17     827.00      28.76
103.27     844.00      29.05
103.37     858.00      29.29
103.47     766.81      27.69
103.57     745.00      27.29
103.67     692.47      26.31
103.77     684.00      26.15
103.87     621.00      24.92
103.97     545.00      23.35
104.07     602.00      24.54
104.17     558.61      23.63
104.27     549.90      23.45
104.37     595.17      24.40
104.47     590.00      24.29
104.57     563.06      23.73
104.67     503.38      22.44
104.77     552.00      23.49
104.87     520.66      22.82
104.97     540.00      23.24
105.07     542.00      23.28
105.17     532.00      23.07
105.27     534.00      23.11
105.37     554.00      23.54
105.47     534.00      23.11
105.57     495.38      22.26
105.67     583.00      24.15
105.77     548.00      23.41
105.87     576.00      24.00
105.97     555.00      23.56
106.07     572.00      23.92
106.17     553.39      23.52
106.27     638.00      25.26
106.37     557.23      23.61
106.47     588.00      24.25
106.57     660.24      25.70
106.67     614.00      24.78
106.77     651.00      25.51
106.87     625.00      25.00
106.97     652.00      25.53
107.07     687.39      26.22
107.17     673.00      25.94
107.27     720.90      26.85
107.37     683.73      26.15
107.47     707.03      26.59
107.57     661.35      25.72
107.67     692.00      26.31
107.77     738.69      27.18
107.87     712.00      26.68
107.97     722.69      26.88
108.07     712.04      26.68
108.17     629.00      25.08
108.27     647.59      25.45
108.37     686.00      26.19
108.47     686.55      26.20
108.57     731.05      27.04
108.67     665.52      25.80
108.77     691.00      26.29
108.87     746.00      27.31
108.97     718.00      26.80
109.07     689.00      26.25
109.17     643.09      25.36
109.27     668.84      25.86
109.37     669.96      25.88
109.47     678.83      26.05
109.57     596.36      24.42
109.67     586.08      24.21
109.77     636.00      25.22
109.87     608.45      24.67
109.97     599.00      24.47
110.07     553.86      23.53
110.17     585.00      24.19
110.27     562.00      23.71
110.37     553.00      23.52
110.47     555.00      23.56
110.57     555.00      23.56
110.67     521.60      22.84
110.77     547.00      23.39
110.87     538.00      23.19
110.97     570.00      23.87
111.07     540.00      23.24
111.17     567.68      23.83
111.27     541.78      23.28
111.37     548.24      23.41
111.47     514.00      22.67
111.57     531.00      23.04
111.67     551.00      23.47
111.77     525.11      22.92
111.87     540.00      23.24
111.97     561.00      23.69
112.07     534.00      23.11
112.17     613.20      24.76
112.27     603.18      24.56
112.37     546.24      23.37
112.47     644.00      25.38
112.57     600.00      24.49
112.67     630.41      25.11
112.77     596.00      24.41
112.87     644.00      25.38
112.97     665.69      25.80
113.07     665.00      25.79
113.17     651.67      25.53
113.27     677.01      26.02
113.37     722.00      26.87
113.47     785.63      28.03
113.57     760.00      27.57
113.67     780.00      27.93
113.77     873.00      29.55
113.87     872.00      29.53
113.97     874.00      29.56
114.07     956.50      30.93
114.17    1070.00      32.71
114.27    1181.00      34.37
114.37    1169.00      34.19
114.47    1271.09      35.65
114.57    1452.47      38.11
114.67    1564.00      39.55
114.77    1728.00      41.57
114.87    1868.00      43.22
114.97    1967.71      44.36
115.07    2344.00      48.41
115.17    2508.00      50.08
115.27    2888.00      53.74
115.37    3102.00      55.70
115.47    3526.00      59.38
115.57    3778.00      61.47
115.67    4092.00      63.97
115.77    4583.56      67.70
115.87    4806.00      69.33
115.97    5246.00      72.43
116.07    5691.77      75.44
116.17    5983.40      77.35
116.27    6309.00      79.43
116.37    6557.00      80.98
116.47    6834.00      82.67
116.57    6838.63      82.70
116.67    6962.00      83.44
116.77    6965.55      83.46
116.87    6749.24      82.15
116.97    6486.85      80.54
117.07    6394.00      79.96
117.17    5976.00      77.30
117.27    5708.00      75.55
117.37    5291.00      72.74
117.47    5006.00      70.75
117.57    4494.00      67.04
117.67    4243.12      65.14
117.77    3935.07      62.73
117.87    3478.61      58.98
117.97    3309.00      57.52
118.07    2945.00      54.27
118.17    2605.00      51.04
118.27    2331.00      48.28
118.37    1980.06      44.50
118.47    1770.00      42.07
118.57    1567.00      39.59
118.67    1395.00      37.35
118.77    1280.00      35.78
118.87    1095.00      33.09
118.97    1017.00      31.89
119.07     994.42      31.53
119.17     876.00      29.60
119.27     813.33      28.52
119.37     755.00      27.48
119.47     790.53      28.12
119.57     727.41      26.97
119.67     682.00      26.12
119.77     678.58      26.05
119.87     626.98      25.04
119.97     617.00      24.84
120.07     597.00      24.43
120.17     578.00      24.04
120.27     640.98      25.32
120.37     626.65      25.03
120.47     525.00      22.91
120.57     564.00      23.75
120.67     580.00      24.08
120.77     595.00      24.39
120.87     594.64      24.39
120.97     601.00      24.52
121.07     545.00      23.35
121.17     589.00      24.27
121.27     560.96      23.68
121.37     570.50      23.89
121.47     615.00      24.80
121.57     588.00      24.25
121.67     588.00      24.25
121.77     593.00      24.35
121.87     558.44      23.63
121.97     651.00      25.51
122.07     630.00      25.10
122.17     667.00      25.83
122.27     581.76      24.12
122.37     588.59      24.26
122.47     653.09      25.56
122.57     633.85      25.18
122.67     632.26      25.14
122.77     655.95      25.61
122.87     645.00      25.40
122.97     640.00      25.30
123.07     608.62      24.67
123.17     686.84      26.21
123.27     624.00      24.98
123.37     611.00      24.72
123.47     616.41      24.83
123.57     656.00      25.61
123.67     643.38      25.37
123.77     618.08      24.86
123.87     677.00      26.02
123.97     601.00      24.52
124.07     665.00      25.79
124.17     647.00      25.44
124.27     594.98      24.39
124.37     605.35      24.60
124.47     591.03      24.31
124.57     605.00      24.60
124.67     618.00      24.86
124.77     602.66      24.55
124.87     639.00      25.28
124.97     586.00      24.21
