  9.97     718.00      26.80
 10.07     758.74      27.55
 10.17     748.70      27.36
 10.27     794.00      28.18
 10.37     756.62      27.51
 10.47     758.73      27.55
 10.57     716.56      26.77
 10.67     811.03      28.48
 10.77     758.00      27.53
 10.87     749.89      27.38
 10.97     769.00      27.73
 11.07     753.00      27.44
 11.17     802.31      28.33
 11.27     784.52      28.01
 11.37     698.01      26.42
 11.47     747.00      27.33
 11.57     729.55      27.01
 11.67     798.98      28.27
 11.77     780.60      27.94
 11.87     819.02      28.62
 11.97     749.99      27.39
 12.07     857.00      29.27
 12.17     910.00      30.17
 12.27     912.23      30.20
 12.37     840.00      28.98
 12.47     794.96      28.19
 12.57     787.00      28.05
 12.67     761.89      27.60
 12.77     729.00      27.00
 12.87     739.00      27.18
 12.97     714.00      26.72
 13.07     795.59      28.21
 13.17     695.97      26.38
 13.27     723.00      26.89
 13.37     705.00      26.55
 13.47     695.34      26.37
 13.57     712.00      26.68
 13.67     718.75      26.81
 13.77     783.00      27.98
 13.87     740.00      27.20
 13.97     778.00      27.89
 14.07     748.00      27.35
 14.17     762.00      27.60
 14.27     755.99      27.50
 14.37     713.23      26.71
 14.47     722.23      26.87
 14.57     680.00      26.08
 14.67     690.00      26.27
 14.77     721.00      26.85
 14.87     743.00      27.26
 14.97     746.72      27.33
 15.07     660.00      25.69
 15.17     679.00      26.06
 15.27     693.30      26.33
 15.37     683.00      26.13
 15.47     687.00      26.21
 15.57     683.00      26.13
 15.67     671.00      25.90
 15.77     741.93      27.24
 15.87     735.00      27.11
 15.97     686.00      26.19
 16.07     675.00      25.98
 16.17     701.00      26.48
 16.27     671.00      25.90
 16.37     687.00      26.21
 16.47     713.00      26.70
 16.57     685.00      26.17
 16.67     673.00      25.94
 16.77     708.62      26.62
 16.87     731.82      27.05
 16.97     728.42      26.99
 17.07     739.94      27.20
 17.17     648.00      25.46
 17.27     719.85      26.83
 17.37     744.34      27.28
 17.47     727.00      26.96
 17.57     706.38      26.58
 17.67     705.00      26.55
 17.77     653.00      25.55
 17.87     729.28      27.01
 17.97     652.00      25.53
 18.07     713.00      26.70
 18.17     729.56      27.01
 18.27     677.00      26.02
 18.37     663.00      25.75
 18.47     714.00      26.72
 18.57     702.00      26.50
 18.67     658.00      25.65
 18.77     674.39      25.97
 18.87     737.00      27.15
 18.97     680.69      26.09
 19.07     734.00      27.09
 19.17     607.00      24.64
 19.27     691.00      26.29
 19.37     694.09      26.35
 19.47     691.00      26.29
 19.57     666.00      25.81
 19.67     692.00      26.31
 19.77     670.00      25.88
 19.87     688.00      26.23
 19.97     674.00      25.96
 20.07     661.00      25.71
 20.17     704.00      26.53
 20.27     711.71      26.68
 20.37     709.48      26.64
 20.47     671.39      25.91
 20.57     659.89      25.69
 20.67     635.00      25.20
 20.77     718.00      26.80
 20.87     664.00      25.77
 20.97     665.00      25.79
 21.07     677.00      26.02
 21.17     640.00      25.30
 21.27     668.00      25.85
 21.37     636.00      25.22
 21.47     718.92      26.81
 21.57     650.00      25.50
 21.67     691.00      26.29
 21.77     720.86      26.85
 21.87     660.00      25.69
 21.97     721.10      26.85
 22.07     674.50      25.97
 22.17     621.50      24.93
 22.27     698.00      26.42
 22.37     660.00      25.69
 22.47     709.34      26.63
 22.57     702.00      26.50
 22.67     660.08      25.69
 22.77     641.00      25.32
 22.87     640.00      25.30
 22.97     691.68      26.30
 23.07     686.00      26.19
 23.17     667.67      25.84
 23.27     618.90      24.88
 23.37     689.51      26.26
 23.47     643.00      25.36
 23.57     709.17      26.63
 23.67     666.00      25.81
 23.77     692.00      26.31
 23.87     685.00      26.17
 23.97     651.68      25.53
 24.07     675.00      25.98
 24.17     709.00      26.63
 24.27     673.00      25.94
 24.37     689.00      26.25
 24.47     671.00      25.90
 24.57     736.56      27.14
 24.67     703.00      26.51
 24.77     749.00      27.37
 24.87     721.00      26.85
 24.97     776.00      27.86
 25.07     720.96      26.85
 25.17     781.47      27.95
 25.27     708.00      26.61
 25.37     747.25      27.34
 25.47     733.00      27.07
 25.57     732.02      27.06
 25.67     715.00      26.74
 25.77     696.00      26.38
 25.87     684.55      26.16
 25.97     718.26      26.80
 26.07     694.00      26.34
 26.17     646.00      25.42
 26.27     685.98      26.19
 26.37     655.00      25.59
 26.47     711.00      26.66
 26.57     702.00      26.50
 26.67     706.23      26.57
 26.77     735.62      27.12
 26.87     709.00      26.63
 26.97     705.00      26.55
 27.07     719.00      26.81
 27.17     790.32      28.11
 27.27     775.00      27.84
 27.37     732.00      27.06
 27.47     815.00      28.55
 27.57     822.00      28.67
 27.67     838.00      28.95
 27.77     974.86      31.22
 27.87    1151.02      33.93
 27.97    1391.00      37.30
 28.07    2067.00      45.46
 28.17    3278.00      57.25
 28.27    5363.00      73.23
 28.37    7750.00      88.03
 28.47    9449.00      97.21
 28.57    9123.00      95.51
 28.67    7418.00      86.13
 28.77    5272.00      72.61
 28.87    4114.00      64.14
 28.97    4248.00      65.18
 29.07    4916.00      70.11
 29.17    5335.00      73.04
 29.27    4918.64      70.13
 29.37    3904.70      62.49
 29.47    2899.00      53.84
 29.57    1997.00      44.69
 29.67    1416.00      37.63
 29.77    1216.00      34.87
 29.87    1017.00      31.89
 29.97     934.00      30.56
 30.07     809.47      28.45
 30.17     840.47      28.99
 30.27     791.72      28.14
 30.37     806.00      28.39
 30.47     763.00      27.62
 30.57     748.00      27.35
 30.67     714.14      26.72
 30.77     716.89      26.77
 30.87     787.00      28.05
 30.97     810.00      28.46
 31.07     852.00      29.19
 31.17     835.00      28.90
 31.27     841.00      29.00
 31.37     839.00      28.97
 31.47     790.00      28.11
 31.57     767.00      27.69
 31.67     717.81      26.79
 31.77     711.51      26.67
 31.87     745.00      27.29
 31.97     655.12      25.60
 32.07     677.00      26.02
 32.17     651.16      25.52
 32.27     616.23      24.82
 32.37     664.00      25.77
 32.47     712.00      26.68
 32.57     639.82      25.29
 32.67     656.00      25.61
 32.77     671.94      25.92
 32.87     667.99      25.85
 32.97     711.00      26.66
 33.07     698.03      26.42
 33.17     719.00      26.81
 33.27     629.23      25.08
 33.37     734.00      27.09
 33.47     700.00      26.46
 33.57     707.00      26.59
 33.67     700.00      26.46
 33.77     711.00      26.66
 33.87     793.00      28.16
 33.97     915.00      30.25
 34.07    1008.00      31.75
 34.17    1100.26      33.17
 34.27    1326.16      36.42
 34.37    1362.00      36.91
 34.47    1272.34      35.67
 34.57    1198.00      34.61
 34.67     994.00      31.53
 34.77     930.34      30.50
 34.87     796.00      28.21
 34.97     767.00      27.69
 35.07     668.38      25.85
 35.17     738.00      27.17
 35.27     713.74      26.72
 35.37     666.00      25.81
 35.47     691.00      26.29
 35.57     640.20      25.30
 35.67     665.00      25.79
 35.77     643.00      25.36
 35.87     661.93      25.73
 35.97     646.00      25.42
 36.07     680.00      26.08
 36.17     636.01      25.22
 36.27     637.00      25.24
 36.37     611.30      24.72
 36.47     689.54      26.26
 36.57     670.00      25.88
 36.67     657.14      25.63
 36.77     632.00      25.14
 36.87     645.00      25.40
 36.97     593.89      24.37
 37.07     608.00      24.66
 37.17     648.00      25.46
 37.27     644.00      25.38
 37.37     636.00      25.22
 37.47     603.01      24.56
 37.57     656.00      25.61
 37.67     678.00      26.04
 37.77     680.00      26.08
 37.87     686.40      26.20
 37.97     708.59      26.62
 38.07     746.38      27.32
 38.17     765.00      27.66
 38.27     833.03      28.86
 38.37     843.97      29.05
 38.47     722.00      26.87
 38.57     804.00      28.35
 38.67     731.00      27.04
 38.77     659.00      25.67
 38.87     712.00      26.68
 38.97     660.00      25.69
 39.07     658.00      25.65
 39.17     623.00      24.96
 39.27     633.00      25.16
 39.37     632.00      25.14
 39.47     645.00      25.40
 39.57     658.00      25.65
 39.67     639.00      25.28
 39.77     645.00      25.40
 39.87     666.00      25.81
 39.97     595.00      24.39
 40.07     662.34      25.74
 40.17     656.38      25.62
 40.27     682.00      26.12
 40.37     686.14      26.19
 40.47     601.91      24.53
 40.57     608.53      24.67
 40.67     647.00      25.44
 40.77     675.07      25.98
 40.87     633.00      25.16
 40.97     642.00      25.34
 41.07     604.38      24.58
 41.17     599.11      24.48
 41.27     639.12      25.28
 41.37     656.00      25.61
 41.47     624.54      24.99
 41.57     645.00      25.40
 41.67     645.00      25.40
 41.77     675.00      25.98
 41.87     674.25      25.97
 41.97     659.00      25.67
 42.07     625.00      25.00
 42.17     650.00      25.50
 42.27     629.00      25.08
 42.37     698.00      26.42
 42.47     623.00      24.96
 42.57     654.00      25.57
 42.67     664.00      25.77
 42.77     685.00      26.17
 42.87     681.05      26.10
 42.97     713.73      26.72
 43.07     737.00      27.15
 43.17     713.00      26.70
 43.27     703.00      26.51
 43.37     715.00      26.74
 43.47     678.00      26.04
 43.57     715.29      26.74
 43.67     700.75      26.47
 43.77     723.00      26.89
 43.87     695.00      26.36
 43.97     692.00      26.31
 44.07     612.95      24.76
 44.17     689.00      26.25
 44.27     643.00      25.36
 44.37     672.61      25.93
 44.47     685.63      26.18
 44.57     630.00      25.10
 44.67     690.34      26.27
 44.77     666.10      25.81
 44.87     681.85      26.11
 44.97     637.14      25.24
 45.07     616.05      24.82
 45.17     625.00      25.00
 45.27     679.10      26.06
 45.37     637.00      25.24
 45.47     625.49      25.01
 45.57     639.10      25.28
 45.67     679.00      26.06
 45.77     682.93      26.13
 45.87     665.00      25.79
 45.97     673.46      25.95
 46.07     670.57      25.90
 46.17     629.08      25.08
 46.27     671.73      25.92
 46.37     670.00      25.88
 46.47     655.68      25.61
 46.57     605.00      24.60
 46.67     638.00      25.26
 46.77     623.57      24.97
 46.87     681.00      26.10
 46.97     611.36      24.73
 47.07     633.00      25.16
 47.17     654.11      25.58
 47.27     675.00      25.98
 47.37     616.00      24.82
 47.47     669.00      25.87
 47.57     691.34      26.29
 47.67     618.45      24.87
 47.77     696.17      26.38
 47.87     675.49      25.99
 47.97     680.84      26.09
 48.07     708.00      26.61
 48.17     791.00      28.12
 48.27     761.36      27.59
 48.37     757.78      27.53
 48.47     730.00      27.02
 48.57     748.00      27.35
 48.67     669.00      25.87
 48.77     664.00      25.77
 48.87     698.00      26.42
 48.97     659.69      25.68
 49.07     676.00      26.00
 49.17     716.43      26.77
 49.27     706.42      26.58
 49.37     706.00      26.57
 49.47     730.00      27.02
 49.57     724.91      26.92
 49.67     755.00      27.48
 49.77     750.00      27.39
 49.87     829.00      28.79
 49.97     970.00      31.14
 50.07    1151.11      33.93
 50.17    1524.00      39.04
 50.27    1873.00      43.28
 50.37    2408.12      49.07
 50.47    2889.00      53.75
 50.57    3381.69      58.15
 50.67    3221.00      56.75
 50.77    3182.00      56.41
 50.87    2630.00      51.28
 50.97    2084.00      45.65
 51.07    1694.93      41.17
 51.17    1250.00      35.36
 51.27    1030.00      32.09
 51.37     975.00      31.22
 51.47     817.90      28.60
 51.57     869.00      29.48
 51.67     780.00      27.93
 51.77     765.49      27.67
 51.87     828.00      28.77
 51.97     730.65      27.03
 52.07     790.00      28.11
 52.17     761.00      27.59
 52.27     779.00      27.91
 52.37     743.50      27.27
 52.47     784.73      28.01
 52.57     767.00      27.69
 52.67     708.12      26.61
 52.77     752.00      27.42
 52.87     735.29      27.12
 52.97     766.00      27.68
 53.07     707.04      26.59
 53.17     764.25      27.65
 53.27     745.00      27.29
 53.37     811.00      28.48
 53.47     863.53      29.39
 53.57     947.00      30.77
 53.67     991.28      31.48
 53.77    1097.00      33.12
 53.87    1230.00      35.07
 53.97    1290.55      35.92
 54.07    1369.00      37.00
 54.17    1301.00      36.07
 54.27    1251.82      35.38
 54.37    1171.03      34.22
 54.47    1059.00      32.54
 54.57     976.00      31.24
 54.67     846.00      29.09
 54.77     799.00      28.27
 54.87     757.04      27.51
 54.97     690.52      26.28
 55.07     747.00      27.33
 55.17     705.35      26.56
 55.27     741.00      27.22
 55.37     709.00      26.63
 55.47     728.28      26.99
 55.57     730.00      27.02
 55.67     713.00      26.70
 55.77     770.18      27.75
 55.87     714.00      26.72
 55.97     742.00      27.24
 56.07     752.00      27.42
 56.17     707.00      26.59
 56.27     747.00      27.33
 56.37     813.00      28.51
 56.47     787.00      28.05
 56.57     878.94      29.65
 56.67    1005.00      31.70
 56.77    1189.91      34.50
 56.87    1452.22      38.11
 56.97    1734.34      41.65
 57.07    2014.00      44.88
 57.17    2344.00      48.41
 57.27    2646.00      51.44
 57.37    2795.00      52.87
 57.47    2768.00      52.61
 57.57    2592.72      50.92
 57.67    2298.00      47.94
 57.77    1889.77      43.47
 57.87    1645.00      40.56
 57.97    1426.09      37.76
 58.07    1168.00      34.18
 58.17    1009.00      31.76
 58.27     888.00      29.80
 58.37     917.00      30.28
 58.47     828.00      28.77
 58.57     818.85      28.62
 58.67     890.00      29.83
 58.77     909.00      30.15
 58.87     974.18      31.21
 58.97    1009.00      31.76
 59.07    1112.16      33.35
 59.17    1234.00      35.13
 59.27    1305.00      36.12
 59.37    1323.00      36.37
 59.47    1338.00      36.58
 59.57    1367.00      36.97
 59.67    1390.00      37.28
 59.77    1356.00      36.82
 59.87    1277.00      35.74
 59.97    1296.89      36.01
 60.07    1264.00      35.55
 60.17    1329.00      36.46
 60.27    1267.32      35.60
 60.37    1458.00      38.18
 60.47    1556.00      39.45
 60.57    1528.12      39.09
 60.67    1616.00      40.20
 60.77    1647.53      40.59
 60.87    1567.00      39.59
 60.97    1562.69      39.53
 61.07    1450.09      38.08
 61.17    1211.23      34.80
 61.27    1124.83      33.54
 61.37     999.00      31.61
 61.47     913.00      30.22
 61.57     843.83      29.05
 61.67     909.20      30.15
 61.77     834.62      28.89
 61.87     894.00      29.90
 61.97     950.00      30.82
 62.07    1042.52      32.29
 62.17    1158.00      34.03
 62.27    1236.00      35.16
 62.37    1463.00      38.25
 62.47    1592.00      39.90
 62.57    1847.00      42.98
 62.67    1946.00      44.11
 62.77    1864.00      43.17
 62.87    1823.21      42.70
 62.97    1691.28      41.13
 63.07    1549.00      39.36
 63.17    1416.00      37.63
 63.27    1199.91      34.64
 63.37    1124.00      33.53
 63.47     990.87      31.48
 63.57     951.18      30.84
 63.67     800.00      28.28
 63.77     795.00      28.20
 63.87     739.00      27.18
 63.97     824.00      28.71
 64.07     828.68      28.79
 64.17     766.18      27.68
 64.27     781.45      27.95
 64.37     821.00      28.65
 64.47     881.00      29.68
 64.57     917.00      30.28
 64.67    1021.00      31.95
 64.77    1112.00      33.35
 64.87    1229.26      35.06
 64.97    1413.31      37.59
 65.07    1564.00      39.55
 65.17    1693.00      41.15
 65.27    1680.00      40.99
 65.37    1730.25      41.60
 65.47    1729.22      41.58
 65.57    1569.67      39.62
 65.67    1497.00      38.69
 65.77    1278.81      35.76
 65.87    1174.94      34.28
 65.97    1112.72      33.36
 66.07    1001.00      31.64
 66.17     951.74      30.85
 66.27     878.36      29.64
 66.37     895.71      29.93
 66.47     760.00      27.57
 66.57     769.00      27.73
 66.67     816.53      28.58
 66.77     702.00      26.50
 66.87     749.00      27.37
 66.97     737.00      27.15
 67.07     791.07      28.13
 67.17     672.00      25.92
 67.27     731.69      27.05
 67.37     802.16      28.32
 67.47     770.00      27.75
 67.57     795.00      28.20
 67.67     811.83      28.49
 67.77     973.00      31.19
 67.87     932.00      30.53
 67.97    1079.00      32.85
 68.07    1199.00      34.63
 68.17    1433.00      37.85
 68.27    1767.81      42.05
 68.37    1905.68      43.65
 68.47    2135.00      46.21
 68.57    2437.00      49.37
 68.67    2628.00      51.26
 68.77    2523.00      50.23
 68.87    2567.00      50.67
 68.97    2439.00      49.39
 69.07    2188.00      46.78
 69.17    1974.00      44.43
 69.27    1736.00      41.67
 69.37    1488.00      38.57
 69.47    1288.00      35.89
 69.57    1222.00      34.96
 69.67     999.86      31.62
 69.77     978.00      31.27
 69.87     892.00      29.87
 69.97     900.00      30.00
 70.07     866.00      29.43
 70.17     859.00      29.31
 70.27     795.00      28.20
 70.37     762.00      27.60
 70.47     754.92      27.48
 70.57     725.15      26.93
 70.67     763.55      27.63
 70.77     775.00      27.84
 70.87     733.91      27.09
 70.97     659.00      25.67
 71.07     737.00      27.15
 71.17     685.32      26.18
 71.27     732.00      27.06
 71.37     781.00      27.95
 71.47     784.17      28.00
 71.57     778.00      27.89
 71.67     811.00      28.48
 71.77     968.10      31.11
 71.87     986.34      31.41
 71.97    1080.00      32.86
 72.07    1159.03      34.04
 72.17    1302.00      36.08
 72.27    1476.00      38.42
 72.37    1620.00      40.25
 72.47    1855.30      43.07
 72.57    2004.00      44.77
 72.67    2120.00      46.04
 72.77    2120.50      46.05
 72.87    1968.35      44.37
 72.97    1823.00      42.70
 73.07    1711.15      41.37
 73.17    1604.00      40.05
 73.27    1398.61      37.40
 73.37    1233.00      35.11
 73.47    1142.00      33.79
 73.57     981.39      31.33
 73.67     943.00      30.71
 73.77     859.00      29.31
 73.87     828.00      28.77
 73.97     770.00      27.75
 74.07     747.00      27.33
 74.17     697.00      26.40
 74.27     754.00      27.46
 74.37     687.00      26.21
 74.47     712.00      26.68
 74.57     763.86      27.64
 74.67     719.02      26.81
 74.77     715.00      26.74
 74.87     700.00      26.46
 74.97     735.00      27.11
 75.07     677.00      26.02
 75.17     740.00      27.20
 75.27     761.00      27.59
 75.37     760.00      27.57
 75.47     791.00      28.12
 75.57     681.13      26.10
 75.67     773.00      27.80
 75.77     775.00      27.84
 75.87     716.00      26.76
 75.97     722.71      26.88
 76.07     667.68      25.84
 76.17     748.71      27.36
 76.27     754.00      27.46
 76.37     760.00      27.57
 76.47     796.00      28.21
 76.57     763.60      27.63
 76.67     890.00      29.83
 76.77     909.00      30.15
 76.87     930.00      30.50
 76.97     947.00      30.77
 77.07    1028.00      32.06
 77.17    1142.32      33.80
 77.27    1162.00      34.09
 77.37    1118.00      33.44
 77.47    1077.00      32.82
 77.57    1049.00      32.39
 77.67    1032.00      32.12
 77.77     974.66      31.22
 77.87     927.00      30.45
 77.97     886.00      29.77
 78.07     836.34      28.92
 78.17     772.00      27.78
 78.27     777.00      27.87
 78.37     764.03      27.64
 78.47     663.50      25.76
 78.57     695.00      26.36
 78.67     707.00      26.59
 78.77     675.00      25.98
 78.87     633.67      25.17
 78.97     679.00      26.06
 79.07     627.00      25.04
 79.17     706.00      26.57
 79.27     683.00      26.13
 79.37     701.00      26.48
 79.47     666.11      25.81
 79.57     682.00      26.12
 79.67     648.00      25.46
 79.77     661.00      25.71
 79.87     678.95      26.06
 79.97     718.21      26.80
 80.07     670.00      25.88
 80.17     729.01      27.00
 80.27     695.28      26.37
 80.37     659.00      25.67
 80.47     719.00      26.81
 80.57     805.00      28.37
 80.67     755.00      27.48
 80.77     803.12      28.34
 80.87     821.00      28.65
 80.97     901.66      30.03
 81.07    1045.00      32.33
 81.17    1042.00      32.28
 81.27    1154.00      33.97
 81.37    1170.03      34.21
 81.47    1419.00      37.67
 81.57    1459.00      38.20
 81.67    1534.00      39.17
 81.77    1651.00      40.63
 81.87    1643.00      40.53
 81.97    1513.31      38.90
 82.07    1585.00      39.81
 82.17    1547.00      39.33
 82.27    1507.00      38.82
 82.37    1332.10      36.50
 82.47    1280.03      35.78
 82.57    1237.00      35.17
 82.67    1148.00      33.88
 82.77    1052.00      32.43
 82.87     990.68      31.48
 82.97     890.00      29.83
 83.07     819.62      28.63
 83.17     816.00      28.57
 83.27     764.87      27.66
 83.37     761.17      27.59
 83.47     740.00      27.20
 83.57     702.00      26.50
 83.67     648.00      25.46
 83.77     686.17      26.19
 83.87     719.00      26.81
 83.97     690.47      26.28
 84.07     688.00      26.23
 84.17     685.00      26.17
 84.27     759.01      27.55
 84.37     692.84      26.32
 84.47     750.11      27.39
 84.57     750.00      27.39
 84.67     786.78      28.05
 84.77     710.00      26.65
 84.87     651.00      25.51
 84.97     701.91      26.49
 85.07     687.95      26.23
 85.17     773.32      27.81
 85.27     697.00      26.40
 85.37     702.00      26.50
 85.47     668.00      25.85
 85.57     655.00      25.59
 85.67     638.00      25.26
 85.77     638.14      25.26
 85.87     652.00      25.53
 85.97     654.00      25.57
 86.07     622.58      24.95
 86.17     632.83      25.16
 86.27     654.58      25.58
 86.37     742.00      27.24
 86.47     659.00      25.67
 86.57     695.00      26.36
 86.67     674.10      25.96
 86.77     660.00      25.69
 86.87     662.88      25.75
 86.97     699.27      26.44
 87.07     694.00      26.34
 87.17     677.74      26.03
 87.27     735.00      27.11
 87.37     719.04      26.81
 87.47     719.00      26.81
 87.57     709.00      26.63
 87.67     746.00      27.31
 87.77     726.00      26.94
 87.87     691.00      26.29
 87.97     766.00      27.68
 88.07     796.00      28.21
 88.17     774.00      27.82
 88.27     810.00      28.46
 88.37     804.45      28.36
 88.47     758.00      27.53
 88.57     705.18      26.56
 88.67     760.00      27.57
 88.77     719.00      26.81
 88.87     714.00      26.72
 88.97     748.81      27.36
 89.07     670.95      25.90
 89.17     711.00      26.66
 89.27     678.00      26.04
 89.37     728.77      27.00
 89.47     675.00      25.98
 89.57     676.67      26.01
 89.67     707.00      26.59
 89.77     657.00      25.63
 89.87     708.27      26.61
 89.97     672.00      25.92
 90.07     683.09      26.14
 90.17     764.65      27.65
 90.27     730.00      27.02
 90.37     705.00      26.55
 90.47     693.76      26.34
 90.57     674.00      25.96
 90.67     754.00      27.46
 90.77     694.00      26.34
 90.87     656.92      25.63
 90.97     633.00      25.16
 91.07     710.33      26.65
 91.17     665.00      25.79
 91.27     628.00      25.06
 91.37     616.00      24.82
 91.47     589.00      24.27
 91.57     642.00      25.34
 91.67     591.71      24.33
 91.77     622.93      24.96
 91.87     663.20      25.75
 91.97     613.00      24.76
 92.07     617.00      24.84
 92.17     652.00      25.53
 92.27     658.00      25.65
 92.37     612.00      24.74
 92.47     624.62      24.99
 92.57     644.00      25.38
 92.67     654.24      25.58
 92.77     601.79      24.53
 92.87     658.00      25.65
 92.97     622.00      24.94
 93.07     684.00      26.15
 93.17     727.00      26.96
 93.27     686.00      26.19
 93.37     720.00      26.83
 93.47     752.00      27.42
 93.57     737.00      27.15
 93.67     781.34      27.95
 93.77     827.56      28.77
 93.87     862.61      29.37
 93.97     792.00      28.14
 94.07     891.03      29.85
 94.17     807.38      28.41
 94.27     852.00      29.19
 94.37     908.76      30.15
 94.47     868.76      29.47
 94.57     931.00      30.51
 94.67     888.21      29.80
 94.77     974.19      31.21
 94.87     977.00      31.26
 94.97     967.00      31.10
 95.07    1035.00      32.17
 95.17    1007.00      31.73
 95.27    1053.00      32.45
 95.37    1078.00      32.83
 95.47    1104.30      33.23
 95.57    1073.00      32.76
 95.67    1137.00      33.72
 95.77    1101.95      33.20
 95.87    1115.00      33.39
 95.97    1131.00      33.63
 96.07    1118.00      33.44
 96.17    1003.00      31.67
 96.27     985.17      31.39
 96.37     988.00      31.43
 96.47     936.00      30.59
 96.57     930.00      30.50
 96.67     906.18      30.10
 96.77     925.00      30.41
 96.87     870.00      29.50
 96.97     866.00      29.43
 97.07     866.00      29.43
 97.17     965.00      31.06
 97.27     941.69      30.69
 97.37     873.00      29.55
 97.47     921.00      30.35
 97.57    1034.00      32.16
 97.67    1044.31      32.32
 97.77    1145.00      33.84
 97.87    1207.00      34.74
 97.97    1328.00      36.44
 98.07    1366.00      36.96
 98.17    1507.56      38.83
 98.27    1515.00      38.92
 98.37    1565.00      39.56
 98.47    1544.00      39.29
 98.57    1689.01      41.10
 98.67    1654.00      40.67
 98.77    1563.58      39.54
 98.87    1577.00      39.71
 98.97    1541.00      39.26
 99.07    1519.53      38.98
 99.17    1457.00      38.17
 99.27    1368.21      36.99
 99.37    1263.51      35.55
 99.47    1311.47      36.21
 99.57    1253.74      35.41
 99.67    1069.00      32.70
 99.77    1087.00      32.97
 99.87    1074.00      32.77
 99.97    1030.00      32.09
100.07    1070.00      32.71
100.17    1054.00      32.47
100.27    1120.00      33.47
100.37    1146.00      33.85
100.47    1109.00      33.30
100.57    1284.00      35.83
100.67    1303.00      36.10
100.77    1397.00      37.38
100.87    1519.00      38.97
100.97    1517.38      38.95
101.07    1630.00      40.37
101.17    1687.63      41.08
101.27    1860.00      43.13
101.37    1945.00      44.10
101.47    1947.00      44.12
101.57    1980.34      44.50
101.67    2156.00      46.43
101.77    2125.00      46.10
101.87    2245.94      47.39
101.97    2166.51      46.55
102.07    2189.00      46.79
102.17    2116.19      46.00
102.27    2080.53      45.61
102.37    2110.00      45.93
102.47    2049.38      45.27
102.57    1941.00      44.06
102.67    1851.00      43.02
102.77    1822.00      42.68
102.87    1695.24      41.17
102.97    1571.00      39.64
103.07    1532.82      39.15
103.17    1545.24      39.31
103.27    1469.02      38.33
103.37    1484.69      38.53
103.47    1354.00      36.80
103.57    1395.00      37.35
103.67    1283.29      35.82
103.77    1300.24      36.06
103.87    1257.00      35.45
103.97    1222.00      34.96
104.07    1206.00      34.73
104.17    1198.00      34.61
104.27    1141.00      33.78
104.37    1144.33      33.83
104.47     987.34      31.42
104.57    1039.00      32.23
104.67     973.25      31.20
104.77     909.00      30.15
104.87     870.98      29.51
104.97     930.00      30.50
105.07     899.00      29.98
105.17     784.74      28.01
105.27     775.00      27.84
105.37     699.44      26.45
105.47     771.00      27.77
105.57     702.45      26.50
105.67     722.00      26.87
105.77     718.05      26.80
105.87     654.17      25.58
105.97     661.08      25.71
106.07     690.00      26.27
106.17     682.94      26.13
106.27     602.60      24.55
106.37     702.00      26.50
106.47     712.00      26.68
106.57     679.00      26.06
106.67     623.74      24.97
106.77     655.00      25.59
106.87     639.00      25.28
106.97     769.00      27.73
107.07     681.00      26.10
107.17     686.00      26.19
107.27     717.27      26.78
107.37     693.86      26.34
107.47     701.00      26.48
107.57     752.00      27.42
107.67     746.00      27.31
107.77     748.00      27.35
107.87     767.00      27.69
107.97     785.00      28.02
108.07     758.50      27.54
108.17     803.00      28.34
108.27     840.91      29.00
108.37     773.00      27.80
108.47     773.00      27.80
108.57     824.09      28.71
108.67     862.56      29.37
108.77     820.00      28.64
108.87     840.00      28.98
108.97     812.00      28.50
109.07     847.98      29.12
109.17     823.76      28.70
109.27     865.04      29.41
109.37     788.00      28.07
109.47     785.00      28.02
109.57     768.00      27.71
109.67     799.47      28.27
109.77     768.00      27.71
109.87     854.88      29.24
109.97     796.00      28.21
110.07     883.06      29.72
110.17     784.00      28.00
110.27     795.00      28.20
110.37     818.00      28.60
110.47     865.00      29.41
110.57     860.00      29.33
110.67     867.87      29.46
110.77     825.00      28.72
110.87     809.00      28.44
110.97     803.08      28.34
111.07     725.53      26.94
111.17     746.39      27.32
111.27     754.00      27.46
111.37     705.88      26.57
111.47     709.00      26.63
111.57     659.00      25.67
111.67     728.00      26.98
111.77     717.00      26.78
111.87     715.30      26.75
111.97     643.16      25.36
112.07     667.00      25.83
112.17     641.89      25.34
112.27     680.00      26.08
112.37     721.00      26.85
112.47     699.00      26.44
112.57     632.00      25.14
112.67     678.00      26.04
112.77     693.00      26.32
112.87     643.00      25.36
112.97     694.00      26.34
113.07     640.00      25.30
113.17     656.00      25.61
113.27     626.00      25.02
113.37     675.00      25.98
113.47     647.33      25.44
113.57     706.52      26.58
113.67     683.45      26.14
113.77     666.00      25.81
113.87     652.00      25.53
113.97     729.59      27.01
114.07     682.00      26.12
114.17     694.00      26.34
114.27     688.00      26.23
114.37     722.00      26.87
114.47     690.00      26.27
114.57     777.76      27.89
114.67     802.11      28.32
114.77     713.00      26.70
114.87     745.33      27.30
114.97     811.00      28.48
115.07     794.00      28.18
115.17     924.45      30.40
115.27     862.00      29.36
115.37     970.00      31.14
115.47    1101.21      33.18
115.57    1171.40      34.23
115.67    1150.00      33.91
115.77    1326.00      36.41
115.87    1449.00      38.07
115.97    1537.91      39.22
116.07    1759.00      41.94
116.17    1940.00      44.05
116.27    2198.04      46.88
116.37    2421.00      49.20
116.47    2628.00      51.26
116.57    3073.00      55.43
116.67    3339.00      57.78
116.77    3806.66      61.70
116.87    3978.94      63.08
116.97    4302.00      65.59
117.07    4634.00      68.07
117.17    5234.62      72.35
117.27    5500.22      74.16
117.37    6126.40      78.27
117.47    6179.00      78.61
117.57    6623.00      81.38
117.67    7051.00      83.97
117.77    7330.00      85.62
117.87    7498.00      86.59
117.97    7481.00      86.49
118.07    7570.00      87.01
118.17    7763.73      88.11
118.27    7636.00      87.38
118.37    7427.01      86.18
118.47    7276.00      85.30
118.57    7010.00      83.73
118.67    6668.00      81.66
118.77    6486.30      80.54
118.87    5930.00      77.01
118.97    5723.00      75.65
119.07    5253.00      72.48
119.17    4947.00      70.33
119.27    4599.00      67.82
119.37    4308.00      65.64
119.47    3936.00      62.74
119.57    3628.00      60.23
119.67    3284.00      57.31
119.77    2943.73      54.26
119.87    2651.00      51.49
119.97    2356.00      48.54
120.07    2154.00      46.41
120.17    1866.28      43.20
120.27    1896.00      43.54
120.37    1635.51      40.44
120.47    1420.94      37.70
120.57    1422.00      37.71
120.67    1308.00      36.17
120.77    1268.00      35.61
120.87    1175.00      34.28
120.97    1062.53      32.60
121.07    1074.00      32.77
121.17     994.41      31.53
121.27     959.09      30.97
121.37     946.00      30.76
121.47     916.00      30.27
121.57     908.00      30.13
121.67     811.09      28.48
121.77     846.99      29.10
121.87     803.32      28.34
121.97     792.00      28.14
122.07     751.00      27.40
122.17     751.00      27.40
122.27     766.40      27.68
122.37     717.00      26.78
122.47     770.61      27.76
122.57     752.00      27.42
122.67     719.00      26.81
122.77     724.75      26.92
122.87     751.00      27.40
122.97     732.68      27.07
123.07     801.47      28.31
123.17     747.00      27.33
123.27     826.11      28.74
123.37     756.90      27.51
123.47     792.00      28.14
123.57     801.00      28.30
123.67     782.78      27.98
123.77     784.43      28.01
123.87     777.00      27.87
123.97     802.00      28.32
124.07     847.13      29.11
124.17     803.51      28.35
124.27     760.53      27.58
124.37     887.00      29.78
124.47     769.56      27.74
124.57     840.58      28.99
124.67     867.11      29.45
124.77     853.00      29.21
124.87     839.56      28.98
124.97     849.57      29.15
