  9.97     641.94      25.34
 10.07     702.00      26.50
 10.17     659.00      25.67
 10.27     697.00      26.40
 10.37     634.00      25.18
 10.47     665.00      25.79
 10.57     687.00      26.21
 10.67     568.87      23.85
 10.77     637.00      25.24
 10.87     665.08      25.79
 10.97     636.79      25.23
 11.07     661.92      25.73
 11.17     584.52      24.18
 11.27     674.00      25.96
 11.37     627.00      25.04
 11.47     602.00      24.54
 11.57     703.00      26.51
 11.67     604.88      24.59
 11.77     593.64      24.36
 11.87     691.37      26.29
 11.97     721.00      26.85
 12.07     723.00      26.89
 12.17     757.00      27.51
 12.27     769.00      27.73
 12.37     796.87      28.23
 12.47     666.39      25.81
 12.57     692.49      26.32
 12.67     677.00      26.02
 12.77     658.00      25.65
 12.87     684.02      26.15
 12.97     568.00      23.83
 13.07     617.00      24.84
 13.17     601.00      24.52
 13.27     634.00      25.18
 13.37     605.00      24.60
 13.47     620.00      24.90
 13.57     685.37      26.18
 13.67     624.45      24.99
 13.77     630.00      25.10
 13.87     590.00      24.29
 13.97     649.00      25.48
 14.07     617.00      24.84
 14.17     693.65      26.34
 14.27     635.79      25.21
 14.37     623.00      24.96
 14.47     609.00      24.68
 14.57     628.00      25.06
 14.67     631.71      25.13
 14.77     616.00      24.82
 14.87     622.00      24.94
 14.97     599.00      24.47
 15.07     661.00      25.71
 15.17     628.00      25.06
 15.27     623.00      24.96
 15.37     634.52      25.19
 15.47     697.90      26.42
 15.57     613.00      24.76
 15.67     638.00      25.26
 15.77     669.66      25.88
 15.87     604.13      24.58
 15.97     652.79      25.55
 16.07     690.03      26.27
 16.17     653.17      25.56
 16.27     556.00      23.58
 16.37     662.89      25.75
 16.47     610.00      24.70
 16.57     599.00      24.47
 16.67     609.00      24.68
 16.77     602.00      24.54
 16.87     676.69      26.01
 16.97     647.00      25.44
 17.07     620.83      24.92
 17.17     678.21      26.04
 17.27     584.00      24.17
 17.37     615.93      24.82
 17.47     641.35      25.32
 17.57     687.52      26.22
 17.67     606.00      24.62
 17.77     620.00      24.90
 17.87     586.97      24.23
 17.97     623.00      24.96
 18.07     647.00      25.44
 18.17     692.71      26.32
 18.27     599.29      24.48
 18.37     626.00      25.02
 18.47     607.18      24.64
 18.57     608.00      24.66
 18.67     675.09      25.98
 18.77     578.00      24.04
 18.87     606.00      24.62
 18.97     653.00      25.55
 19.07     643.00      25.36
 19.17     621.00      24.92
 19.27     688.47      26.24
 19.37     569.00      23.85
 19.47     569.00      23.85
 19.57     670.52      25.89
 19.67     618.27      24.87
 19.77     580.05      24.08
 19.87     567.00      23.81
 19.97     626.00      25.02
 20.07     600.00      24.49
 20.17     574.00      23.96
 20.27     602.00      24.54
 20.37     626.00      25.02
 20.47     600.00      24.49
 20.57     685.04      26.17
 20.67     621.00      24.92
 20.77     685.80      26.19
 20.87     604.00      24.58
 20.97     615.00      24.80
 21.07     683.99      26.15
 21.17     603.00      24.56
 21.27     660.00      25.69
 21.37     639.89      25.30
 21.47     631.00      25.12
 21.57     614.00      24.78
 21.67     598.00      24.45
 21.77     559.00      23.64
 21.87     671.88      25.92
 21.97     610.00      24.70
 22.07     602.00      24.54
 22.17     582.00      24.12
 22.27     683.92      26.15
 22.37     659.95      25.69
 22.47     663.10      25.75
 22.57     682.03      26.12
 22.67     556.00      23.58
 22.77     639.00      25.28
 22.87     614.00      24.78
 22.97     633.28      25.17
 23.07     600.00      24.49
 23.17     633.00      25.16
 23.27     642.38      25.35
 23.37     643.38      25.37
 23.47     576.71      24.01
 23.57     686.29      26.20
 23.67     608.00      24.66
 23.77     670.00      25.88
 23.87     611.00      24.72
 23.97     637.00      25.24
 24.07     630.24      25.10
 24.17     685.24      26.18
 24.27     628.00      25.06
 24.37     631.92      25.14
 24.47     676.00      26.00
 24.57     701.66      26.49
 24.67     684.39      26.16
 24.77     733.26      27.08
 24.87     711.00      26.66
 24.97     768.97      27.73
 25.07     696.00      26.38
 25.17     751.00      27.40
 25.27     628.40      25.07
 25.37     599.47      24.48
 25.47     614.25      24.78
 25.57     672.00      25.92
 25.67     582.65      24.14
 25.77     661.68      25.72
 25.87     645.86      25.41
 25.97     631.00      25.12
 26.07     664.69      25.78
 26.17     678.00      26.04
 26.27     681.60      26.11
 26.37     583.42      24.15
 26.47     661.00      25.71
 26.57     717.00      26.78
 26.67     683.01      26.13
 26.77     726.00      26.94
 26.87     645.00      25.40
 26.97     703.00      26.51
 27.07     674.96      25.98
 27.17     686.14      26.19
 27.27     716.00      26.76
 27.37     704.00      26.53
 27.47     757.00      27.51
 27.57     647.25      25.44
 27.67     745.00      27.29
 27.77     745.00      27.29
 27.87     744.00      27.28
 27.97     832.00      28.84
 28.07     841.00      29.00
 28.17     910.00      30.17
 28.27    1053.00      32.45
 28.37    1047.00      32.36
 28.47    1060.00      32.56
 28.57     831.54      28.84
 28.67     865.94      29.43
 28.77     930.00      30.50
 28.87     986.00      31.40
 28.97     946.00      30.76
 29.07     978.00      31.27
 29.17     988.00      31.43
 29.27     758.78      27.55
 29.37     752.68      27.44
 29.47     689.66      26.26
 29.57     697.68      26.41
 29.67     706.00      26.57
 29.77     587.51      24.24
 29.87     776.00      27.86
 29.97     723.00      26.89
 30.07     768.00      27.71
 30.17     726.00      26.94
 30.27     626.40      25.03
 30.37     633.50      25.17
 30.47     708.00      26.61
 30.57     644.00      25.38
 30.67     657.51      25.64
 30.77     727.00      26.96
 30.87     690.00      26.27
 30.97     749.00      27.37
 31.07     719.00      26.81
 31.17     660.52      25.70
 31.27     692.03      26.31
 31.37     684.00      26.15
 31.47     654.00      25.57
 31.57     634.00      25.18
 31.67     604.00      24.58
 31.77     655.00      25.59
 31.87     579.00      24.06
 31.97     607.00      24.64
 32.07     573.71      23.95
 32.17     629.00      25.08
 32.27     620.00      24.90
 32.37     632.00      25.14
 32.47     588.00      24.25
 32.57     605.88      24.61
 32.67     595.00      24.39
 32.77     606.00      24.62
 32.87     647.22      25.44
 32.97     589.00      24.27
 33.07     612.00      24.74
 33.17     548.75      23.43
 33.27     624.00      24.98
 33.37     587.00      24.23
 33.47     653.06      25.56
 33.57     620.00      24.90
 33.67     665.09      25.79
 33.77     706.00      26.57
 33.87     834.88      28.89
 33.97     864.75      29.41
 34.07     966.00      31.08
 34.17    1015.00      31.86
 34.27     994.73      31.54
 34.37    1012.00      31.81
 34.47     899.90      30.00
 34.57     825.59      28.73
 34.67     732.34      27.06
 34.77     661.00      25.71
 34.87     633.00      25.16
 34.97     573.00      23.94
 35.07     568.00      23.83
 35.17     627.00      25.04
 35.27     596.00      24.41
 35.37     645.39      25.40
 35.47     534.94      23.13
 35.57     551.00      23.47
 35.67     546.00      23.37
 35.77     531.00      23.04
 35.87     599.00      24.47
 35.97     527.16      22.96
 36.07     574.00      23.96
 36.17     566.00      23.79
 36.27     534.00      23.11
 36.37     552.00      23.49
 36.47     577.99      24.04
 36.57     529.00      23.00
 36.67     520.17      22.81
 36.77     551.00      23.47
 36.87     578.00      24.04
 36.97     541.00      23.26
 37.07     613.00      24.76
 37.17     516.00      22.72
 37.27     524.00      22.89
 37.37     534.23      23.11
 37.47     548.00      23.41
 37.57     599.81      24.49
 37.67     573.00      23.94
 37.77     564.00      23.75
 37.87     620.00      24.90
 37.97     565.00      23.77
 38.07     579.00      24.06
 38.17     528.00      22.98
 38.27     549.00      23.43
 38.37     561.00      23.69
 38.47     604.75      24.59
 38.57     561.00      23.69
 38.67     600.00      24.49
 38.77     567.00      23.81
 38.87     611.06      24.72
 38.97     560.00      23.66
 39.07     605.13      24.60
 39.17     519.00      22.78
 39.27     506.00      22.49
 39.37     590.96      24.31
 39.47     554.94      23.56
 39.57     529.00      23.00
 39.67     567.63      23.82
 39.77     559.00      23.64
 39.87     536.00      23.15
 39.97     499.10      22.34
 40.07     537.88      23.19
 40.17     548.00      23.41
 40.27     542.00      23.28
 40.37     534.00      23.11
 40.47     516.09      22.72
 40.57     535.00      23.13
 40.67     537.38      23.18
 40.77     531.89      23.06
 40.87     562.21      23.71
 40.97     552.00      23.49
 41.07     523.00      22.87
 41.17     577.00      24.02
 41.27     501.76      22.40
 41.37     511.57      22.62
 41.47     520.20      22.81
 41.57     526.00      22.93
 41.67     549.99      23.45
 41.77     558.00      23.62
 41.87     513.37      22.66
 41.97     516.00      22.72
 42.07     587.13      24.23
 42.17     613.68      24.77
 42.27     561.47      23.70
 42.37     524.00      22.89
 42.47     550.00      23.45
 42.57     624.53      24.99
 42.67     600.00      24.49
 42.77     606.00      24.62
 42.87     687.91      26.23
 42.97     603.00      24.56
 43.07     653.94      25.57
 43.17     570.18      23.88
 43.27     652.07      25.54
 43.37     529.00      23.00
 43.47     577.00      24.02
 43.57     553.00      23.52
 43.67     548.00      23.41
 43.77     546.79      23.38
 43.87     493.08      22.21
 43.97     531.00      23.04
 44.07     560.00      23.66
 44.17     539.00      23.22
 44.27     516.00      22.72
 44.37     539.00      23.22
 44.47     527.55      22.97
 44.57     541.00      23.26
 44.67     519.26      22.79
 44.77     541.00      23.26
 44.87     573.00      23.94
 44.97     494.31      22.23
 45.07     552.00      23.49
 45.17     560.05      23.67
 45.27     543.00      23.30
 45.37     566.43      23.80
 45.47     524.48      22.90
 45.57     547.12      23.39
 45.67     561.00      23.69
 45.77     517.04      22.74
 45.87     553.00      23.52
 45.97     553.00      23.52
 46.07     521.00      22.83
 46.17     501.01      22.38
 46.27     566.00      23.79
 46.37     568.00      23.83
 46.47     506.59      22.51
 46.57     555.00      23.56
 46.67     529.00      23.00
 46.77     489.00      22.11
 46.87     588.10      24.25
 46.97     557.00      23.60
 47.07     524.00      22.89
 47.17     572.59      23.93
 47.27     531.13      23.05
 47.37     575.21      23.98
 47.47     524.88      22.91
 47.57     567.00      23.81
 47.67     564.00      23.75
 47.77     597.00      24.43
 47.87     597.00      24.43
 47.97     666.00      25.81
 48.07     613.00      24.76
 48.17     590.33      24.30
 48.27     618.00      24.86
 48.37     579.00      24.06
 48.47     616.00      24.82
 48.57     550.00      23.45
 48.67     565.77      23.79
 48.77     610.00      24.70
 48.87     600.00      24.49
 48.97     616.00      24.82
 49.07     613.00      24.76
 49.17     560.53      23.68
 49.27     589.20      24.27
 49.37     578.00      24.04
 49.47     684.83      26.17
 49.57     627.00      25.04
 49.67     707.00      26.59
 49.77     897.41      29.96
 49.87     923.00      30.38
 49.97    1136.00      33.70
 50.07    1484.00      38.52
 50.17    1869.00      43.23
 50.27    2206.00      46.97
 50.37    2338.74      48.36
 50.47    2264.62      47.59
 50.57    2138.00      46.24
 50.67    1825.17      42.72
 50.77    1594.66      39.93
 50.87    1057.00      32.51
 50.97     976.00      31.24
 51.07     830.00      28.81
 51.17     726.05      26.95
 51.27     679.65      26.07
 51.37     686.00      26.19
 51.47     685.00      26.17
 51.57     656.00      25.61
 51.67     607.00      24.64
 51.77     643.36      25.36
 51.87     648.00      25.46
 51.97     652.00      25.53
 52.07     609.00      24.68
 52.17     623.00      24.96
 52.27     643.00      25.36
 52.37     591.00      24.31
 52.47     570.52      23.89
 52.57     607.00      24.64
 52.67     533.16      23.09
 52.77     582.00      24.12
 52.87     579.18      24.07
 52.97     689.00      26.25
 53.07     684.00      26.15
 53.17     725.00      26.93
 53.27     870.24      29.50
 53.37     841.22      29.00
 53.47    1026.00      32.03
 53.57    1093.98      33.08
 53.67    1192.00      34.53
 53.77    1198.00      34.61
 53.87    1228.00      35.04
 53.97    1127.00      33.57
 54.07    1040.00      32.25
 54.17     964.81      31.06
 54.27     866.98      29.44
 54.37     738.00      27.17
 54.47     709.00      26.63
 54.57     651.00      25.51
 54.67     642.00      25.34
 54.77     552.67      23.51
 54.87     604.00      24.58
 54.97     606.00      24.62
 55.07     553.65      23.53
 55.17     577.00      24.02
 55.27     560.61      23.68
 55.37     637.00      25.24
 55.47     549.83      23.45
 55.57     634.00      25.18
 55.67     631.00      25.12
 55.77     657.00      25.63
 55.87     621.00      24.92
 55.97     622.00      24.94
 56.07     684.00      26.15
 56.17     693.00      26.32
 56.27     800.00      28.28
 56.37     857.87      29.29
 56.47    1020.79      31.95
 56.57    1240.59      35.22
 56.67    1371.00      37.03
 56.77    1829.13      42.77
 56.87    2043.29      45.20
 56.97    2312.00      48.08
 57.07    2432.24      49.32
 57.17    2469.11      49.69
 57.27    2390.00      48.89
 57.37    2190.38      46.80
 57.47    1812.00      42.57
 57.57    1507.04      38.82
 57.67    1326.26      36.42
 57.77    1084.25      32.93
 57.87     936.00      30.59
 57.97     838.00      28.95
 58.07     740.00      27.20
 58.17     732.00      27.06
 58.27     748.00      27.35
 58.37     767.50      27.70
 58.47     807.00      28.41
 58.57     813.71      28.53
 58.67     904.31      30.07
 58.77     872.85      29.54
 58.87    1068.00      32.68
 58.97    1075.00      32.79
 59.07    1186.00      34.44
 59.17    1233.00      35.11
 59.27    1230.00      35.07
 59.37    1214.00      34.84
 59.47    1311.00      36.21
 59.57    1284.00      35.83
 59.67    1217.00      34.89
 59.77    1198.00      34.61
 59.87    1248.90      35.34
 59.97    1224.00      34.99
 60.07    1206.53      34.74
 60.17    1367.00      36.97
 60.27    1445.00      38.01
 60.37    1617.00      40.21
 60.47    1576.00      39.70
 60.57    1592.00      39.90
 60.67    1543.99      39.29
 60.77    1340.00      36.61
 60.87    1243.00      35.26
 60.97    1143.93      33.82
 61.07     947.00      30.77
 61.17     872.00      29.53
 61.27     811.00      28.48
 61.37     792.46      28.15
 61.47     723.00      26.89
 61.57     773.00      27.80
 61.67     760.00      27.57
 61.77     806.09      28.39
 61.87     858.00      29.29
 61.97    1019.00      31.92
 62.07    1016.00      31.87
 62.17    1145.00      33.84
 62.27    1341.40      36.63
 62.37    1323.00      36.37
 62.47    1457.86      38.18
 62.57    1344.00      36.66
 62.67    1200.81      34.65
 62.77    1122.00      33.50
 62.87     982.47      31.34
 62.97     908.00      30.13
 63.07     860.80      29.34
 63.17     752.20      27.43
 63.27     652.21      25.54
 63.37     673.00      25.94
 63.47     645.00      25.40
 63.57     629.09      25.08
 63.67     628.00      25.06
 63.77     629.00      25.08
 63.87     662.00      25.73
 63.97     611.00      24.72
 64.07     674.23      25.97
 64.17     694.73      26.36
 64.27     743.00      27.26
 64.37     778.00      27.89
 64.47     824.00      28.71
 64.57     959.12      30.97
 64.67     878.40      29.64
 64.77     960.89      31.00
 64.87     999.64      31.62
 64.97    1081.92      32.89
 65.07    1104.00      33.23
 65.17    1040.59      32.26
 65.27    1009.10      31.77
 65.37     885.26      29.75
 65.47     800.00      28.28
 65.57     775.00      27.84
 65.67     763.00      27.62
 65.77     726.00      26.94
 65.87     664.00      25.77
 65.97     653.72      25.57
 66.07     652.00      25.53
 66.17     606.87      24.63
 66.27     650.00      25.50
 66.37     601.00      24.52
 66.47     621.00      24.92
 66.57     665.00      25.79
 66.67     623.00      24.96
 66.77     629.00      25.08
 66.87     591.00      24.31
 66.97     642.00      25.34
 67.07     600.45      24.50
 67.17     723.07      26.89
 67.27     748.00      27.35
 67.37     733.00      27.07
 67.47     858.58      29.30
 67.57     932.42      30.54
 67.67    1009.56      31.77
 67.77    1153.50      33.96
 67.87    1500.93      38.74
 67.97    1581.00      39.76
 68.07    1852.39      43.04
 68.17    2086.00      45.67
 68.27    2277.00      47.72
 68.37    2325.00      48.22
 68.47    2343.00      48.40
 68.57    2178.00      46.67
 68.67    2124.00      46.09
 68.77    1851.86      43.03
 68.87    1564.90      39.56
 68.97    1347.52      36.71
 69.07    1219.00      34.91
 69.17    1022.86      31.98
 69.27     940.32      30.66
 69.37     777.00      27.87
 69.47     704.12      26.54
 69.57     734.00      27.09
 69.67     643.00      25.36
 69.77     601.15      24.52
 69.87     678.00      26.04
 69.97     648.00      25.46
 70.07     603.00      24.56
 70.17     627.00      25.04
 70.27     634.00      25.18
 70.37     642.00      25.34
 70.47     628.00      25.06
 70.57     586.02      24.21
 70.67     613.61      24.77
 70.77     591.31      24.32
 70.87     659.00      25.67
 70.97     681.73      26.11
 71.07     665.00      25.79
 71.17     638.00      25.26
 71.27     712.00      26.68
 71.37     783.00      27.98
 71.47     826.00      28.74
 71.57     907.02      30.12
 71.67    1077.23      32.82
 71.77    1102.00      33.20
 71.87    1362.12      36.91
 71.97    1470.00      38.34
 72.07    1564.00      39.55
 72.17    1656.93      40.71
 72.27    1894.35      43.52
 72.37    1906.00      43.66
 72.47    1781.99      42.21
 72.57    1817.60      42.63
 72.67    1532.16      39.14
 72.77    1509.00      38.85
 72.87    1371.00      37.03
 72.97    1216.00      34.87
 73.07    1066.00      32.65
 73.17     962.00      31.02
 73.27     861.00      29.34
 73.37     808.00      28.43
 73.47     732.00      27.06
 73.57     713.00      26.70
 73.67     682.17      26.12
 73.77     698.00      26.42
 73.87     615.83      24.82
 73.97     655.63      25.61
 74.07     606.00      24.62
 74.17     567.00      23.81
 74.27     611.89      24.74
 74.37     642.00      25.34
 74.47     560.74      23.68
 74.57     546.57      23.38
 74.67     623.66      24.97
 74.77     624.00      24.98
 74.87     573.13      23.94
 74.97     640.00      25.30
 75.07     537.70      23.19
 75.17     627.00      25.04
 75.27     647.00      25.44
 75.37     518.55      22.77
 75.47     645.00      25.40
 75.57     631.30      25.13
 75.67     605.00      24.60
 75.77     540.92      23.26
 75.87     611.00      24.72
 75.97     611.00      24.72
 76.07     661.00      25.71
 76.17     668.00      25.85
 76.27     610.53      24.71
 76.37     663.00      25.75
 76.47     726.55      26.95
 76.57     706.47      26.58
 76.67     665.00      25.79
 76.77     750.00      27.39
 76.87     715.00      26.74
 76.97     693.00      26.32
 77.07     747.00      27.33
 77.17     650.17      25.50
 77.27     691.00      26.29
 77.37     655.00      25.59
 77.47     680.00      26.08
 77.57     628.90      25.08
 77.67     643.73      25.37
 77.77     599.00      24.47
 77.87     555.00      23.56
 77.97     592.00      24.33
 78.07     589.59      24.28
 78.17     537.00      23.17
 78.27     552.00      23.49
 78.37     528.51      22.99
 78.47     533.00      23.09
 78.57     493.48      22.21
 78.67     579.00      24.06
 78.77     557.00      23.60
 78.87     564.00      23.75
 78.97     526.00      22.93
 79.07     558.00      23.62
 79.17     534.00      23.11
 79.27     533.64      23.10
 79.37     497.08      22.30
 79.47     496.00      22.27
 79.57     574.05      23.96
 79.67     539.00      23.22
 79.77     531.01      23.04
 79.87     538.00      23.19
 79.97     621.00      24.92
 80.07     599.88      24.49
 80.17     603.27      24.56
 80.27     526.98      22.96
 80.37     572.00      23.92
 80.47     606.44      24.63
 80.57     598.00      24.45
 80.67     655.00      25.59
 80.77     631.96      25.14
 80.87     649.02      25.48
 80.97     684.24      26.16
 81.07     711.00      26.66
 81.17     652.00      25.53
 81.27     660.00      25.69
 81.37     707.00      26.59
 81.47     754.71      27.47
 81.57     754.00      27.46
 81.67     739.00      27.18
 81.77     727.00      26.96
 81.87     756.00      27.50
 81.97     737.00      27.15
 82.07     753.52      27.45
 82.17     800.58      28.29
 82.27     731.00      27.04
 82.37     745.69      27.31
 82.47     685.00      26.17
 82.57     688.00      26.23
 82.67     663.23      25.75
 82.77     661.00      25.71
 82.87     586.48      24.22
 82.97     677.94      26.04
 83.07     607.00      24.64
 83.17     612.00      24.74
 83.27     635.38      25.21
 83.37     646.80      25.43
 83.47     591.12      24.31
 83.57     557.03      23.60
 83.67     576.85      24.02
 83.77     586.00      24.21
 83.87     575.00      23.98
 83.97     567.00      23.81
 84.07     606.00      24.62
 84.17     573.00      23.94
 84.27     639.95      25.30
 84.37     594.15      24.38
 84.47     562.00      23.71
 84.57     583.00      24.15
 84.67     585.16      24.19
 84.77     566.00      23.79
 84.87     604.00      24.58
 84.97     551.00      23.47
 85.07     598.00      24.45
 85.17     565.77      23.79
 85.27     595.50      24.40
 85.37     529.00      23.00
 85.47     574.00      23.96
 85.57     563.00      23.73
 85.67     517.00      22.74
 85.77     583.80      24.16
 85.87     547.00      23.39
 85.97     546.00      23.37
 86.07     546.00      23.37
 86.17     523.00      22.87
 86.27     553.00      23.52
 86.37     554.93      23.56
 86.47     499.00      22.34
 86.57     596.59      24.43
 86.67     586.81      24.22
 86.77     576.88      24.02
 86.87     611.00      24.72
 86.97     595.31      24.40
 87.07     578.00      24.04
 87.17     573.00      23.94
 87.27     611.00      24.72
 87.37     656.00      25.61
 87.47     598.00      24.45
 87.57     676.17      26.00
 87.67     626.45      25.03
 87.77     673.00      25.94
 87.87     635.00      25.20
 87.97     646.95      25.44
 88.07     659.00      25.67
 88.17     694.07      26.35
 88.27     650.91      25.51
 88.37     633.63      25.17
 88.47     573.16      23.94
 88.57     629.00      25.08
 88.67     606.00      24.62
 88.77     643.24      25.36
 88.87     562.20      23.71
 88.97     554.29      23.54
 89.07     562.00      23.71
 89.17     572.00      23.92
 89.27     650.24      25.50
 89.37     631.79      25.14
 89.47     660.00      25.69
 89.57     629.00      25.08
 89.67     648.00      25.46
 89.77     666.12      25.81
 89.87     623.00      24.96
 89.97     596.00      24.41
 90.07     626.00      25.02
 90.17     648.39      25.46
 90.27     600.00      24.49
 90.37     586.00      24.21
 90.47     567.00      23.81
 90.57     561.48      23.70
 90.67     537.00      23.17
 90.77     516.88      22.74
 90.87     551.25      23.48
 90.97     577.00      24.02
 91.07     520.73      22.82
 91.17     566.73      23.81
 91.27     524.00      22.89
 91.37     537.00      23.17
 91.47     540.00      23.24
 91.57     573.25      23.94
 91.67     514.63      22.69
 91.77     501.00      22.38
 91.87     565.00      23.77
 91.97     539.00      23.22
 92.07     532.00      23.07
 92.17     543.66      23.32
 92.27     515.00      22.69
 92.37     518.00      22.76
 92.47     579.00      24.06
 92.57     559.00      23.64
 92.67     574.00      23.96
 92.77     612.00      24.74
 92.87     601.00      24.52
 92.97     652.00      25.53
 93.07     616.00      24.82
 93.17     613.00      24.76
 93.27     694.00      26.34
 93.37     715.00      26.74
 93.47     726.97      26.96
 93.57     761.45      27.59
 93.67     767.00      27.69
 93.77     765.00      27.66
 93.87     812.00      28.50
 93.97     837.00      28.93
 94.07     808.00      28.43
 94.17     844.00      29.05
 94.27     863.00      29.38
 94.37     877.00      29.61
 94.47     882.00      29.70
 94.57     876.00      29.60
 94.67     917.00      30.28
 94.77     916.00      30.27
 94.87     909.00      30.15
 94.97     968.00      31.11
 95.07     896.00      29.93
 95.17     934.00      30.56
 95.27     976.04      31.24
 95.37     899.00      29.98
 95.47     933.00      30.55
 95.57     879.00      29.65
 95.67     875.00      29.58
 95.77     778.00      27.89
 95.87     829.00      28.79
 95.97     786.54      28.05
 96.07     722.42      26.88
 96.17     728.00      26.98
 96.27     789.00      28.09
 96.37     745.00      27.29
 96.47     748.00      27.35
 96.57     824.20      28.71
 96.67     775.00      27.84
 96.77     797.00      28.23
 96.87     852.28      29.19
 96.97     914.91      30.25
 97.07     945.00      30.74
 97.17     989.73      31.46
 97.27    1074.00      32.77
 97.37    1200.62      34.65
 97.47    1145.53      33.85
 97.57    1276.00      35.72
 97.67    1383.15      37.19
 97.77    1457.00      38.17
 97.87    1429.00      37.80
 97.97    1443.00      37.99
 98.07    1483.00      38.51
 98.17    1488.00      38.57
 98.27    1439.48      37.94
 98.37    1364.90      36.94
 98.47    1422.00      37.71
 98.57    1256.22      35.44
 98.67    1263.00      35.54
 98.77    1163.55      34.11
 98.87    1082.00      32.89
 98.97    1062.00      32.59
 99.07     969.00      31.13
 99.17     966.00      31.08
 99.27     962.00      31.02
 99.37     928.00      30.46
 99.47     901.00      30.02
 99.57     923.00      30.38
 99.67     986.00      31.40
 99.77     989.00      31.45
 99.87    1018.00      31.91
 99.97    1153.96      33.97
100.07    1177.00      34.31
100.17    1297.00      36.01
100.27    1265.00      35.57
100.37    1429.00      37.80
100.47    1556.35      39.45
100.57    1526.00      39.06
100.67    1580.02      39.75
100.77    1818.00      42.64
100.87    1848.00      42.99
100.97    1963.33      44.31
101.07    2063.00      45.42
101.17    1994.00      44.65
101.27    2040.00      45.17
101.37    1977.00      44.46
101.47    2031.00      45.07
101.57    1956.00      44.23
101.67    1867.00      43.21
101.77    1847.75      42.99
101.87    1669.98      40.87
101.97    1693.70      41.15
102.07    1572.00      39.65
102.17    1453.00      38.12
102.27    1473.00      38.38
102.37    1376.00      37.09
102.47    1356.00      36.82
102.57    1356.17      36.83
102.67    1313.00      36.24
102.77    1194.00      34.55
102.87    1202.67      34.68
102.97    1195.00      34.57
103.07    1175.36      34.28
103.17    1088.00      32.98
103.27    1124.00      33.53
103.37    1145.00      33.84
103.47    1065.92      32.65
103.57    1026.00      32.03
103.67     957.00      30.94
103.77     906.00      30.10
103.87     959.45      30.98
103.97     909.00      30.15
104.07     864.00      29.39
104.17     726.07      26.95
104.27     752.00      27.42
104.37     743.99      27.28
104.47     756.00      27.50
104.57     667.00      25.83
104.67     681.00      26.10
104.77     606.16      24.62
104.87     638.00      25.26
104.97     601.00      24.52
105.07     593.00      24.35
105.17     595.38      24.40
105.27     576.00      24.00
105.37     592.00      24.33
105.47     604.55      24.59
105.57     586.00      24.21
105.67     588.00      24.25
105.77     619.67      24.89
105.87     561.00      23.69
105.97     587.00      24.23
106.07     581.00      24.10
106.17     614.57      24.79
106.27     572.54      23.93
106.37     649.00      25.48
106.47     587.00      24.23
106.57     629.00      25.08
106.67     640.00      25.30
106.77     624.00      24.98
106.87     622.12      24.94
106.97     683.00      26.13
107.07     622.00      24.94
107.17     642.00      25.34
107.27     623.31      24.97
107.37     656.47      25.62
107.47     679.00      26.06
107.57     722.00      26.87
107.67     749.00      27.37
107.77     706.68      26.58
107.87     767.20      27.70
107.97     717.00      26.78
108.07     703.56      26.52
108.17     721.46      26.86
108.27     739.00      27.18
108.37     760.00      27.57
108.47     696.51      26.39
108.57     742.00      27.24
108.67     645.00      25.40
108.77     690.00      26.27
108.87     686.30      26.20
108.97     692.58      26.32
109.07     709.00      26.63
109.17     742.76      27.25
109.27     743.08      27.26
109.37     740.67      27.22
109.47     705.00      26.55
109.57     780.50      27.94
109.67     777.00      27.87
109.77     700.00      26.46
109.87     725.00      26.93
109.97     645.15      25.40
110.07     730.71      27.03
110.17     701.00      26.48
110.27     612.94      24.76
110.37     650.07      25.50
110.47     658.80      25.67
110.57     606.00      24.62
110.67     657.00      25.63
110.77     643.00      25.36
110.87     593.00      24.35
110.97     559.00      23.64
111.07     557.88      23.62
111.17     637.05      25.24
111.27     609.00      24.68
111.37     619.00      24.88
111.47     569.00      23.85
111.57     518.92      22.78
111.67     581.00      24.10
111.77     576.00      24.00
111.87     576.19      24.00
111.97     565.19      23.77
112.07     603.00      24.56
112.17     563.00      23.73
112.27     606.00      24.62
112.37     570.43      23.88
112.47     624.43      24.99
112.57     551.00      23.47
112.67     613.00      24.76
112.77     589.00      24.27
112.87     563.00      23.73
112.97     574.00      23.96
113.07     578.00      24.04
113.17     541.43      23.27
113.27     608.00      24.66
113.37     567.49      23.82
113.47     630.87      25.12
113.57     624.00      24.98
113.67     644.77      25.39
113.77     589.33      24.28
113.87     668.00      25.85
113.97     656.00      25.61
114.07     649.00      25.48
114.17     699.00      26.44
114.27     700.00      26.46
114.37     781.00      27.95
114.47     765.00      27.66
114.57     858.00      29.29
114.67     784.00      28.00
114.77     901.00      30.02
114.87     998.00      31.59
114.97    1136.64      33.71
115.07    1270.56      35.64
115.17    1314.00      36.25
115.27    1538.00      39.22
115.37    1681.16      41.00
115.47    1851.00      43.02
115.57    1952.49      44.19
115.67    2289.00      47.84
115.77    2647.00      51.45
115.87    2866.00      53.54
115.97    3238.00      56.90
116.07    3517.89      59.31
116.17    3978.00      63.07
116.27    4164.00      64.53
116.37    4664.00      68.29
116.47    5057.58      71.12
116.57    5414.61      73.58
116.67    5712.00      75.58
116.77    6268.00      79.17
116.87    6147.00      78.40
116.97    6416.34      80.10
117.07    6850.00      82.76
117.17    7139.88      84.50
117.27    6970.00      83.49
117.37    7138.00      84.49
117.47    7121.41      84.39
117.57    6798.82      82.45
117.67    6646.00      81.52
117.77    6381.30      79.88
117.87    5929.00      77.00
117.97    5775.22      75.99
118.07    5595.64      74.80
118.17    5208.00      72.17
118.27    4734.00      68.80
118.37    4565.00      67.56
118.47    4167.59      64.56
118.57    3826.00      61.85
118.67    3445.00      58.69
118.77    3199.69      56.57
118.87    2718.00      52.13
118.97    2546.00      50.46
119.07    2338.00      48.35
119.17    2009.00      44.82
119.27    1832.00      42.80
119.37    1656.00      40.69
119.47    1571.00      39.64
119.57    1354.92      36.81
119.67    1252.88      35.40
119.77    1182.00      34.38
119.87    1115.00      33.39
119.97    1000.00      31.62
120.07     975.00      31.22
120.17     921.00      30.35
120.27     867.00      29.44
120.37     769.00      27.73
120.47     854.74      29.24
120.57     815.88      28.56
120.67     708.70      26.62
120.77     664.58      25.78
120.87     761.00      27.59
120.97     711.00      26.66
121.07     619.00      24.88
121.17     686.00      26.19
121.27     649.00      25.48
121.37     675.70      25.99
121.47     602.00      24.54
121.57     587.00      24.23
121.67     632.41      25.15
121.77     630.00      25.10
121.87     596.12      24.42
121.97     596.00      24.41
122.07     572.77      23.93
122.17     652.00      25.53
122.27     651.00      25.51
122.37     640.00      25.30
122.47     611.00      24.72
122.57     657.00      25.63
122.67     676.00      26.00
122.77     656.00      25.61
122.87     684.00      26.15
122.97     613.93      24.78
123.07     653.00      25.55
123.17     651.00      25.51
123.27     656.00      25.61
123.37     668.00      25.85
123.47     658.00      25.65
123.57     700.72      26.47
123.67     707.00      26.59
123.77     699.00      26.44
123.87     677.81      26.03
123.97     622.88      24.96
124.07     688.42      26.24
124.17     638.00      25.26
124.27     668.32      25.85
124.37     671.10      25.91
124.47     662.95      25.75
124.57     664.00      25.77
124.67     616.00      24.82
124.77     589.73      24.28
124.87     632.96      25.16
124.97     642.00      25.34
