  9.97     682.87      26.13
 10.07     674.00      25.96
 10.17     700.00      26.46
 10.27     703.00      26.51
 10.37     622.00      24.94
 10.47     652.00      25.53
 10.57     630.00      25.10
 10.67     696.73      26.40
 10.77     664.00      25.77
 10.87     642.00      25.34
 10.97     681.00      26.10
 11.07     641.55      25.33
 11.17     678.00      26.04
 11.27     633.92      25.18
 11.37     693.88      26.34
 11.47     641.26      25.32
 11.57     678.00      26.04
 11.67     689.00      26.25
 11.77     657.31      25.64
 11.87     659.18      25.67
 11.97     788.00      28.07
 12.07     753.82      27.46
 12.17     749.44      27.38
 12.27     798.00      28.25
 12.37     788.00      28.07
 12.47     695.31      26.37
 12.57     741.00      27.22
 12.67     667.00      25.83
 12.77     683.00      26.13
 12.87     598.00      24.45
 12.97     623.00      24.96
 13.07     668.00      25.85
 13.17     706.00      26.57
 13.27     634.00      25.18
 13.37     634.00      25.18
 13.47     583.62      24.16
 13.57     618.00      24.86
 13.67     675.20      25.98
 13.77     577.00      24.02
 13.87     637.00      25.24
 13.97     585.24      24.19
 14.07     586.00      24.21
 14.17     621.00      24.92
 14.27     647.00      25.44
 14.37     605.00      24.60
 14.47     618.17      24.86
 14.57     604.00      24.58
 14.67     587.00      24.23
 14.77     582.00      24.12
 14.87     608.00      24.66
 14.97     669.56      25.88
 15.07     643.58      25.37
 15.17     566.00      23.79
 15.27     661.00      25.71
 15.37     644.26      25.38
 15.47     651.00      25.51
 15.57     586.00      24.21
 15.67     613.00      24.76
 15.77     615.00      24.80
 15.87     598.00      24.45
 15.97     620.00      24.90
 16.07     666.00      25.81
 16.17     647.00      25.44
 16.27     647.00      25.44
 16.37     573.32      23.94
 16.47     670.56      25.90
 16.57     627.00      25.04
 16.67     624.00      24.98
 16.77     593.00      24.35
 16.87     644.35      25.38
 16.97     619.00      24.88
 17.07     633.00      25.16
 17.17     579.86      24.08
 17.27     581.58      24.12
 17.37     603.75      24.57
 17.47     607.00      24.64
 17.57     676.22      26.00
 17.67     641.00      25.32
 17.77     636.00      25.22
 17.87     663.66      25.76
 17.97     632.00      25.14
 18.07     600.15      24.50
 18.17     601.00      24.52
 18.27     631.00      25.12
 18.37     590.40      24.30
 18.47     587.10      24.23
 18.57     636.95      25.24
 18.67     601.00      24.52
 18.77     581.00      24.10
 18.87     657.40      25.64
 18.97     657.86      25.65
 19.07     595.00      24.39
 19.17     605.00      24.60
 19.27     600.00      24.49
 19.37     600.00      24.49
 19.47     606.00      24.62
 19.57     610.00      24.70
 19.67     565.00      23.77
 19.77     576.00      24.00
 19.87     565.00      23.77
 19.97     620.62      24.91
 20.07     674.33      25.97
 20.17     626.00      25.02
 20.27     575.92      24.00
 20.37     565.96      23.79
 20.47     590.00      24.29
 20.57     561.00      23.69
 20.67     653.05      25.55
 20.77     627.00      25.04
 20.87     565.00      23.77
 20.97     579.00      24.06
 21.07     582.00      24.12
 21.17     613.00      24.76
 21.27     575.10      23.98
 21.37     612.00      24.74
 21.47     602.00      24.54
 21.57     612.00      24.74
 21.67     565.00      23.77
 21.77     592.00      24.33
 21.87     608.11      24.66
 21.97     589.60      24.28
 22.07     629.00      25.08
 22.17     584.00      24.17
 22.27     597.20      24.44
 22.37     638.00      25.26
 22.47     612.00      24.74
 22.57     627.00      25.04
 22.67     593.00      24.35
 22.77     585.00      24.19
 22.87     592.00      24.33
 22.97     589.00      24.27
 23.07     645.48      25.41
 23.17     647.80      25.45
 23.27     612.00      24.74
 23.37     623.00      24.96
 23.47     572.00      23.92
 23.57     606.43      24.63
 23.67     634.00      25.18
 23.77     643.00      25.36
 23.87     619.00      24.88
 23.97     554.57      23.55
 24.07     586.81      24.22
 24.17     603.80      24.57
 24.27     632.00      25.14
 24.37     578.25      24.05
 24.47     651.92      25.53
 24.57     667.91      25.84
 24.67     641.00      25.32
 24.77     707.00      26.59
 24.87     652.16      25.54
 24.97     689.00      26.25
 25.07     686.00      26.19
 25.17     654.00      25.57
 25.27     705.00      26.55
 25.37     687.00      26.21
 25.47     651.00      25.51
 25.57     649.00      25.48
 25.67     644.00      25.38
 25.77     562.68      23.72
 25.87     639.00      25.28
 25.97     642.00      25.34
 26.07     587.92      24.25
 26.17     651.14      25.52
 26.27     641.00      25.32
 26.37     600.00      24.49
 26.47     609.00      24.68
 26.57     574.78      23.97
 26.67     645.00      25.40
 26.77     645.00      25.40
 26.87     588.75      24.26
 26.97     629.00      25.08
 27.07     659.00      25.67
 27.17     673.00      25.94
 27.27     709.00      26.63
 27.37     687.00      26.21
 27.47     728.00      26.98
 27.57     703.00      26.51
 27.67     764.00      27.64
 27.77     784.00      28.00
 27.87     828.00      28.77
 27.97    1061.99      32.59
 28.07    1297.00      36.01
 28.17    1841.32      42.91
 28.27    2505.28      50.05
 28.37    2801.00      52.92
 28.47    2725.00      52.20
 28.57    2130.00      46.15
 28.67    1771.00      42.08
 28.77    1569.00      39.61
 28.87    1493.00      38.64
 28.97    1685.00      41.05
 29.07    1792.07      42.33
 29.17    1726.00      41.55
 29.27    1574.00      39.67
 29.37    1244.00      35.27
 29.47    1033.00      32.14
 29.57     880.00      29.66
 29.67     814.00      28.53
 29.77     772.00      27.78
 29.87     783.00      27.98
 29.97     715.00      26.74
 30.07     585.95      24.21
 30.17     730.00      27.02
 30.27     657.52      25.64
 30.37     721.00      26.85
 30.47     619.66      24.89
 30.57     707.00      26.59
 30.67     700.00      26.46
 30.77     665.00      25.79
 30.87     697.00      26.40
 30.97     637.25      25.24
 31.07     675.00      25.98
 31.17     648.96      25.47
 31.27     706.00      26.57
 31.37     694.08      26.35
 31.47     639.00      25.28
 31.57     640.00      25.30
 31.67     570.65      23.89
 31.77     663.00      25.75
 31.87     648.00      25.46
 31.97     553.03      23.52
 32.07     558.60      23.63
 32.17     574.12      23.96
 32.27     608.00      24.66
 32.37     590.00      24.29
 32.47     527.57      22.97
 32.57     634.00      25.18
 32.67     595.00      24.39
 32.77     613.00      24.76
 32.87     617.95      24.86
 32.97     559.25      23.65
 33.07     579.00      24.06
 33.17     660.00      25.69
 33.27     587.00      24.23
 33.37     576.00      24.00
 33.47     617.88      24.86
 33.57     645.00      25.40
 33.67     651.15      25.52
 33.77     736.00      27.13
 33.87     772.00      27.78
 33.97     935.00      30.58
 34.07     947.00      30.77
 34.17    1106.93      33.27
 34.27    1108.71      33.30
 34.37    1052.79      32.45
 34.47     867.37      29.45
 34.57     811.00      28.48
 34.67     699.00      26.44
 34.77     639.00      25.28
 34.87     669.88      25.88
 34.97     623.00      24.96
 35.07     615.56      24.81
 35.17     609.00      24.68
 35.27     591.00      24.31
 35.37     575.00      23.98
 35.47     629.59      25.09
 35.57     558.00      23.62
 35.67     580.63      24.10
 35.77     543.00      23.30
 35.87     615.73      24.81
 35.97     505.00      22.47
 36.07     546.15      23.37
 36.17     557.00      23.60
 36.27     568.13      23.84
 36.37     576.00      24.00
 36.47     556.00      23.58
 36.57     539.00      23.22
 36.67     524.00      22.89
 36.77     567.00      23.81
 36.87     596.29      24.42
 36.97     556.00      23.58
 37.07     550.00      23.45
 37.17     575.67      23.99
 37.27     502.00      22.41
 37.37     563.00      23.73
 37.47     529.00      23.00
 37.57     566.81      23.81
 37.67     590.38      24.30
 37.77     570.00      23.87
 37.87     541.80      23.28
 37.97     614.70      24.79
 38.07     590.36      24.30
 38.17     671.00      25.90
 38.27     673.14      25.94
 38.37     625.00      25.00
 38.47     599.32      24.48
 38.57     557.00      23.60
 38.67     516.00      22.72
 38.77     623.00      24.96
 38.87     585.88      24.20
 38.97     516.00      22.72
 39.07     551.00      23.47
 39.17     547.70      23.40
 39.27     536.95      23.17
 39.37     545.38      23.35
 39.47     505.00      22.47
 39.57     546.00      23.37
 39.67     561.03      23.69
 39.77     542.00      23.28
 39.87     568.48      23.84
 39.97     563.00      23.73
 40.07     532.00      23.07
 40.17     546.00      23.37
 40.27     562.00      23.71
 40.37     556.78      23.60
 40.47     549.97      23.45
 40.57     563.88      23.75
 40.67     519.50      22.79
 40.77     600.60      24.51
 40.87     547.00      23.39
 40.97     524.00      22.89
 41.07     599.89      24.49
 41.17     512.00      22.63
 41.27     514.66      22.69
 41.37     527.00      22.96
 41.47     547.00      23.39
 41.57     564.00      23.75
 41.67     597.65      24.45
 41.77     535.30      23.14
 41.87     519.00      22.78
 41.97     539.77      23.23
 42.07     572.00      23.92
 42.17     540.00      23.24
 42.27     553.00      23.52
 42.37     594.00      24.37
 42.47     547.00      23.39
 42.57     591.00      24.31
 42.67     597.00      24.43
 42.77     604.02      24.58
 42.87     636.51      25.23
 42.97     621.00      24.92
 43.07     634.00      25.18
 43.17     674.98      25.98
 43.27     563.00      23.73
 43.37     556.00      23.58
 43.47     503.00      22.43
 43.57     608.45      24.67
 43.67     576.57      24.01
 43.77     566.00      23.79
 43.87     529.00      23.00
 43.97     526.28      22.94
 44.07     537.00      23.17
 44.17     550.00      23.45
 44.27     567.00      23.81
 44.37     541.00      23.26
 44.47     521.00      22.83
 44.57     551.74      23.49
 44.67     549.62      23.44
 44.77     513.00      22.65
 44.87     561.00      23.69
 44.97     527.00      22.96
 45.07     520.76      22.82
 45.17     532.00      23.07
 45.27     532.00      23.07
 45.37     530.02      23.02
 45.47     507.80      22.53
 45.57     533.00      23.09
 45.67     533.00      23.09
 45.77     505.52      22.48
 45.87     574.74      23.97
 45.97     586.00      24.21
 46.07     556.00      23.58
 46.17     541.00      23.26
 46.27     534.00      23.11
 46.37     563.00      23.73
 46.47     505.00      22.47
 46.57     518.00      22.76
 46.67     523.00      22.87
 46.77     493.00      22.20
 46.87     528.66      22.99
 46.97     564.00      23.75
 47.07     533.00      23.09
 47.17     539.00      23.22
 47.27     569.00      23.85
 47.37     571.00      23.90
 47.47     538.00      23.19
 47.57     605.01      24.60
 47.67     579.00      24.06
 47.77     595.00      24.39
 47.87     598.34      24.46
 47.97     636.00      25.22
 48.07     626.00      25.02
 48.17     630.50      25.11
 48.27     672.33      25.93
 48.37     635.00      25.20
 48.47     655.25      25.60
 48.57     663.00      25.75
 48.67     621.00      24.92
 48.77     571.00      23.90
 48.87     590.81      24.31
 48.97     553.87      23.53
 49.07     612.00      24.74
 49.17     626.00      25.02
 49.27     600.00      24.49
 49.37     661.39      25.72
 49.47     650.12      25.50
 49.57     652.00      25.53
 49.67     771.50      27.78
 49.77     761.93      27.60
 49.87     932.39      30.54
 49.97    1099.00      33.15
 50.07    1441.00      37.96
 50.17    1801.00      42.44
 50.27    2259.50      47.53
 50.37    2390.75      48.90
 50.47    2595.39      50.94
 50.57    2413.00      49.12
 50.67    2036.00      45.12
 50.77    1667.00      40.83
 50.87    1296.63      36.01
 50.97    1111.00      33.33
 51.07     920.16      30.33
 51.17     774.00      27.82
 51.27     709.96      26.65
 51.37     700.00      26.46
 51.47     673.00      25.94
 51.57     641.00      25.32
 51.67     665.35      25.79
 51.77     630.00      25.10
 51.87     602.32      24.54
 51.97     664.00      25.77
 52.07     637.00      25.24
 52.17     625.00      25.00
 52.27     583.00      24.15
 52.37     605.00      24.60
 52.47     625.00      25.00
 52.57     627.00      25.04
 52.67     605.00      24.60
 52.77     632.00      25.14
 52.87     620.00      24.90
 52.97     637.00      25.24
 53.07     729.00      27.00
 53.17     704.00      26.53
 53.27     724.10      26.91
 53.37     815.00      28.55
 53.47     972.00      31.18
 53.57    1072.00      32.74
 53.67    1176.00      34.29
 53.77    1235.00      35.14
 53.87    1232.00      35.10
 53.97    1253.55      35.41
 54.07    1084.00      32.92
 54.17    1010.00      31.78
 54.27     889.00      29.82
 54.37     802.00      28.32
 54.47     785.32      28.02
 54.57     671.11      25.91
 54.67     679.00      26.06
 54.77     652.00      25.53
 54.87     611.00      24.72
 54.97     603.00      24.56
 55.07     630.00      25.10
 55.17     581.55      24.12
 55.27     681.00      26.10
 55.37     616.00      24.82
 55.47     614.00      24.78
 55.57     617.00      24.84
 55.67     628.73      25.07
 55.77     603.00      24.56
 55.87     656.00      25.61
 55.97     643.00      25.36
 56.07     624.70      24.99
 56.17     720.00      26.83
 56.27     781.96      27.96
 56.37     822.00      28.67
 56.47    1000.46      31.63
 56.57    1166.09      34.15
 56.67    1312.00      36.22
 56.77    1596.00      39.95
 56.87    1952.00      44.18
 56.97    2173.38      46.62
 57.07    2512.00      50.12
 57.17    2535.00      50.35
 57.27    2582.48      50.82
 57.37    2288.21      47.84
 57.47    2072.09      45.52
 57.57    1691.00      41.12
 57.67    1326.00      36.41
 57.77    1114.00      33.38
 57.87     911.00      30.18
 57.97     895.00      29.92
 58.07     821.06      28.65
 58.17     711.00      26.66
 58.27     810.00      28.46
 58.37     744.00      27.28
 58.47     734.00      27.09
 58.57     837.00      28.93
 58.67     881.00      29.68
 58.77     876.00      29.60
 58.87    1031.00      32.11
 58.97    1133.00      33.66
 59.07    1157.00      34.01
 59.17    1201.00      34.66
 59.27    1285.00      35.85
 59.37    1303.00      36.10
 59.47    1266.00      35.58
 59.57    1218.00      34.90
 59.67    1206.00      34.73
 59.77    1190.31      34.50
 59.87    1166.00      34.15
 59.97    1192.00      34.53
 60.07    1126.00      33.56
 60.17    1282.65      35.81
 60.27    1408.08      37.52
 60.37    1384.00      37.20
 60.47    1620.00      40.25
 60.57    1580.00      39.75
 60.67    1560.00      39.50
 60.77    1432.00      37.84
 60.87    1302.39      36.09
 60.97    1138.00      33.73
 61.07    1033.00      32.14
 61.17     890.00      29.83
 61.27     853.00      29.21
 61.37     739.19      27.19
 61.47     795.00      28.20
 61.57     765.86      27.67
 61.67     789.00      28.09
 61.77     758.17      27.53
 61.87     811.20      28.48
 61.97     988.80      31.45
 62.07    1073.00      32.76
 62.17    1199.00      34.63
 62.27    1277.00      35.74
 62.37    1449.00      38.07
 62.47    1397.00      37.38
 62.57    1394.45      37.34
 62.67    1351.00      36.76
 62.77    1299.02      36.04
 62.87    1063.00      32.60
 62.97     976.00      31.24
 63.07     858.98      29.31
 63.17     785.00      28.02
 63.27     681.00      26.10
 63.37     651.62      25.53
 63.47     621.54      24.93
 63.57     640.27      25.30
 63.67     620.00      24.90
 63.77     627.62      25.05
 63.87     646.00      25.42
 63.97     647.84      25.45
 64.07     659.00      25.67
 64.17     697.00      26.40
 64.27     735.00      27.11
 64.37     757.60      27.52
 64.47     870.68      29.51
 64.57     842.00      29.02
 64.67     988.67      31.44
 64.77    1065.87      32.65
 64.87    1183.00      34.39
 64.97    1140.96      33.78
 65.07    1213.00      34.83
 65.17    1122.00      33.50
 65.27    1084.61      32.93
 65.37    1052.00      32.43
 65.47     979.56      31.30
 65.57     953.98      30.89
 65.67     811.00      28.48
 65.77     764.74      27.65
 65.87     686.00      26.19
 65.97     697.00      26.40
 66.07     688.00      26.23
 66.17     667.00      25.83
 66.27     699.26      26.44
 66.37     657.08      25.63
 66.47     588.74      24.26
 66.57     602.00      24.54
 66.67     633.00      25.16
 66.77     636.00      25.22
 66.87     584.00      24.17
 66.97     617.00      24.84
 67.07     621.46      24.93
 67.17     686.00      26.19
 67.27     718.00      26.80
 67.37     785.63      28.03
 67.47     732.81      27.07
 67.57     919.03      30.32
 67.67    1009.00      31.76
 67.77    1136.31      33.71
 67.87    1382.09      37.18
 67.97    1495.00      38.67
 68.07    1848.67      43.00
 68.17    1919.00      43.81
 68.27    2218.00      47.10
 68.37    2347.62      48.45
 68.47    2493.00      49.93
 68.57    2403.00      49.02
 68.67    2191.00      46.81
 68.77    2074.52      45.55
 68.87    1782.00      42.21
 68.97    1560.00      39.50
 69.07    1280.00      35.78
 69.17    1154.00      33.97
 69.27     951.00      30.84
 69.37     923.95      30.40
 69.47     858.40      29.30
 69.57     736.00      27.13
 69.67     756.20      27.50
 69.77     684.29      26.16
 69.87     634.00      25.18
 69.97     659.90      25.69
 70.07     606.00      24.62
 70.17     611.29      24.72
 70.27     611.00      24.72
 70.37     619.00      24.88
 70.47     667.09      25.83
 70.57     672.00      25.92
 70.67     596.10      24.42
 70.77     651.01      25.51
 70.87     657.00      25.63
 70.97     615.00      24.80
 71.07     627.00      25.04
 71.17     720.07      26.83
 71.27     697.00      26.40
 71.37     706.00      26.57
 71.47     798.00      28.25
 71.57     929.98      30.50
 71.67     943.00      30.71
 71.77    1076.00      32.80
 71.87    1283.15      35.82
 71.97    1378.92      37.13
 72.07    1461.00      38.22
 72.17    1645.20      40.56
 72.27    1875.46      43.31
 72.37    1855.29      43.07
 72.47    1915.21      43.76
 72.57    1920.77      43.83
 72.67    1821.00      42.67
 72.77    1604.00      40.05
 72.87    1407.00      37.51
 72.97    1274.00      35.69
 73.07    1060.03      32.56
 73.17    1018.57      31.91
 73.27     913.40      30.22
 73.37     839.02      28.97
 73.47     707.95      26.61
 73.57     751.00      27.40
 73.67     690.00      26.27
 73.77     668.00      25.85
 73.87     612.00      24.74
 73.97     629.00      25.08
 74.07     661.00      25.71
 74.17     653.00      25.55
 74.27     628.00      25.06
 74.37     626.00      25.02
 74.47     569.79      23.87
 74.57     612.00      24.74
 74.67     627.56      25.05
 74.77     692.00      26.31
 74.87     690.00      26.27
 74.97     572.21      23.92
 75.07     679.00      26.06
 75.17     678.00      26.04
 75.27     647.00      25.44
 75.37     678.00      26.04
 75.47     698.00      26.42
 75.57     646.00      25.42
 75.67     621.00      24.92
 75.77     559.00      23.64
 75.87     618.00      24.86
 75.97     622.57      24.95
 76.07     659.00      25.67
 76.17     686.00      26.19
 76.27     604.30      24.58
 76.37     668.00      25.85
 76.47     725.00      26.93
 76.57     752.49      27.43
 76.67     683.44      26.14
 76.77     757.86      27.53
 76.87     821.00      28.65
 76.97     742.00      27.24
 77.07     774.24      27.83
 77.17     776.62      27.87
 77.27     705.14      26.55
 77.37     730.00      27.02
 77.47     738.50      27.18
 77.57     697.25      26.41
 77.67     646.51      25.43
 77.77     614.00      24.78
 77.87     610.26      24.70
 77.97     630.39      25.11
 78.07     590.00      24.29
 78.17     559.00      23.64
 78.27     550.00      23.45
 78.37     527.00      22.96
 78.47     581.00      24.10
 78.57     596.66      24.43
 78.67     555.00      23.56
 78.77     583.34      24.15
 78.87     537.82      23.19
 78.97     535.00      23.13
 79.07     540.62      23.25
 79.17     587.14      24.23
 79.27     597.25      24.44
 79.37     569.00      23.85
 79.47     609.00      24.68
 79.57     566.00      23.79
 79.67     569.00      23.85
 79.77     544.00      23.32
 79.87     550.15      23.46
 79.97     554.00      23.54
 80.07     578.00      24.04
 80.17     550.00      23.45
 80.27     596.00      24.41
 80.37     583.00      24.15
 80.47     601.00      24.52
 80.57     665.85      25.80
 80.67     692.00      26.31
 80.77     684.00      26.15
 80.87     723.37      26.90
 80.97     752.00      27.42
 81.07     777.00      27.87
 81.17     803.00      28.34
 81.27     873.70      29.56
 81.37     829.00      28.79
 81.47     943.07      30.71
 81.57     869.64      29.49
 81.67     934.00      30.56
 81.77     851.15      29.17
 81.87     926.00      30.43
 81.97     907.00      30.12
 82.07     896.00      29.93
 82.17     900.00      30.00
 82.27     817.65      28.59
 82.37     765.00      27.66
 82.47     726.05      26.95
 82.57     724.00      26.91
 82.67     672.00      25.92
 82.77     654.25      25.58
 82.87     663.00      25.75
 82.97     645.95      25.42
 83.07     554.00      23.54
 83.17     630.00      25.10
 83.27     581.00      24.10
 83.37     559.90      23.66
 83.47     599.00      24.47
 83.57     554.14      23.54
 83.67     585.00      24.19
 83.77     525.00      22.91
 83.87     599.00      24.47
 83.97     550.00      23.45
 84.07     580.00      24.08
 84.17     609.46      24.69
 84.27     567.00      23.81
 84.37     635.00      25.20
 84.47     560.00      23.66
 84.57     634.78      25.19
 84.67     596.19      24.42
 84.77     600.00      24.49
 84.87     578.57      24.05
 84.97     585.00      24.19
 85.07     572.00      23.92
 85.17     556.00      23.58
 85.27     543.00      23.30
 85.37     578.00      24.04
 85.47     543.86      23.32
 85.57     548.32      23.42
 85.67     535.00      23.13
 85.77     531.19      23.05
 85.87     537.00      23.17
 85.97     536.88      23.17
 86.07     580.30      24.09
 86.17     535.00      23.13
 86.27     536.00      23.15
 86.37     575.00      23.98
 86.47     587.39      24.24
 86.57     579.00      24.06
 86.67     592.36      24.34
 86.77     551.02      23.47
 86.87     612.00      24.74
 86.97     597.00      24.43
 87.07     611.00      24.72
 87.17     589.00      24.27
 87.27     638.82      25.27
 87.37     652.00      25.53
 87.47     654.00      25.57
 87.57     592.67      24.34
 87.67     692.00      26.31
 87.77     630.00      25.10
 87.87     683.00      26.13
 87.97     650.00      25.50
 88.07     763.00      27.62
 88.17     672.00      25.92
 88.27     671.00      25.90
 88.37     717.00      26.78
 88.47     682.57      26.13
 88.57     628.00      25.06
 88.67     638.00      25.26
 88.77     649.00      25.48
 88.87     607.00      24.64
 88.97     602.00      24.54
 89.07     565.51      23.78
 89.17     581.00      24.10
 89.27     619.98      24.90
 89.37     612.00      24.74
 89.47     583.00      24.15
 89.57     589.00      24.27
 89.67     594.00      24.37
 89.77     626.81      25.04
 89.87     675.57      25.99
 89.97     606.14      24.62
 90.07     588.90      24.27
 90.17     584.58      24.18
 90.27     656.00      25.61
 90.37     598.00      24.45
 90.47     579.00      24.06
 90.57     599.00      24.47
 90.67     611.24      24.72
 90.77     577.10      24.02
 90.87     545.59      23.36
 90.97     587.97      24.25
 91.07     547.00      23.39
 91.17     510.99      22.61
 91.27     566.00      23.79
 91.37     541.37      23.27
 91.47     604.11      24.58
 91.57     576.00      24.00
 91.67     502.72      22.42
 91.77     567.97      23.83
 91.87     554.09      23.54
 91.97     581.48      24.11
 92.07     504.89      22.47
 92.17     534.22      23.11
 92.27     565.00      23.77
 92.37     567.00      23.81
 92.47     542.00      23.28
 92.57     562.00      23.71
 92.67     630.34      25.11
 92.77     570.00      23.87
 92.87     644.00      25.38
 92.97     635.00      25.20
 93.07     593.33      24.36
 93.17     652.00      25.53
 93.27     665.00      25.79
 93.37     712.00      26.68
 93.47     730.00      27.02
 93.57     715.00      26.74
 93.67     811.96      28.49
 93.77     759.00      27.55
 93.87     812.92      28.51
 93.97     780.00      27.93
 94.07     771.44      27.77
 94.17     844.96      29.07
 94.27     860.00      29.33
 94.37     864.00      29.39
 94.47     955.00      30.90
 94.57     836.76      28.93
 94.67     864.00      29.39
 94.77     910.00      30.17
 94.87     892.48      29.87
 94.97     961.69      31.01
 95.07     974.50      31.22
 95.17    1000.00      31.62
 95.27     906.02      30.10
 95.37     912.14      30.20
 95.47     995.00      31.54
 95.57     932.00      30.53
 95.67     945.68      30.75
 95.77     898.00      29.97
 95.87     830.09      28.81
 95.97     803.00      28.34
 96.07     859.00      29.31
 96.17     738.40      27.17
 96.27     813.00      28.51
 96.37     748.00      27.35
 96.47     765.28      27.66
 96.57     732.00      27.06
 96.67     826.00      28.74
 96.77     781.00      27.95
 96.87     785.00      28.02
 96.97     895.00      29.92
 97.07     943.00      30.71
 97.17     940.00      30.66
 97.27    1039.00      32.23
 97.37    1073.00      32.76
 97.47    1226.34      35.02
 97.57    1187.33      34.46
 97.67    1315.00      36.26
 97.77    1322.32      36.36
 97.87    1463.32      38.25
 97.97    1434.97      37.88
 98.07    1509.77      38.86
 98.17    1516.00      38.94
 98.27    1575.00      39.69
 98.37    1420.32      37.69
 98.47    1487.39      38.57
 98.57    1388.22      37.26
 98.67    1401.17      37.43
 98.77    1251.74      35.38
 98.87    1198.00      34.61
 98.97    1127.00      33.57
 99.07    1043.30      32.30
 99.17    1026.00      32.03
 99.27    1029.00      32.08
 99.37     954.00      30.89
 99.47     955.00      30.90
 99.57     948.00      30.79
 99.67     882.72      29.71
 99.77     973.00      31.19
 99.87    1064.34      32.62
 99.97    1045.00      32.33
100.07    1078.59      32.84
100.17    1164.00      34.12
100.27    1305.00      36.12
100.37    1309.00      36.18
100.47    1483.00      38.51
100.57    1494.00      38.65
100.67    1520.96      39.00
100.77    1743.00      41.75
100.87    1803.00      42.46
100.97    1798.00      42.40
101.07    1963.00      44.31
101.17    2058.15      45.37
101.27    2046.00      45.23
101.37    2025.13      45.00
101.47    2112.00      45.96
101.57    1938.22      44.03
101.67    1906.92      43.67
101.77    1904.00      43.63
101.87    1869.00      43.23
101.97    1840.00      42.90
102.07    1816.74      42.62
102.17    1604.00      40.05
102.27    1554.00      39.42
102.37    1490.24      38.60
102.47    1415.21      37.62
102.57    1366.00      36.96
102.67    1329.00      36.46
102.77    1289.00      35.90
102.87    1244.36      35.28
102.97    1215.62      34.87
103.07    1154.00      33.97
103.17    1095.00      33.09
103.27    1079.00      32.85
103.37    1157.00      34.01
103.47    1066.00      32.65
103.57    1004.00      31.69
103.67    1094.43      33.08
103.77     960.00      30.98
103.87     946.87      30.77
103.97     856.78      29.27
104.07     810.43      28.47
104.17     838.00      28.95
104.27     822.00      28.67
104.37     765.00      27.66
104.47     778.07      27.89
104.57     715.00      26.74
104.67     677.30      26.02
104.77     683.00      26.13
104.87     663.00      25.75
104.97     673.00      25.94
105.07     636.00      25.22
105.17     652.00      25.53
105.27     630.00      25.10
105.37     687.00      26.21
105.47     609.00      24.68
105.57     577.00      24.02
105.67     574.00      23.96
105.77     597.00      24.43
105.87     539.88      23.24
105.97     593.00      24.35
106.07     579.00      24.06
106.17     574.00      23.96
106.27     586.00      24.21
106.37     629.85      25.10
106.47     564.00      23.75
106.57     611.00      24.72
106.67     588.00      24.25
106.77     598.00      24.45
106.87     648.00      25.46
106.97     632.00      25.14
107.07     681.56      26.11
107.17     642.00      25.34
107.27     640.00      25.30
107.37     725.07      26.93
107.47     686.00      26.19
107.57     693.93      26.34
107.67     674.00      25.96
107.77     691.00      26.29
107.87     708.73      26.62
107.97     769.94      27.75
108.07     720.00      26.83
108.17     732.74      27.07
108.27     714.00      26.72
108.37     750.00      27.39
108.47     711.00      26.66
108.57     712.00      26.68
108.67     737.00      27.15
108.77     736.84      27.14
108.87     695.11      26.36
108.97     747.79      27.35
109.07     739.83      27.20
109.17     751.00      27.40
109.27     686.00      26.19
109.37     706.00      26.57
109.47     768.73      27.73
109.57     679.51      26.07
109.67     783.00      27.98
109.77     737.00      27.15
109.87     753.00      27.44
109.97     704.00      26.53
110.07     771.61      27.78
110.17     657.07      25.63
110.27     734.16      27.10
110.37     633.00      25.16
110.47     680.00      26.08
110.57     693.00      26.32
110.67     668.00      25.85
110.77     595.12      24.40
110.87     654.16      25.58
110.97     663.93      25.77
111.07     611.00      24.72
111.17     645.61      25.41
111.27     573.48      23.95
111.37     598.00      24.45
111.47     630.00      25.10
111.57     579.67      24.08
111.67     610.00      24.70
111.77     533.04      23.09
111.87     593.00      24.35
111.97     611.88      24.74
112.07     519.33      22.79
112.17     604.05      24.58
112.27     591.00      24.31
112.37     605.08      24.60
112.47     595.00      24.39
112.57     531.00      23.04
112.67     564.00      23.75
112.77     616.00      24.82
112.87     639.19      25.28
112.97     590.00      24.29
113.07     579.11      24.06
113.17     596.91      24.43
113.27     587.00      24.23
113.37     566.59      23.80
113.47     651.96      25.53
113.57     569.00      23.85
113.67     614.00      24.78
113.77     618.00      24.86
113.87     660.08      25.69
113.97     645.00      25.40
114.07     627.40      25.05
114.17     691.72      26.30
114.27     640.68      25.31
114.37     691.00      26.29
114.47     686.00      26.19
114.57     757.00      27.51
114.67     825.32      28.73
114.77     820.02      28.64
114.87     940.19      30.66
114.97     970.00      31.14
115.07    1070.40      32.72
115.17    1126.00      33.56
115.27    1334.00      36.52
115.37    1461.00      38.22
115.47    1624.00      40.30
115.57    1842.62      42.93
115.67    1934.11      43.98
115.77    2247.61      47.41
115.87    2369.65      48.68
115.97    2997.00      54.74
116.07    3236.00      56.89
116.17    3508.23      59.23
116.27    3838.00      61.95
116.37    4262.03      65.28
116.47    4532.00      67.32
116.57    4994.00      70.67
116.67    5276.00      72.64
116.77    5712.64      75.58
116.87    5949.00      77.13
116.97    6519.57      80.74
117.07    6789.00      82.40
117.17    6980.76      83.55
117.27    7111.00      84.33
117.37    7152.65      84.57
117.47    7206.00      84.89
117.57    7193.63      84.82
117.67    7178.00      84.72
117.77    6900.00      83.07
117.87    6563.00      81.01
117.97    6169.00      78.54
118.07    6168.98      78.54
118.17    5804.72      76.19
118.27    5324.00      72.97
118.37    4910.00      70.07
118.47    4713.00      68.65
118.57    4394.00      66.29
118.67    3905.18      62.49
118.77    3505.00      59.20
118.87    3204.00      56.60
118.97    2995.00      54.73
119.07    2748.99      52.43
119.17    2381.00      48.80
119.27    2087.93      45.69
119.37    1978.44      44.48
119.47    1756.35      41.91
119.57    1532.00      39.14
119.67    1447.25      38.04
119.77    1357.98      36.85
119.87    1299.08      36.04
119.97    1171.04      34.22
120.07     994.42      31.53
120.17     930.93      30.51
120.27     953.05      30.87
120.37     910.72      30.18
120.47     858.00      29.29
120.57     803.00      28.34
120.67     812.00      28.50
120.77     746.00      27.31
120.87     693.00      26.32
120.97     688.00      26.23
121.07     694.00      26.34
121.17     672.00      25.92
121.27     715.21      26.74
121.37     662.05      25.73
121.47     656.20      25.62
121.57     626.00      25.02
121.67     667.76      25.84
121.77     659.89      25.69
121.87     627.00      25.04
121.97     606.58      24.63
122.07     613.00      24.76
122.17     649.28      25.48
122.27     661.00      25.71
122.37     615.90      24.82
122.47     671.37      25.91
122.57     679.63      26.07
122.67     602.78      24.55
122.77     630.31      25.11
122.87     704.19      26.54
122.97     659.00      25.67
123.07     686.00      26.19
123.17     650.00      25.50
123.27     652.40      25.54
123.37     698.36      26.43
123.47     651.00      25.51
123.57     670.00      25.88
123.67     740.00      27.20
123.77     686.00      26.19
123.87     688.00      26.23
123.97     736.55      27.14
124.07     717.05      26.78
124.17     687.00      26.21
124.27     698.00      26.42
124.37     667.00      25.83
124.47     683.20      26.14
124.57     686.00      26.19
124.67     628.00      25.06
124.77     704.00      26.53
124.87     682.76      26.13
124.97     683.00      26.13
