  9.97     615.00      24.80
 10.07     598.00      24.45
 10.17     649.00      25.48
 10.27     607.00      24.64
 10.37     580.00      24.08
 10.47     587.00      24.23
 10.57     575.73      23.99
 10.67     595.00      24.39
 10.77     585.92      24.21
 10.87     597.00      24.43
 10.97     576.00      24.00
 11.07     552.96      23.52
 11.17     583.00      24.15
 11.27     603.00      24.56
 11.37     573.00      23.94
 11.47     573.00      23.94
 11.57     601.00      24.52
 11.67     596.00      24.41
 11.77     656.00      25.61
 11.87     618.00      24.86
 11.97     656.00      25.61
 12.07     689.00      26.25
 12.17     695.00      26.36
 12.27     697.00      26.40
 12.37     619.00      24.88
 12.47     610.71      24.71
 12.57     633.49      25.17
 12.67     585.00      24.19
 12.77     585.00      24.19
 12.87     554.00      23.54
 12.97     563.00      23.73
 13.07     559.00      23.64
 13.17     604.00      24.58
 13.27     534.44      23.12
 13.37     543.00      23.30
 13.47     563.44      23.74
 13.57     591.87      24.33
 13.67     562.00      23.71
 13.77     528.00      22.98
 13.87     553.53      23.53
 13.97     607.80      24.65
 14.07     616.37      24.83
 14.17     594.00      24.37
 14.27     590.00      24.29
 14.37     559.00      23.64
 14.47     597.00      24.43
 14.57     546.00      23.37
 14.67     588.00      24.25
 14.77     573.00      23.94
 14.87     539.14      23.22
 14.97     539.00      23.22
 15.07     561.00      23.69
 15.17     613.27      24.76
 15.27     547.15      23.39
 15.37     563.00      23.73
 15.47     564.00      23.75
 15.57     558.00      23.62
 15.67     531.82      23.06
 15.77     590.00      24.29
 15.87     568.00      23.83
 15.97     588.00      24.25
 16.07     590.00      24.29
 16.17     606.95      24.64
 16.27     586.08      24.21
 16.37     552.89      23.51
 16.47     569.66      23.87
 16.57     553.20      23.52
 16.67     577.00      24.02
 16.77     579.00      24.06
 16.87     541.00      23.26
 16.97     494.00      22.23
 17.07     523.00      22.87
 17.17     588.00      24.25
 17.27     581.00      24.10
 17.37     603.31      24.56
 17.47     541.00      23.26
 17.57     554.00      23.54
 17.67     536.68      23.17
 17.77     556.59      23.59
 17.87     555.74      23.57
 17.97     581.38      24.11
 18.07     558.63      23.64
 18.17     540.00      23.24
 18.27     522.00      22.85
 18.37     560.00      23.66
 18.47     521.88      22.84
 18.57     557.00      23.60
 18.67     574.14      23.96
 18.77     553.48      23.53
 18.87     571.00      23.90
 18.97     541.44      23.27
 19.07     544.44      23.33
 19.17     560.00      23.66
 19.27     531.00      23.04
 19.37     585.96      24.21
 19.47     527.00      22.96
 19.57     557.47      23.61
 19.67     582.47      24.13
 19.77     526.00      22.93
 19.87     541.87      23.28
 19.97     543.00      23.30
 20.07     559.00      23.64
 20.17     520.43      22.81
 20.27     572.42      23.93
 20.37     556.27      23.59
 20.47     562.00      23.71
 20.57     512.00      22.63
 20.67     524.00      22.89
 20.77     565.56      23.78
 20.87     576.14      24.00
 20.97     578.00      24.04
 21.07     566.00      23.79
 21.17     528.00      22.98
 21.27     530.00      23.02
 21.37     579.00      24.06
 21.47     582.00      24.12
 21.57     537.00      23.17
 21.67     511.00      22.61
 21.77     581.12      24.11
 21.87     612.00      24.74
 21.97     539.00      23.22
 22.07     546.00      23.37
 22.17     559.01      23.64
 22.27     586.00      24.21
 22.37     587.30      24.23
 22.47     564.00      23.75
 22.57     572.00      23.92
 22.67     584.77      24.18
 22.77     560.73      23.68
 22.87     549.44      23.44
 22.97     536.00      23.15
 23.07     594.90      24.39
 23.17     536.65      23.17
 23.27     533.22      23.09
 23.37     535.66      23.14
 23.47     569.00      23.85
 23.57     549.00      23.43
 23.67     566.00      23.79
 23.77     584.00      24.17
 23.87     504.00      22.45
 23.97     536.51      23.16
 24.07     534.00      23.11
 24.17     554.00      23.54
 24.27     581.00      24.10
 24.37     531.91      23.06
 24.47     566.00      23.79
 24.57     596.00      24.41
 24.67     636.00      25.22
 24.77     661.42      25.72
 24.87     620.87      24.92
 24.97     616.00      24.82
 25.07     551.00      23.47
 25.17     589.63      24.28
 25.27     564.84      23.77
 25.37     530.41      23.03
 25.47     575.00      23.98
 25.57     556.00      23.58
 25.67     560.04      23.67
 25.77     537.00      23.17
 25.87     521.39      22.83
 25.97     574.00      23.96
 26.07     557.00      23.60
 26.17     501.80      22.40
 26.27     530.00      23.02
 26.37     520.00      22.80
 26.47     517.23      22.74
 26.57     579.86      24.08
 26.67     517.18      22.74
 26.77     504.00      22.45
 26.87     547.04      23.39
 26.97     537.00      23.17
 27.07     515.39      22.70
 27.17     536.00      23.15
 27.27     535.13      23.13
 27.37     578.23      24.05
 27.47     576.70      24.01
 27.57     594.00      24.37
 27.67     598.00      24.45
 27.77     654.00      25.57
 27.87     584.00      24.17
 27.97     666.00      25.81
 28.07     771.00      27.77
 28.17     941.00      30.68
 28.27     922.00      30.36
 28.37     871.00      29.51
 28.47     837.07      28.93
 28.57     684.21      26.16
 28.67     747.00      27.33
 28.77     709.80      26.64
 28.87     797.00      28.23
 28.97     885.00      29.75
 29.07     774.96      27.84
 29.17     677.42      26.03
 29.27     638.00      25.26
 29.37     615.90      24.82
 29.47     665.00      25.79
 29.57     627.00      25.04
 29.67     613.00      24.76
 29.77     610.00      24.70
 29.87     582.00      24.12
 29.97     597.00      24.43
 30.07     595.00      24.39
 30.17     506.48      22.51
 30.27     567.43      23.82
 30.37     537.00      23.17
 30.47     568.30      23.84
 30.57     536.00      23.15
 30.67     549.93      23.45
 30.77     622.39      24.95
 30.87     642.00      25.34
 30.97     628.00      25.06
 31.07     571.00      23.90
 31.17     575.00      23.98
 31.27     559.45      23.65
 31.37     566.00      23.79
 31.47     558.00      23.62
 31.57     562.00      23.71
 31.67     534.32      23.12
 31.77     493.62      22.22
 31.87     504.96      22.47
 31.97     536.00      23.15
 32.07     533.00      23.09
 32.17     550.00      23.45
 32.27     516.00      22.72
 32.37     550.00      23.45
 32.47     556.55      23.59
 32.57     559.00      23.64
 32.67     519.96      22.80
 32.77     536.76      23.17
 32.87     492.60      22.19
 32.97     571.00      23.90
 33.07     523.00      22.87
 33.17     546.74      23.38
 33.27     513.00      22.65
 33.37     565.00      23.77
 33.47     548.00      23.41
 33.57     539.25      23.22
 33.67     627.00      25.04
 33.77     718.00      26.80
 33.87     902.27      30.04
 33.97    1037.00      32.20
 34.07    1043.96      32.31
 34.17    1032.14      32.13
 34.27     896.53      29.94
 34.37     746.00      27.31
 34.47     602.00      24.54
 34.57     544.00      23.32
 34.67     575.00      23.98
 34.77     557.00      23.60
 34.87     513.41      22.66
 34.97     521.00      22.83
 35.07     546.21      23.37
 35.17     493.00      22.20
 35.27     557.27      23.61
 35.37     509.00      22.56
 35.47     541.03      23.26
 35.57     512.00      22.63
 35.67     576.00      24.00
 35.77     539.00      23.22
 35.87     528.00      22.98
 35.97     527.00      22.96
 36.07     503.27      22.43
 36.17     524.67      22.91
 36.27     512.00      22.63
 36.37     506.00      22.49
 36.47     535.00      23.13
 36.57     500.00      22.36
 36.67     502.00      22.41
 36.77     523.00      22.87
 36.87     571.00      23.90
 36.97     476.00      21.82
 37.07     510.00      22.58
 37.17     530.00      23.02
 37.27     521.00      22.83
 37.37     514.00      22.67
 37.47     492.00      22.18
 37.57     541.00      23.26
 37.67     563.00      23.73
 37.77     567.18      23.82
 37.87     510.68      22.60
 37.97     534.00      23.11
 38.07     498.00      22.32
 38.17     532.05      23.07
 38.27     458.00      21.40
 38.37     526.00      22.93
 38.47     506.49      22.51
 38.57     494.00      22.23
 38.67     518.00      22.76
 38.77     500.43      22.37
 38.87     468.00      21.63
 38.97     557.00      23.60
 39.07     481.00      21.93
 39.17     557.00      23.60
 39.27     492.00      22.18
 39.37     518.71      22.78
 39.47     467.28      21.62
 39.57     489.00      22.11
 39.67     499.00      22.34
 39.77     525.34      22.92
 39.87     470.00      21.68
 39.97     535.60      23.14
 40.07     519.00      22.78
 40.17     539.00      23.22
 40.27     499.00      22.34
 40.37     530.46      23.03
 40.47     522.14      22.85
 40.57     489.00      22.11
 40.67     485.00      22.02
 40.77     473.48      21.76
 40.87     490.00      22.14
 40.97     479.82      21.90
 41.07     466.82      21.61
 41.17     484.80      22.02
 41.27     467.24      21.62
 41.37     468.00      21.63
 41.47     501.00      22.38
 41.57     512.00      22.63
 41.67     526.00      22.93
 41.77     525.00      22.91
 41.87     551.00      23.47
 41.97     473.17      21.75
 42.07     551.74      23.49
 42.17     519.00      22.78
 42.27     496.00      22.27
 42.37     557.57      23.61
 42.47     543.51      23.31
 42.57     590.00      24.29
 42.67     570.00      23.87
 42.77     599.00      24.47
 42.87     552.00      23.49
 42.97     580.49      24.09
 43.07     590.00      24.29
 43.17     513.00      22.65
 43.27     555.00      23.56
 43.37     498.00      22.32
 43.47     522.00      22.85
 43.57     496.00      22.27
 43.67     508.00      22.54
 43.77     516.58      22.73
 43.87     546.30      23.37
 43.97     500.00      22.36
 44.07     555.00      23.56
 44.17     536.51      23.16
 44.27     511.00      22.61
 44.37     535.00      23.13
 44.47     455.00      21.33
 44.57     515.00      22.69
 44.67     498.36      22.32
 44.77     474.00      21.77
 44.87     536.87      23.17
 44.97     486.00      22.05
 45.07     516.00      22.72
 45.17     483.00      21.98
 45.27     505.00      22.47
 45.37     493.00      22.20
 45.47     506.00      22.49
 45.57     505.00      22.47
 45.67     506.00      22.49
 45.77     523.30      22.88
 45.87     513.00      22.65
 45.97     500.99      22.38
 46.07     530.00      23.02
 46.17     505.07      22.47
 46.27     519.00      22.78
 46.37     512.00      22.63
 46.47     494.00      22.23
 46.57     499.26      22.34
 46.67     485.00      22.02
 46.77     562.00      23.71
 46.87     526.49      22.95
 46.97     510.00      22.58
 47.07     512.05      22.63
 47.17     497.00      22.29
 47.27     531.00      23.04
 47.37     563.47      23.74
 47.47     573.00      23.94
 47.57     497.00      22.29
 47.67     596.03      24.41
 47.77     558.00      23.62
 47.87     627.00      25.04
 47.97     563.00      23.73
 48.07     545.00      23.35
 48.17     579.38      24.07
 48.27     554.06      23.54
 48.37     554.00      23.54
 48.47     516.00      22.72
 48.57     536.00      23.15
 48.67     499.22      22.34
 48.77     550.48      23.46
 48.87     549.17      23.43
 48.97     515.00      22.69
 49.07     547.00      23.39
 49.17     585.00      24.19
 49.27     637.33      25.25
 49.37     671.00      25.90
 49.47     745.00      27.29
 49.57     827.00      28.76
 49.67     936.00      30.59
 49.77    1143.00      33.81
 49.87    1444.00      38.00
 49.97    1853.00      43.05
 50.07    2236.00      47.29
 50.17    2503.00      50.03
 50.27    2506.00      50.06
 50.37    2285.00      47.80
 50.47    1927.00      43.90
 50.57    1436.00      37.89
 50.67    1049.00      32.39
 50.77     890.27      29.84
 50.87     686.00      26.19
 50.97     705.60      26.56
 51.07     592.46      24.34
 51.17     624.00      24.98
 51.27     574.15      23.96
 51.37     607.07      24.64
 51.47     536.64      23.17
 51.57     602.00      24.54
 51.67     548.00      23.41
 51.77     551.00      23.47
 51.87     496.32      22.28
 51.97     569.00      23.85
 52.07     547.91      23.41
 52.17     540.87      23.26
 52.27     557.00      23.60
 52.37     516.09      22.72
 52.47     551.91      23.49
 52.57     583.00      24.15
 52.67     515.39      22.70
 52.77     540.53      23.25
 52.87     628.16      25.06
 52.97     726.00      26.94
 53.07     742.98      27.26
 53.17     870.00      29.50
 53.27    1064.59      32.63
 53.37    1155.00      33.99
 53.47    1251.38      35.37
 53.57    1144.00      33.82
 53.67    1091.00      33.03
 53.77     970.78      31.16
 53.87     837.00      28.93
 53.97     754.00      27.46
 54.07     679.93      26.08
 54.17     624.00      24.98
 54.27     574.00      23.96
 54.37     565.91      23.79
 54.47     565.00      23.77
 54.57     537.00      23.17
 54.67     540.00      23.24
 54.77     542.00      23.28
 54.87     572.55      23.93
 54.97     566.05      23.79
 55.07     535.68      23.14
 55.17     533.00      23.09
 55.27     541.00      23.26
 55.37     587.86      24.25
 55.47     563.00      23.73
 55.57     530.43      23.03
 55.67     624.00      24.98
 55.77     620.00      24.90
 55.87     573.00      23.94
 55.97     628.00      25.06
 56.07     689.05      26.25
 56.17     756.00      27.50
 56.27     873.00      29.55
 56.37    1149.00      33.90
 56.47    1401.00      37.43
 56.57    1865.58      43.19
 56.67    2108.00      45.91
 56.77    2535.00      50.35
 56.87    2601.97      51.01
 56.97    2539.00      50.39
 57.07    2400.00      48.99
 57.17    2046.75      45.24
 57.27    1685.00      41.05
 57.37    1347.00      36.70
 57.47    1014.00      31.84
 57.57     859.91      29.32
 57.67     804.00      28.35
 57.77     680.00      26.08
 57.87     698.00      26.42
 57.97     710.00      26.65
 58.07     705.32      26.56
 58.17     716.00      26.76
 58.27     768.16      27.72
 58.37     831.00      28.83
 58.47     947.00      30.77
 58.57    1125.45      33.55
 58.67    1250.90      35.37
 58.77    1399.28      37.41
 58.87    1563.01      39.53
 58.97    1653.00      40.66
 59.07    1702.00      41.26
 59.17    1534.85      39.18
 59.27    1492.00      38.63
 59.37    1351.00      36.76
 59.47    1286.00      35.86
 59.57    1220.42      34.93
 59.67    1154.00      33.97
 59.77    1139.33      33.75
 59.87    1229.11      35.06
 59.97    1357.00      36.84
 60.07    1394.02      37.34
 60.17    1498.00      38.70
 60.27    1602.17      40.03
 60.37    1555.31      39.44
 60.47    1346.84      36.70
 60.57    1186.62      34.45
 60.67    1068.00      32.68
 60.77     902.44      30.04
 60.87     797.00      28.23
 60.97     670.08      25.89
 61.07     634.33      25.19
 61.17     657.00      25.63
 61.27     616.00      24.82
 61.37     649.00      25.48
 61.47     678.00      26.04
 61.57     747.50      27.34
 61.67     863.00      29.38
 61.77     939.00      30.64
 61.87    1074.80      32.78
 61.97    1319.77      36.33
 62.07    1389.00      37.27
 62.17    1361.00      36.89
 62.27    1404.00      37.47
 62.37    1286.00      35.86
 62.47    1167.00      34.16
 62.57     973.00      31.19
 62.67     865.76      29.42
 62.77     805.40      28.38
 62.87     719.57      26.82
 62.97     618.00      24.86
 63.07     578.00      24.04
 63.17     537.48      23.18
 63.27     546.00      23.37
 63.37     582.00      24.12
 63.47     580.00      24.08
 63.57     522.00      22.85
 63.67     547.00      23.39
 63.77     572.00      23.92
 63.87     614.00      24.78
 63.97     685.00      26.17
 64.07     656.00      25.61
 64.17     785.00      28.02
 64.27     840.86      29.00
 64.37     974.00      31.21
 64.47     943.11      30.71
 64.57     993.00      31.51
 64.67    1031.38      32.12
 64.77     984.00      31.37
 64.87     987.49      31.42
 64.97     865.31      29.42
 65.07     887.00      29.78
 65.17     828.22      28.78
 65.27     735.36      27.12
 65.37     673.00      25.94
 65.47     709.00      26.63
 65.57     641.00      25.32
 65.67     604.00      24.58
 65.77     599.00      24.47
 65.87     617.88      24.86
 65.97     590.00      24.29
 66.07     598.96      24.47
 66.17     587.00      24.23
 66.27     568.00      23.83
 66.37     569.00      23.85
 66.47     553.00      23.52
 66.57     560.00      23.66
 66.67     589.00      24.27
 66.77     595.00      24.39
 66.87     606.00      24.62
 66.97     641.14      25.32
 67.07     682.68      26.13
 67.17     713.97      26.72
 67.27     714.00      26.72
 67.37     898.99      29.98
 67.47    1071.00      32.73
 67.57    1260.00      35.50
 67.67    1550.91      39.38
 67.77    1852.62      43.04
 67.87    2133.54      46.19
 67.97    2269.00      47.63
 68.07    2400.61      49.00
 68.17    2338.76      48.36
 68.27    2264.00      47.58
 68.37    1964.92      44.33
 68.47    1849.00      43.00
 68.57    1472.12      38.37
 68.67    1249.00      35.34
 68.77     996.42      31.57
 68.87     853.65      29.22
 68.97     783.65      27.99
 69.07     678.16      26.04
 69.17     607.29      24.64
 69.27     583.00      24.15
 69.37     643.00      25.36
 69.47     542.01      23.28
 69.57     545.18      23.35
 69.67     570.00      23.87
 69.77     604.63      24.59
 69.87     582.18      24.13
 69.97     529.78      23.02
 70.07     593.13      24.35
 70.17     564.00      23.75
 70.27     589.29      24.28
 70.37     543.00      23.30
 70.47     596.77      24.43
 70.57     546.89      23.39
 70.67     547.00      23.39
 70.77     526.00      22.93
 70.87     576.00      24.00
 70.97     613.00      24.76
 71.07     630.02      25.10
 71.17     765.37      27.67
 71.27     810.00      28.46
 71.37     881.00      29.68
 71.47    1012.00      31.81
 71.57    1244.00      35.27
 71.67    1425.37      37.75
 71.77    1547.29      39.34
 71.87    1730.86      41.60
 71.97    1921.00      43.83
 72.07    1918.00      43.79
 72.17    1828.10      42.76
 72.27    1818.00      42.64
 72.37    1701.94      41.25
 72.47    1449.91      38.08
 72.57    1448.00      38.05
 72.67    1238.00      35.19
 72.77    1048.00      32.37
 72.87     984.00      31.37
 72.97     847.00      29.10
 73.07     817.00      28.58
 73.17     780.00      27.93
 73.27     744.00      27.28
 73.37     668.00      25.85
 73.47     666.00      25.81
 73.57     657.13      25.63
 73.67     592.00      24.33
 73.77     591.00      24.31
 73.87     607.00      24.64
 73.97     577.50      24.03
 74.07     626.00      25.02
 74.17     633.00      25.16
 74.27     617.00      24.84
 74.37     607.00      24.64
 74.47     609.00      24.68
 74.57     636.00      25.22
 74.67     614.00      24.78
 74.77     591.00      24.31
 74.87     637.00      25.24
 74.97     640.00      25.30
 75.07     556.00      23.58
 75.17     602.00      24.54
 75.27     561.00      23.69
 75.37     513.19      22.65
 75.47     542.00      23.28
 75.57     517.83      22.76
 75.67     547.00      23.39
 75.77     599.00      24.47
 75.87     613.00      24.76
 75.97     639.00      25.28
 76.07     657.96      25.65
 76.17     681.47      26.10
 76.27     658.00      25.65
 76.37     661.02      25.71
 76.47     670.00      25.88
 76.57     719.91      26.83
 76.67     750.28      27.39
 76.77     649.00      25.48
 76.87     671.00      25.90
 76.97     654.00      25.57
 77.07     637.00      25.24
 77.17     620.91      24.92
 77.27     555.00      23.56
 77.37     545.00      23.35
 77.47     542.00      23.28
 77.57     564.00      23.75
 77.67     559.00      23.64
 77.77     518.26      22.77
 77.87     497.00      22.29
 77.97     548.00      23.41
 78.07     559.00      23.64
 78.17     560.00      23.66
 78.27     513.00      22.65
 78.37     497.77      22.31
 78.47     561.75      23.70
 78.57     526.00      22.93
 78.67     561.00      23.69
 78.77     520.18      22.81
 78.87     534.00      23.11
 78.97     478.00      21.86
 79.07     490.00      22.14
 79.17     569.97      23.87
 79.27     522.00      22.85
 79.37     549.00      23.43
 79.47     516.63      22.73
 79.57     523.45      22.88
 79.67     513.21      22.65
 79.77     568.00      23.83
 79.87     522.00      22.85
 79.97     516.00      22.72
 80.07     503.00      22.43
 80.17     598.67      24.47
 80.27     583.00      24.15
 80.37     559.00      23.64
 80.47     573.00      23.94
 80.57     592.96      24.35
 80.67     600.00      24.49
 80.77     630.00      25.10
 80.87     666.32      25.81
 80.97     693.00      26.32
 81.07     690.00      26.27
 81.17     707.00      26.59
 81.27     796.00      28.21
 81.37     711.59      26.68
 81.47     789.60      28.10
 81.57     742.00      27.24
 81.67     705.02      26.55
 81.77     700.00      26.46
 81.87     720.90      26.85
 81.97     719.24      26.82
 82.07     664.00      25.77
 82.17     641.00      25.32
 82.27     658.00      25.65
 82.37     627.00      25.04
 82.47     616.00      24.82
 82.57     585.45      24.20
 82.67     593.25      24.36
 82.77     586.00      24.21
 82.87     572.00      23.92
 82.97     553.00      23.52
 83.07     550.00      23.45
 83.17     540.87      23.26
 83.27     565.00      23.77
 83.37     555.00      23.56
 83.47     521.00      22.83
 83.57     550.00      23.45
 83.67     560.00      23.66
 83.77     561.00      23.69
 83.87     535.00      23.13
 83.97     553.08      23.52
 84.07     591.00      24.31
 84.17     573.46      23.95
 84.27     546.67      23.38
 84.37     571.00      23.90
 84.47     526.08      22.94
 84.57     521.00      22.83
 84.67     546.67      23.38
 84.77     558.00      23.62
 84.87     566.21      23.80
 84.97     537.25      23.18
 85.07     550.00      23.45
 85.17     532.00      23.07
 85.27     507.00      22.52
 85.37     519.00      22.78
 85.47     530.72      23.04
 85.57     553.00      23.52
 85.67     557.00      23.60
 85.77     505.07      22.47
 85.87     494.88      22.25
 85.97     533.89      23.11
 86.07     523.00      22.87
 86.17     519.00      22.78
 86.27     544.34      23.33
 86.37     533.21      23.09
 86.47     587.00      24.23
 86.57     594.00      24.37
 86.67     543.59      23.31
 86.77     570.00      23.87
 86.87     592.00      24.33
 86.97     624.97      25.00
 87.07     577.00      24.02
 87.17     588.00      24.25
 87.27     627.88      25.06
 87.37     588.04      24.25
 87.47     669.00      25.87
 87.57     662.09      25.73
 87.67     634.73      25.19
 87.77     631.77      25.14
 87.87     653.00      25.55
 87.97     630.63      25.11
 88.07     596.68      24.43
 88.17     600.00      24.49
 88.27     582.00      24.12
 88.37     536.10      23.15
 88.47     601.63      24.53
 88.57     591.00      24.31
 88.67     615.00      24.80
 88.77     610.00      24.70
 88.87     620.00      24.90
 88.97     595.20      24.40
 89.07     621.00      24.92
 89.17     600.00      24.49
 89.27     591.00      24.31
 89.37     557.00      23.60
 89.47     628.00      25.06
 89.57     559.88      23.66
 89.67     581.00      24.10
 89.77     598.68      24.47
 89.87     541.13      23.26
 89.97     535.00      23.13
 90.07     606.87      24.63
 90.17     534.00      23.11
 90.27     549.00      23.43
 90.37     567.08      23.81
 90.47     515.00      22.69
 90.57     494.00      22.23
 90.67     518.00      22.76
 90.77     518.00      22.76
 90.87     512.00      22.63
 90.97     565.00      23.77
 91.07     523.00      22.87
 91.17     517.00      22.74
 91.27     554.93      23.56
 91.37     522.00      22.85
 91.47     533.00      23.09
 91.57     526.00      22.93
 91.67     515.00      22.69
 91.77     581.20      24.11
 91.87     533.00      23.09
 91.97     563.00      23.73
 92.07     541.00      23.26
 92.17     583.00      24.15
 92.27     568.00      23.83
 92.37     624.17      24.98
 92.47     640.85      25.31
 92.57     644.00      25.38
 92.67     692.86      26.32
 92.77     676.00      26.00
 92.87     737.00      27.15
 92.97     748.00      27.35
 93.07     732.16      27.06
 93.17     788.00      28.07
 93.27     794.00      28.18
 93.37     787.00      28.05
 93.47     803.00      28.34
 93.57     850.77      29.17
 93.67     859.00      29.31
 93.77     786.08      28.04
 93.87     842.76      29.03
 93.97     892.00      29.87
 94.07     934.00      30.56
 94.17     823.00      28.69
 94.27     837.40      28.94
 94.37     880.00      29.66
 94.47     894.50      29.91
 94.57     904.71      30.08
 94.67     965.00      31.06
 94.77     900.00      30.00
 94.87     912.00      30.20
 94.97     931.35      30.52
 95.07     901.00      30.02
 95.17     838.41      28.96
 95.27     769.89      27.75
 95.37     864.00      29.39
 95.47     813.00      28.51
 95.57     699.72      26.45
 95.67     744.00      27.28
 95.77     714.00      26.72
 95.87     672.16      25.93
 95.97     644.00      25.38
 96.07     657.00      25.63
 96.17     672.00      25.92
 96.27     711.00      26.66
 96.37     780.00      27.93
 96.47     794.00      28.18
 96.57     878.00      29.63
 96.67     902.00      30.03
 96.77     942.00      30.69
 96.87    1064.00      32.62
 96.97    1191.00      34.51
 97.07    1165.00      34.13
 97.17    1338.18      36.58
 97.27    1318.00      36.30
 97.37    1397.00      37.38
 97.47    1342.00      36.63
 97.57    1443.00      37.99
 97.67    1459.00      38.20
 97.77    1440.95      37.96
 97.87    1388.00      37.26
 97.97    1336.22      36.55
 98.07    1227.00      35.03
 98.17    1088.23      32.99
 98.27    1072.00      32.74
 98.37     999.00      31.61
 98.47     945.53      30.75
 98.57     854.26      29.23
 98.67     833.00      28.86
 98.77     854.00      29.22
 98.87     775.84      27.85
 98.97     762.97      27.62
 99.07     761.00      27.59
 99.17     794.16      28.18
 99.27     874.00      29.56
 99.37     917.00      30.28
 99.47    1028.39      32.07
 99.57    1070.00      32.71
 99.67    1133.00      33.66
 99.77    1253.26      35.40
 99.87    1400.00      37.42
 99.97    1559.00      39.48
100.07    1705.00      41.29
100.17    1741.68      41.73
100.27    1818.00      42.64
100.37    1951.00      44.17
100.47    2061.49      45.40
100.57    2193.00      46.83
100.67    2090.30      45.72
100.77    2105.00      45.88
100.87    2095.00      45.77
100.97    2058.00      45.37
101.07    2076.00      45.56
101.17    1959.00      44.26
101.27    1846.13      42.97
101.37    1686.00      41.06
101.47    1604.00      40.05
101.57    1466.00      38.29
101.67    1442.39      37.98
101.77    1382.00      37.18
101.87    1345.16      36.68
101.97    1244.00      35.27
102.07    1232.77      35.11
102.17    1131.00      33.63
102.27    1106.00      33.26
102.37    1078.00      32.83
102.47    1146.00      33.85
102.57    1043.38      32.30
102.67    1035.00      32.17
102.77    1076.00      32.80
102.87     989.00      31.45
102.97     977.44      31.26
103.07     914.47      30.24
103.17     861.00      29.34
103.27     863.00      29.38
103.37     826.10      28.74
103.47     772.57      27.80
103.57     738.00      27.17
103.67     732.00      27.06
103.77     623.96      24.98
103.87     653.46      25.56
103.97     624.00      24.98
104.07     592.00      24.33
104.17     593.00      24.35
104.27     593.00      24.35
104.37     519.85      22.80
104.47     524.09      22.89
104.57     550.02      23.45
104.67     527.00      22.96
104.77     565.42      23.78
104.87     528.12      22.98
104.97     530.00      23.02
105.07     560.96      23.68
105.17     531.00      23.04
105.27     583.00      24.15
105.37     528.58      22.99
105.47     548.00      23.41
105.57     573.00      23.94
105.67     547.59      23.40
105.77     559.00      23.64
105.87     552.01      23.49
105.97     520.41      22.81
106.07     589.00      24.27
106.17     586.00      24.21
106.27     595.97      24.41
106.37     585.00      24.19
106.47     589.00      24.27
106.57     577.00      24.02
106.67     610.00      24.70
106.77     697.42      26.41
106.87     612.00      24.74
106.97     703.51      26.52
107.07     683.00      26.13
107.17     667.00      25.83
107.27     714.36      26.73
107.37     708.52      26.62
107.47     677.00      26.02
107.57     690.00      26.27
107.67     679.00      26.06
107.77     639.00      25.28
107.87     650.71      25.51
107.97     723.05      26.89
108.07     656.00      25.61
108.17     618.00      24.86
108.27     697.00      26.40
108.37     705.36      26.56
108.47     701.71      26.49
108.57     710.91      26.66
108.67     700.99      26.48
108.77     664.00      25.77
108.87     675.64      25.99
108.97     684.40      26.16
109.07     707.00      26.59
109.17     644.00      25.38
109.27     621.77      24.94
109.37     635.00      25.20
109.47     624.00      24.98
109.57     668.00      25.85
109.67     589.21      24.27
109.77     614.00      24.78
109.87     597.00      24.43
109.97     654.00      25.57
110.07     596.05      24.41
110.17     581.00      24.10
110.27     595.00      24.39
110.37     576.54      24.01
110.47     565.00      23.77
110.57     587.00      24.23
110.67     576.00      24.00
110.77     538.00      23.19
110.87     575.00      23.98
110.97     531.51      23.05
111.07     543.15      23.31
111.17     570.93      23.89
111.27     519.97      22.80
111.37     554.00      23.54
111.47     548.06      23.41
111.57     508.21      22.54
111.67     523.72      22.88
111.77     529.00      23.00
111.87     584.00      24.17
111.97     548.00      23.41
112.07     586.00      24.21
112.17     555.00      23.56
112.27     609.66      24.69
112.37     580.00      24.08
112.47     616.00      24.82
112.57     600.47      24.50
112.67     619.00      24.88
112.77     626.00      25.02
112.87     660.00      25.69
112.97     675.00      25.98
113.07     649.00      25.48
113.17     744.20      27.28
113.27     783.00      27.98
113.37     827.00      28.76
113.47     817.00      28.58
113.57     839.00      28.97
113.67     849.68      29.15
113.77     889.37      29.82
113.87     950.00      30.82
113.97     990.00      31.46
114.07    1048.80      32.39
114.17    1126.00      33.56
114.27    1253.67      35.41
114.37    1242.00      35.24
114.47    1383.00      37.19
114.57    1524.94      39.05
114.67    1519.89      38.99
114.77    1707.00      41.32
114.87    1874.34      43.29
114.97    2252.00      47.46
115.07    2221.18      47.13
115.17    2613.00      51.12
115.27    2871.50      53.59
115.37    2943.00      54.25
115.47    3222.00      56.76
115.57    3723.00      61.02
115.67    4088.00      63.94
115.77    4673.89      68.37
115.87    4755.00      68.96
115.97    5192.00      72.06
116.07    5581.00      74.71
116.17    6115.00      78.20
116.27    6352.00      79.70
116.37    6566.00      81.03
116.47    6898.89      83.06
116.57    6821.00      82.59
116.67    7043.00      83.92
116.77    6969.51      83.48
116.87    6837.00      82.69
116.97    6737.18      82.08
117.07    6515.52      80.72
117.17    6241.20      79.00
117.27    5902.84      76.83
117.37    5279.00      72.66
117.47    4821.00      69.43
117.57    4567.68      67.58
117.67    4237.05      65.09
117.77    3938.00      62.75
117.87    3741.00      61.16
117.97    3059.22      55.31
118.07    3030.00      55.05
118.17    2564.00      50.64
118.27    2190.08      46.80
118.37    1890.02      43.47
118.47    1792.38      42.34
118.57    1564.00      39.55
118.67    1374.00      37.07
118.77    1235.00      35.14
118.87    1080.00      32.86
118.97     989.27      31.45
119.07     929.77      30.49
119.17     869.00      29.48
119.27     782.16      27.97
119.37     788.00      28.07
119.47     745.00      27.29
119.57     740.79      27.22
119.67     644.92      25.40
119.77     670.00      25.88
119.87     640.00      25.30
119.97     629.00      25.08
120.07     645.00      25.40
120.17     586.42      24.22
120.27     575.00      23.98
120.37     564.76      23.76
120.47     583.00      24.15
120.57     529.00      23.00
120.67     543.79      23.32
120.77     597.00      24.43
120.87     564.00      23.75
120.97     598.00      24.45
121.07     584.75      24.18
121.17     564.00      23.75
121.27     593.00      24.35
121.37     595.00      24.39
121.47     545.61      23.36
121.57     558.23      23.63
121.67     594.40      24.38
121.77     585.50      24.20
121.87     627.57      25.05
121.97     598.00      24.45
122.07     629.02      25.08
122.17     588.00      24.25
122.27     598.00      24.45
122.37     639.00      25.28
122.47     664.00      25.77
122.57     610.00      24.70
122.67     643.00      25.36
122.77     616.53      24.83
122.87     632.00      25.14
122.97     683.71      26.15
123.07     616.90      24.84
123.17     639.00      25.28
123.27     637.40      25.25
123.37     633.00      25.16
123.47     650.00      25.50
123.57     645.54      25.41
123.67     621.00      24.92
123.77     613.00      24.76
123.87     593.00      24.35
123.97     582.47      24.13
124.07     592.49      24.34
124.17     595.00      24.39
124.27     631.00      25.12
124.37     619.00      24.88
124.47     625.00      25.00
124.57     610.29      24.70
124.67     562.71      23.72
124.77     618.15      24.86
124.87     589.00      24.27
124.97     597.00      24.43
