  9.97     593.00      24.35
 10.07     598.00      24.45
 10.17     532.49      23.08
 10.27     653.00      25.55
 10.37     650.00      25.50
 10.47     641.00      25.32
 10.57     529.79      23.02
 10.67     602.00      24.54
 10.77     571.00      23.90
 10.87     566.00      23.79
 10.97     562.00      23.71
 11.07     580.02      24.08
 11.17     605.00      24.60
 11.27     568.00      23.83
 11.37     581.00      24.10
 11.47     602.00      24.54
 11.57     529.94      23.02
 11.67     603.00      24.56
 11.77     626.06      25.02
 11.87     642.94      25.36
 11.97     656.00      25.61
 12.07     645.00      25.40
 12.17     729.83      27.02
 12.27     684.00      26.15
 12.37     668.00      25.85
 12.47     635.00      25.20
 12.57     613.00      24.76
 12.67     560.00      23.66
 12.77     594.30      24.38
 12.87     558.00      23.62
 12.97     603.61      24.57
 13.07     585.00      24.19
 13.17     533.00      23.09
 13.27     535.58      23.14
 13.37     549.83      23.45
 13.47     537.00      23.17
 13.57     610.08      24.70
 13.67     532.02      23.07
 13.77     561.00      23.69
 13.87     560.98      23.69
 13.97     558.00      23.62
 14.07     544.00      23.32
 14.17     544.95      23.34
 14.27     562.00      23.71
 14.37     577.03      24.02
 14.47     614.70      24.79
 14.57     555.00      23.56
 14.67     543.00      23.30
 14.77     524.61      22.90
 14.87     551.00      23.47
 14.97     616.00      24.82
 15.07     542.00      23.28
 15.17     552.24      23.50
 15.27     578.02      24.04
 15.37     529.00      23.00
 15.47     523.00      22.87
 15.57     579.00      24.06
 15.67     559.00      23.64
 15.77     555.26      23.56
 15.87     554.00      23.54
 15.97     566.00      23.79
 16.07     604.29      24.58
 16.17     521.59      22.84
 16.27     520.89      22.82
 16.37     569.00      23.85
 16.47     577.00      24.02
 16.57     563.32      23.73
 16.67     604.00      24.58
 16.77     545.71      23.36
 16.87     574.47      23.97
 16.97     588.00      24.25
 17.07     505.00      22.47
 17.17     607.00      24.64
 17.27     570.53      23.89
 17.37     544.22      23.33
 17.47     522.82      22.87
 17.57     560.00      23.66
 17.67     550.12      23.45
 17.77     557.00      23.60
 17.87     538.38      23.20
 17.97     546.31      23.37
 18.07     515.27      22.70
 18.17     567.00      23.81
 18.27     587.36      24.24
 18.37     586.28      24.21
 18.47     521.00      22.83
 18.57     570.00      23.87
 18.67     537.00      23.17
 18.77     611.00      24.72
 18.87     584.00      24.17
 18.97     512.00      22.63
 19.07     531.00      23.04
 19.17     564.84      23.77
 19.27     554.00      23.54
 19.37     546.00      23.37
 19.47     576.00      24.00
 19.57     571.00      23.90
 19.67     590.00      24.29
 19.77     516.09      22.72
 19.87     545.00      23.35
 19.97     523.81      22.89
 20.07     550.00      23.45
 20.17     607.14      24.64
 20.27     591.00      24.31
 20.37     514.00      22.67
 20.47     557.00      23.60
 20.57     581.44      24.11
 20.67     597.96      24.45
 20.77     535.00      23.13
 20.87     592.00      24.33
 20.97     575.00      23.98
 21.07     549.00      23.43
 21.17     533.00      23.09
 21.27     513.36      22.66
 21.37     540.00      23.24
 21.47     557.83      23.62
 21.57     517.50      22.75
 21.67     554.00      23.54
 21.77     508.48      22.55
 21.87     558.00      23.62
 21.97     587.43      24.24
 22.07     531.00      23.04
 22.17     519.00      22.78
 22.27     619.00      24.88
 22.37     537.00      23.17
 22.47     557.00      23.60
 22.57     517.53      22.75
 22.67     520.00      22.80
 22.77     550.00      23.45
 22.87     563.00      23.73
 22.97     581.00      24.10
 23.07     522.95      22.87
 23.17     520.68      22.82
 23.27     551.96      23.49
 23.37     626.00      25.02
 23.47     572.68      23.93
 23.57     549.29      23.44
 23.67     538.00      23.19
 23.77     568.00      23.83
 23.87     546.84      23.38
 23.97     604.00      24.58
 24.07     578.39      24.05
 24.17     549.72      23.45
 24.27     561.00      23.69
 24.37     584.61      24.18
 24.47     580.66      24.10
 24.57     614.00      24.78
 24.67     624.52      24.99
 24.77     617.00      24.84
 24.87     601.00      24.52
 24.97     622.00      24.94
 25.07     553.00      23.52
 25.17     591.00      24.31
 25.27     569.00      23.85
 25.37     560.00      23.66
 25.47     532.00      23.07
 25.57     579.00      24.06
 25.67     496.54      22.28
 25.77     511.68      22.62
 25.87     542.00      23.28
 25.97     604.00      24.58
 26.07     533.00      23.09
 26.17     555.00      23.56
 26.27     579.00      24.06
 26.37     540.98      23.26
 26.47     584.80      24.18
 26.57     575.00      23.98
 26.67     518.00      22.76
 26.77     548.00      23.41
 26.87     565.00      23.77
 26.97     571.23      23.90
 27.07     530.00      23.02
 27.17     495.00      22.25
 27.27     547.00      23.39
 27.37     567.00      23.81
 27.47     517.66      22.75
 27.57     558.22      23.63
 27.67     529.00      23.00
 27.77     538.00      23.19
 27.87     578.00      24.04
 27.97     704.00      26.53
 28.07     785.00      28.02
 28.17     864.87      29.41
 28.27    1015.82      31.87
 28.37     935.44      30.58
 28.47     782.50      27.97
 28.57     718.69      26.81
 28.67     697.00      26.40
 28.77     708.00      26.61
 28.87     789.00      28.09
 28.97     893.14      29.89
 29.07     725.00      26.93
 29.17     716.22      26.76
 29.27     617.00      24.84
 29.37     602.00      24.54
 29.47     599.00      24.47
 29.57     569.00      23.85
 29.67     571.00      23.90
 29.77     612.00      24.74
 29.87     579.00      24.06
 29.97     587.00      24.23
 30.07     597.00      24.43
 30.17     572.49      23.93
 30.27     542.00      23.28
 30.37     520.00      22.80
 30.47     567.00      23.81
 30.57     508.00      22.54
 30.67     572.00      23.92
 30.77     556.00      23.58
 30.87     632.14      25.14
 30.97     666.00      25.81
 31.07     577.59      24.03
 31.17     592.00      24.33
 31.27     538.00      23.19
 31.37     562.00      23.71
 31.47     569.00      23.85
 31.57     548.00      23.41
 31.67     553.31      23.52
 31.77     544.62      23.34
 31.87     538.97      23.22
 31.97     543.00      23.30
 32.07     547.00      23.39
 32.17     556.70      23.59
 32.27     536.00      23.15
 32.37     504.00      22.45
 32.47     554.00      23.54
 32.57     533.00      23.09
 32.67     484.39      22.01
 32.77     534.00      23.11
 32.87     565.00      23.77
 32.97     539.27      23.22
 33.07     582.00      24.12
 33.17     523.11      22.87
 33.27     576.00      24.00
 33.37     560.55      23.68
 33.47     582.18      24.13
 33.57     621.00      24.92
 33.67     630.00      25.10
 33.77     742.00      27.24
 33.87     896.00      29.93
 33.97    1049.00      32.39
 34.07    1128.00      33.59
 34.17     983.79      31.37
 34.27     904.00      30.07
 34.37     788.00      28.07
 34.47     670.00      25.88
 34.57     615.00      24.80
 34.67     559.94      23.66
 34.77     548.00      23.41
 34.87     519.00      22.78
 34.97     546.10      23.37
 35.07     539.36      23.22
 35.17     568.82      23.85
 35.27     551.00      23.47
 35.37     532.00      23.07
 35.47     529.00      23.00
 35.57     502.00      22.41
 35.67     474.05      21.77
 35.77     506.00      22.49
 35.87     491.00      22.16
 35.97     500.00      22.36
 36.07     535.00      23.13
 36.17     540.10      23.24
 36.27     501.89      22.40
 36.37     495.00      22.25
 36.47     544.84      23.34
 36.57     511.42      22.61
 36.67     516.00      22.72
 36.77     475.00      21.79
 36.87     493.00      22.20
 36.97     528.00      22.98
 37.07     489.92      22.13
 37.17     495.00      22.25
 37.27     534.00      23.11
 37.37     521.00      22.83
 37.47     525.00      22.91
 37.57     548.84      23.43
 37.67     514.35      22.68
 37.77     557.00      23.60
 37.87     523.00      22.87
 37.97     515.00      22.69
 38.07     529.34      23.01
 38.17     488.00      22.09
 38.27     471.40      21.71
 38.37     514.00      22.67
 38.47     530.00      23.02
 38.57     507.00      22.52
 38.67     543.00      23.30
 38.77     496.00      22.27
 38.87     489.00      22.11
 38.97     518.00      22.76
 39.07     521.00      22.83
 39.17     462.34      21.50
 39.27     483.00      21.98
 39.37     532.00      23.07
 39.47     480.00      21.91
 39.57     551.94      23.49
 39.67     496.88      22.29
 39.77     515.00      22.69
 39.87     521.00      22.83
 39.97     495.00      22.25
 40.07     458.93      21.42
 40.17     463.00      21.52
 40.27     476.00      21.82
 40.37     481.00      21.93
 40.47     460.00      21.45
 40.57     503.00      22.43
 40.67     495.57      22.26
 40.77     472.00      21.73
 40.87     487.00      22.07
 40.97     504.00      22.45
 41.07     517.00      22.74
 41.17     495.00      22.25
 41.27     468.94      21.66
 41.37     551.34      23.48
 41.47     449.00      21.19
 41.57     468.65      21.65
 41.67     552.57      23.51
 41.77     542.30      23.29
 41.87     494.00      22.23
 41.97     510.00      22.58
 42.07     504.98      22.47
 42.17     497.00      22.29
 42.27     500.00      22.36
 42.37     563.50      23.74
 42.47     576.00      24.00
 42.57     645.00      25.40
 42.67     638.00      25.26
 42.77     591.00      24.31
 42.87     570.00      23.87
 42.97     579.09      24.06
 43.07     547.00      23.39
 43.17     571.00      23.90
 43.27     511.00      22.61
 43.37     486.00      22.05
 43.47     484.00      22.00
 43.57     557.00      23.60
 43.67     547.24      23.39
 43.77     513.00      22.65
 43.87     498.00      22.32
 43.97     528.00      22.98
 44.07     492.00      22.18
 44.17     525.14      22.92
 44.27     481.00      21.93
 44.37     527.37      22.96
 44.47     523.00      22.87
 44.57     519.00      22.78
 44.67     492.33      22.19
 44.77     468.00      21.63
 44.87     549.00      23.43
 44.97     511.00      22.61
 45.07     496.00      22.27
 45.17     481.00      21.93
 45.27     503.00      22.43
 45.37     507.00      22.52
 45.47     485.00      22.02
 45.57     481.00      21.93
 45.67     524.00      22.89
 45.77     549.35      23.44
 45.87     522.85      22.87
 45.97     482.52      21.97
 46.07     539.93      23.24
 46.17     522.00      22.85
 46.27     542.00      23.28
 46.37     503.00      22.43
 46.47     523.15      22.87
 46.57     526.00      22.93
 46.67     499.00      22.34
 46.77     493.00      22.20
 46.87     515.00      22.69
 46.97     487.00      22.07
 47.07     516.00      22.72
 47.17     549.82      23.45
 47.27     558.00      23.62
 47.37     514.67      22.69
 47.47     502.00      22.41
 47.57     539.00      23.22
 47.67     549.00      23.43
 47.77     543.00      23.30
 47.87     634.27      25.18
 47.97     578.00      24.04
 48.07     614.00      24.78
 48.17     524.96      22.91
 48.27     526.00      22.93
 48.37     516.00      22.72
 48.47     546.00      23.37
 48.57     515.47      22.70
 48.67     525.00      22.91
 48.77     493.00      22.20
 48.87     524.49      22.90
 48.97     568.00      23.83
 49.07     570.00      23.87
 49.17     566.50      23.80
 49.27     558.00      23.62
 49.37     588.47      24.26
 49.47     712.00      26.68
 49.57     799.34      28.27
 49.67     861.84      29.36
 49.77    1137.00      33.72
 49.87    1477.00      38.43
 49.97    1918.00      43.79
 50.07    2195.00      46.85
 50.17    2474.00      49.74
 50.27    2426.65      49.26
 50.37    2200.00      46.90
 50.47    1783.00      42.23
 50.57    1408.46      37.53
 50.67    1085.00      32.94
 50.77     834.00      28.88
 50.87     736.00      27.13
 50.97     720.52      26.84
 51.07     660.42      25.70
 51.17     638.69      25.27
 51.27     641.94      25.34
 51.37     631.00      25.12
 51.47     605.00      24.60
 51.57     598.14      24.46
 51.67     594.00      24.37
 51.77     552.00      23.49
 51.87     552.71      23.51
 51.97     543.74      23.32
 52.07     500.92      22.38
 52.17     494.19      22.23
 52.27     569.00      23.85
 52.37     541.25      23.26
 52.47     633.00      25.16
 52.57     547.00      23.39
 52.67     586.00      24.21
 52.77     570.00      23.87
 52.87     649.00      25.48
 52.97     739.00      27.18
 53.07     811.00      28.48
 53.17     928.00      30.46
 53.27    1027.00      32.05
 53.37    1213.05      34.83
 53.47    1272.88      35.68
 53.57    1188.00      34.47
 53.67    1129.00      33.60
 53.77     963.00      31.03
 53.87     854.07      29.22
 53.97     787.00      28.05
 54.07     725.55      26.94
 54.17     613.00      24.76
 54.27     544.69      23.34
 54.37     606.78      24.63
 54.47     506.99      22.52
 54.57     594.23      24.38
 54.67     512.58      22.64
 54.77     560.00      23.66
 54.87     591.00      24.31
 54.97     499.40      22.35
 55.07     572.00      23.92
 55.17     578.00      24.04
 55.27     545.64      23.36
 55.37     578.28      24.05
 55.47     510.95      22.60
 55.57     587.93      24.25
 55.67     574.00      23.96
 55.77     554.17      23.54
 55.87     593.73      24.37
 55.97     632.00      25.14
 56.07     669.00      25.87
 56.17     786.00      28.04
 56.27     964.30      31.05
 56.37    1217.96      34.90
 56.47    1407.00      37.51
 56.57    1780.00      42.19
 56.67    2111.00      45.95
 56.77    2464.18      49.64
 56.87    2644.00      51.42
 56.97    2684.00      51.81
 57.07    2412.00      49.11
 57.17    2020.38      44.95
 57.27    1675.00      40.93
 57.37    1329.00      36.46
 57.47    1111.64      33.34
 57.57     841.07      29.00
 57.67     768.00      27.71
 57.77     732.00      27.06
 57.87     680.00      26.08
 57.97     681.00      26.10
 58.07     641.21      25.32
 58.17     729.00      27.00
 58.27     755.00      27.48
 58.37     896.15      29.94
 58.47     903.72      30.06
 58.57    1064.00      32.62
 58.67    1157.00      34.01
 58.77    1330.00      36.47
 58.87    1435.00      37.88
 58.97    1430.00      37.82
 59.07    1478.00      38.44
 59.17    1394.67      37.35
 59.27    1369.96      37.01
 59.37    1237.41      35.18
 59.47    1254.00      35.41
 59.57    1098.00      33.14
 59.67    1108.83      33.30
 59.77    1199.00      34.63
 59.87    1255.00      35.43
 59.97    1323.00      36.37
 60.07    1396.31      37.37
 60.17    1582.00      39.77
 60.27    1547.00      39.33
 60.37    1450.93      38.09
 60.47    1431.00      37.83
 60.57    1259.00      35.48
 60.67    1021.00      31.95
 60.77     877.66      29.63
 60.87     804.00      28.35
 60.97     696.00      26.38
 61.07     675.00      25.98
 61.17     602.00      24.54
 61.27     619.50      24.89
 61.37     612.00      24.74
 61.47     673.09      25.94
 61.57     783.00      27.98
 61.67     853.00      29.21
 61.77     909.00      30.15
 61.87    1064.00      32.62
 61.97    1174.00      34.26
 62.07    1294.00      35.97
 62.17    1400.64      37.43
 62.27    1409.00      37.54
 62.37    1254.00      35.41
 62.47    1212.00      34.81
 62.57     984.00      31.37
 62.67     922.00      30.36
 62.77     785.56      28.03
 62.87     653.92      25.57
 62.97     593.00      24.35
 63.07     657.80      25.65
 63.17     584.00      24.17
 63.27     558.00      23.62
 63.37     572.00      23.92
 63.47     587.00      24.23
 63.57     607.00      24.64
 63.67     574.00      23.96
 63.77     585.00      24.19
 63.87     621.17      24.92
 63.97     682.00      26.12
 64.07     734.76      27.11
 64.17     716.53      26.77
 64.27     864.00      29.39
 64.37     970.00      31.14
 64.47     982.00      31.34
 64.57    1044.00      32.31
 64.67    1019.02      31.92
 64.77     994.68      31.54
 64.87     973.00      31.19
 64.97     898.00      29.97
 65.07     877.39      29.62
 65.17     779.00      27.91
 65.27     736.49      27.14
 65.37     699.00      26.44
 65.47     629.00      25.08
 65.57     620.77      24.92
 65.67     561.18      23.69
 65.77     601.00      24.52
 65.87     577.00      24.02
 65.97     550.04      23.45
 66.07     529.79      23.02
 66.17     574.40      23.97
 66.27     535.00      23.13
 66.37     595.00      24.39
 66.47     587.00      24.23
 66.57     550.70      23.47
 66.67     572.79      23.93
 66.77     546.67      23.38
 66.87     566.00      23.79
 66.97     565.04      23.77
 67.07     639.00      25.28
 67.17     734.28      27.10
 67.27     787.00      28.05
 67.37     877.26      29.62
 67.47    1147.00      33.87
 67.57    1296.00      36.00
 67.67    1588.23      39.85
 67.77    1869.43      43.24
 67.87    2120.00      46.04
 67.97    2284.00      47.79
 68.07    2506.46      50.06
 68.17    2500.84      50.01
 68.27    2241.43      47.34
 68.37    2014.00      44.88
 68.47    1805.63      42.49
 68.57    1552.00      39.40
 68.67    1215.12      34.86
 68.77     996.00      31.56
 68.87     941.00      30.68
 68.97     795.00      28.20
 69.07     663.13      25.75
 69.17     667.00      25.83
 69.27     675.00      25.98
 69.37     604.35      24.58
 69.47     645.00      25.40
 69.57     617.00      24.84
 69.67     560.00      23.66
 69.77     619.61      24.89
 69.87     565.00      23.77
 69.97     543.43      23.31
 70.07     599.00      24.47
 70.17     576.00      24.00
 70.27     532.00      23.07
 70.37     595.30      24.40
 70.47     558.96      23.64
 70.57     581.32      24.11
 70.67     588.00      24.25
 70.77     635.93      25.22
 70.87     581.00      24.10
 70.97     594.13      24.37
 71.07     641.00      25.32
 71.17     750.00      27.39
 71.27     766.00      27.68
 71.37     928.73      30.48
 71.47    1074.32      32.78
 71.57    1287.33      35.88
 71.67    1390.00      37.28
 71.77    1579.03      39.74
 71.87    1878.00      43.34
 71.97    1957.62      44.25
 72.07    1896.72      43.55
 72.17    1815.00      42.60
 72.27    1821.00      42.67
 72.37    1586.00      39.82
 72.47    1508.00      38.83
 72.57    1362.00      36.91
 72.67    1133.00      33.66
 72.77     995.00      31.54
 72.87     937.00      30.61
 72.97     913.22      30.22
 73.07     808.39      28.43
 73.17     762.46      27.61
 73.27     724.94      26.92
 73.37     684.00      26.15
 73.47     706.72      26.58
 73.57     644.00      25.38
 73.67     589.97      24.29
 73.77     625.00      25.00
 73.87     568.43      23.84
 73.97     627.83      25.06
 74.07     637.00      25.24
 74.17     522.99      22.87
 74.27     601.00      24.52
 74.37     611.00      24.72
 74.47     567.25      23.82
 74.57     661.00      25.71
 74.67     661.00      25.71
 74.77     580.30      24.09
 74.87     549.70      23.45
 74.97     513.92      22.67
 75.07     551.92      23.49
 75.17     565.11      23.77
 75.27     589.00      24.27
 75.37     550.00      23.45
 75.47     543.57      23.31
 75.57     537.00      23.17
 75.67     569.60      23.87
 75.77     554.00      23.54
 75.87     575.00      23.98
 75.97     637.74      25.25
 76.07     576.35      24.01
 76.17     677.00      26.02
 76.27     714.00      26.72
 76.37     718.00      26.80
 76.47     698.73      26.43
 76.57     693.00      26.32
 76.67     681.78      26.11
 76.77     651.00      25.51
 76.87     645.00      25.40
 76.97     673.00      25.94
 77.07     591.94      24.33
 77.17     560.00      23.66
 77.27     534.00      23.11
 77.37     572.00      23.92
 77.47     552.83      23.51
 77.57     566.70      23.81
 77.67     572.00      23.92
 77.77     531.00      23.04
 77.87     536.00      23.15
 77.97     505.95      22.49
 78.07     527.81      22.97
 78.17     518.00      22.76
 78.27     502.00      22.41
 78.37     503.44      22.44
 78.47     498.00      22.32
 78.57     497.00      22.29
 78.67     511.00      22.61
 78.77     510.00      22.58
 78.87     520.00      22.80
 78.97     527.00      22.96
 79.07     501.00      22.38
 79.17     533.10      23.09
 79.27     557.00      23.60
 79.37     516.00      22.72
 79.47     516.00      22.72
 79.57     535.92      23.15
 79.67     491.02      22.16
 79.77     527.00      22.96
 79.87     551.31      23.48
 79.97     544.00      23.32
 80.07     517.40      22.75
 80.17     535.00      23.13
 80.27     533.42      23.10
 80.37     555.00      23.56
 80.47     553.19      23.52
 80.57     571.00      23.90
 80.67     650.24      25.50
 80.77     578.00      24.04
 80.87     671.00      25.90
 80.97     721.00      26.85
 81.07     713.00      26.70
 81.17     788.89      28.09
 81.27     745.00      27.29
 81.37     761.00      27.59
 81.47     754.00      27.46
 81.57     730.00      27.02
 81.67     712.46      26.69
 81.77     729.00      27.00
 81.87     739.00      27.18
 81.97     699.00      26.44
 82.07     687.00      26.21
 82.17     632.02      25.14
 82.27     611.00      24.72
 82.37     639.00      25.28
 82.47     576.64      24.01
 82.57     614.00      24.78
 82.67     536.00      23.15
 82.77     588.00      24.25
 82.87     576.08      24.00
 82.97     552.91      23.51
 83.07     609.00      24.68
 83.17     571.00      23.90
 83.27     580.00      24.08
 83.37     545.73      23.36
 83.47     537.57      23.19
 83.57     536.94      23.17
 83.67     551.00      23.47
 83.77     523.01      22.87
 83.87     573.00      23.94
 83.97     580.00      24.08
 84.07     545.00      23.35
 84.17     602.00      24.54
 84.27     562.00      23.71
 84.37     570.00      23.87
 84.47     550.00      23.45
 84.57     561.02      23.69
 84.67     533.04      23.09
 84.77     559.76      23.66
 84.87     582.00      24.12
 84.97     546.00      23.37
 85.07     518.00      22.76
 85.17     533.00      23.09
 85.27     544.58      23.34
 85.37     527.00      22.96
 85.47     574.00      23.96
 85.57     534.00      23.11
 85.67     527.00      22.96
 85.77     533.29      23.09
 85.87     492.62      22.19
 85.97     508.00      22.54
 86.07     529.00      23.00
 86.17     550.80      23.47
 86.27     532.00      23.07
 86.37     523.95      22.89
 86.47     519.87      22.80
 86.57     547.00      23.39
 86.67     581.00      24.10
 86.77     528.70      22.99
 86.87     565.00      23.77
 86.97     621.00      24.92
 87.07     616.00      24.82
 87.17     583.00      24.15
 87.27     666.00      25.81
 87.37     619.72      24.89
 87.47     634.84      25.20
 87.57     629.00      25.08
 87.67     617.00      24.84
 87.77     622.00      24.94
 87.87     620.00      24.90
 87.97     620.00      24.90
 88.07     639.00      25.28
 88.17     591.00      24.31
 88.27     603.13      24.56
 88.37     623.00      24.96
 88.47     581.00      24.10
 88.57     504.00      22.45
 88.67     578.00      24.04
 88.77     581.01      24.10
 88.87     610.60      24.71
 88.97     590.00      24.29
 89.07     619.00      24.88
 89.17     627.00      25.04
 89.27     615.87      24.82
 89.37     585.00      24.19
 89.47     614.90      24.80
 89.57     546.07      23.37
 89.67     598.00      24.45
 89.77     588.98      24.27
 89.87     575.00      23.98
 89.97     593.63      24.36
 90.07     585.00      24.19
 90.17     554.00      23.54
 90.27     480.00      21.91
 90.37     510.00      22.58
 90.47     511.00      22.61
 90.57     530.00      23.02
 90.67     508.98      22.56
 90.77     515.00      22.69
 90.87     513.00      22.65
 90.97     526.57      22.95
 91.07     534.00      23.11
 91.17     574.14      23.96
 91.27     538.00      23.19
 91.37     541.00      23.26
 91.47     530.70      23.04
 91.57     493.62      22.22
 91.67     503.66      22.44
 91.77     521.10      22.83
 91.87     557.81      23.62
 91.97     602.98      24.56
 92.07     544.40      23.33
 92.17     576.85      24.02
 92.27     571.00      23.90
 92.37     618.56      24.87
 92.47     587.31      24.23
 92.57     636.38      25.23
 92.67     692.00      26.31
 92.77     681.00      26.10
 92.87     711.00      26.66
 92.97     711.00      26.66
 93.07     787.51      28.06
 93.17     786.00      28.04
 93.27     747.00      27.33
 93.37     810.00      28.46
 93.47     821.00      28.65
 93.57     820.00      28.64
 93.67     824.49      28.71
 93.77     871.00      29.51
 93.87     759.26      27.55
 93.97     866.00      29.43
 94.07     889.00      29.82
 94.17     884.45      29.74
 94.27     872.00      29.53
 94.37     876.00      29.60
 94.47     859.94      29.32
 94.57     909.00      30.15
 94.67     913.25      30.22
 94.77     917.89      30.30
 94.87     863.14      29.38
 94.97     941.00      30.68
 95.07     892.00      29.87
 95.17     899.00      29.98
 95.27     863.00      29.38
 95.37     834.85      28.89
 95.47     770.00      27.75
 95.57     779.00      27.91
 95.67     727.68      26.98
 95.77     683.00      26.13
 95.87     732.34      27.06
 95.97     679.38      26.06
 96.07     700.00      26.46
 96.17     720.00      26.83
 96.27     678.00      26.04
 96.37     716.00      26.76
 96.47     760.10      27.57
 96.57     847.30      29.11
 96.67     971.37      31.17
 96.77     942.00      30.69
 96.87    1044.00      32.31
 96.97    1150.00      33.91
 97.07    1225.20      35.00
 97.17    1256.00      35.44
 97.27    1293.00      35.96
 97.37    1398.00      37.39
 97.47    1438.00      37.92
 97.57    1436.00      37.89
 97.67    1379.00      37.13
 97.77    1420.66      37.69
 97.87    1302.00      36.08
 97.97    1212.30      34.82
 98.07    1233.20      35.12
 98.17    1168.00      34.18
 98.27    1100.00      33.17
 98.37     950.00      30.82
 98.47     959.00      30.97
 98.57     913.00      30.22
 98.67     893.36      29.89
 98.77     853.00      29.21
 98.87     810.00      28.46
 98.97     801.00      28.30
 99.07     791.00      28.12
 99.17     841.00      29.00
 99.27     937.00      30.61
 99.37     951.00      30.84
 99.47    1033.59      32.15
 99.57    1135.69      33.70
 99.67    1264.00      35.55
 99.77    1290.00      35.92
 99.87    1428.00      37.79
 99.97    1447.05      38.04
100.07    1607.00      40.09
100.17    1766.00      42.02
100.27    1734.42      41.65
100.37    1873.17      43.28
100.47    1994.00      44.65
100.57    2051.29      45.29
100.67    2070.00      45.50
100.77    2108.00      45.91
100.87    2018.00      44.92
100.97    1936.02      44.00
101.07    1934.00      43.98
101.17    1859.00      43.12
101.27    1717.00      41.44
101.37    1645.11      40.56
101.47    1619.00      40.24
101.57    1541.12      39.26
101.67    1430.89      37.83
101.77    1363.00      36.92
101.87    1253.00      35.40
101.97    1184.09      34.41
102.07    1160.60      34.07
102.17    1229.75      35.07
102.27    1090.00      33.02
102.37    1145.00      33.84
102.47    1059.00      32.54
102.57    1081.50      32.89
102.67    1013.00      31.83
102.77     985.00      31.38
102.87    1023.43      31.99
102.97     917.03      30.28
103.07     896.00      29.93
103.17     842.48      29.03
103.27     833.00      28.86
103.37     797.00      28.23
103.47     734.16      27.10
103.57     777.74      27.89
103.67     648.00      25.46
103.77     670.00      25.88
103.87     646.00      25.42
103.97     629.00      25.08
104.07     597.97      24.45
104.17     617.00      24.84
104.27     548.47      23.42
104.37     590.00      24.29
104.47     503.97      22.45
104.57     520.99      22.83
104.67     550.13      23.45
104.77     542.00      23.28
104.87     537.00      23.17
104.97     533.00      23.09
105.07     508.56      22.55
105.17     531.00      23.04
105.27     560.00      23.66
105.37     514.00      22.67
105.47     553.00      23.52
105.57     510.00      22.58
105.67     573.00      23.94
105.77     537.00      23.17
105.87     534.22      23.11
105.97     580.00      24.08
106.07     609.04      24.68
106.17     606.12      24.62
106.27     548.00      23.41
106.37     608.03      24.66
106.47     632.00      25.14
106.57     607.00      24.64
106.67     634.00      25.18
106.77     602.00      24.54
106.87     651.00      25.51
106.97     676.00      26.00
107.07     612.00      24.74
107.17     683.00      26.13
107.27     682.00      26.12
107.37     719.40      26.82
107.47     719.26      26.82
107.57     685.00      26.17
107.67     713.80      26.72
107.77     671.00      25.90
107.87     735.63      27.12
107.97     674.00      25.96
108.07     657.00      25.63
108.17     642.00      25.34
108.27     693.00      26.32
108.37     717.72      26.79
108.47     663.00      25.75
108.57     736.60      27.14
108.67     727.00      26.96
108.77     653.75      25.57
108.87     683.00      26.13
108.97     694.85      26.36
109.07     685.00      26.17
109.17     707.00      26.59
109.27     654.12      25.58
109.37     698.00      26.42
109.47     630.19      25.10
109.57     642.00      25.34
109.67     622.00      24.94
109.77     586.10      24.21
109.87     610.80      24.71
109.97     636.00      25.22
110.07     554.47      23.55
110.17     594.00      24.37
110.27     516.02      22.72
110.37     589.00      24.27
110.47     554.00      23.54
110.57     556.00      23.58
110.67     556.59      23.59
110.77     552.00      23.49
110.87     507.70      22.53
110.97     533.48      23.10
111.07     513.24      22.65
111.17     538.10      23.20
111.27     562.00      23.71
111.37     527.29      22.96
111.47     570.00      23.87
111.57     499.00      22.34
111.67     542.00      23.28
111.77     543.00      23.30
111.87     588.00      24.25
111.97     570.00      23.87
112.07     543.00      23.30
112.17     578.00      24.04
112.27     540.00      23.24
112.37     536.00      23.15
112.47     556.74      23.60
112.57     609.00      24.68
112.67     593.00      24.35
112.77     646.73      25.43
112.87     661.30      25.72
112.97     655.00      25.59
113.07     689.00      26.25
113.17     638.00      25.26
113.27     736.10      27.13
113.37     748.00      27.35
113.47     730.67      27.03
113.57     733.94      27.09
113.67     868.59      29.47
113.77     855.00      29.24
113.87     888.55      29.81
113.97     932.00      30.53
114.07     983.00      31.35
114.17    1108.62      33.30
114.27    1105.00      33.24
114.37    1256.77      35.45
114.47    1230.42      35.08
114.57    1397.90      37.39
114.67    1447.41      38.04
114.77    1714.20      41.40
114.87    1876.46      43.32
114.97    2101.00      45.84
115.07    2205.14      46.96
115.17    2551.00      50.51
115.27    2807.10      52.98
115.37    3131.00      55.96
115.47    3431.00      58.57
115.57    3854.38      62.08
115.67    4038.00      63.55
115.77    4474.00      66.89
115.87    4943.12      70.31
115.97    5266.00      72.57
116.07    5523.00      74.32
116.17    5972.00      77.28
116.27    6251.16      79.06
116.37    6569.00      81.05
116.47    6755.82      82.19
116.57    6951.00      83.37
116.67    6924.00      83.21
116.77    6933.00      83.26
116.87    6787.00      82.38
116.97    6496.00      80.60
117.07    6250.62      79.06
117.17    5993.00      77.41
117.27    5627.00      75.01
117.37    5179.00      71.97
117.47    4951.00      70.36
117.57    4696.58      68.53
117.67    4214.58      64.92
117.77    3851.00      62.06
117.87    3509.00      59.24
117.97    3233.00      56.86
118.07    2884.00      53.70
118.17    2568.71      50.68
118.27    2284.00      47.79
118.37    2011.00      44.84
118.47    1799.00      42.41
118.57    1512.00      38.88
118.67    1395.94      37.36
118.77    1273.00      35.68
118.87    1174.51      34.27
118.97     998.00      31.59
119.07     953.00      30.87
119.17     922.96      30.38
119.27     788.58      28.08
119.37     797.12      28.23
119.47     736.00      27.13
119.57     682.00      26.12
119.67     711.00      26.66
119.77     621.00      24.92
119.87     665.00      25.79
119.97     673.00      25.94
120.07     615.00      24.80
120.17     621.00      24.92
120.27     641.47      25.33
120.37     602.36      24.54
120.47     624.62      24.99
120.57     579.00      24.06
120.67     626.10      25.02
120.77     602.11      24.54
120.87     538.75      23.21
120.97     597.37      24.44
121.07     608.00      24.66
121.17     543.00      23.30
121.27     532.37      23.07
121.37     583.00      24.15
121.47     607.81      24.65
121.57     581.00      24.10
121.67     594.94      24.39
121.77     608.00      24.66
121.87     584.00      24.17
121.97     583.00      24.15
122.07     628.00      25.06
122.17     616.00      24.82
122.27     639.03      25.28
122.37     639.00      25.28
122.47     669.08      25.87
122.57     662.00      25.73
122.67     627.00      25.04
122.77     607.00      24.64
122.87     644.79      25.39
122.97     597.79      24.45
123.07     664.00      25.77
123.17     621.00      24.92
123.27     665.00      25.79
123.37     661.00      25.71
123.47     612.00      24.74
123.57     671.90      25.92
123.67     641.00      25.32
123.77     670.00      25.88
123.87     626.51      25.03
123.97     583.58      24.16
124.07     606.00      24.62
124.17     568.60      23.85
124.27     594.00      24.37
124.37     548.00      23.41
124.47     659.00      25.67
124.57     556.14      23.58
124.67     580.00      24.08
124.77     600.00      24.49
124.87     548.84      23.43
124.97     610.00      24.70
