  9.97     613.00      24.76
 10.07     566.00      23.79
 10.17     572.02      23.92
 10.27     535.67      23.14
 10.37     612.00      24.74
 10.47     549.79      23.45
 10.57     531.26      23.05
 10.67     594.00      24.37
 10.77     562.00      23.71
 10.87     591.00      24.31
 10.97     553.64      23.53
 11.07     542.00      23.28
 11.17     591.88      24.33
 11.27     566.00      23.79
 11.37     574.00      23.96
 11.47     581.79      24.12
 11.57     588.00      24.25
 11.67     619.00      24.88
 11.77     619.00      24.88
 11.87     596.00      24.41
 11.97     651.00      25.51
 12.07     717.64      26.79
 12.17     657.67      25.65
 12.27     659.00      25.67
 12.37     659.00      25.67
 12.47     620.00      24.90
 12.57     635.26      25.20
 12.67     555.04      23.56
 12.77     580.00      24.08
 12.87     539.00      23.22
 12.97     573.00      23.94
 13.07     534.00      23.11
 13.17     574.43      23.97
 13.27     568.00      23.83
 13.37     586.10      24.21
 13.47     598.37      24.46
 13.57     547.18      23.39
 13.67     597.90      24.45
 13.77     578.00      24.04
 13.87     552.12      23.50
 13.97     530.00      23.02
 14.07     542.64      23.29
 14.17     601.51      24.53
 14.27     576.00      24.00
 14.37     555.00      23.56
 14.47     574.25      23.96
 14.57     558.25      23.63
 14.67     594.00      24.37
 14.77     539.00      23.22
 14.87     573.00      23.94
 14.97     558.94      23.64
 15.07     539.79      23.23
 15.17     567.00      23.81
 15.27     556.00      23.58
 15.37     584.00      24.17
 15.47     609.00      24.68
 15.57     567.00      23.81
 15.67     529.00      23.00
 15.77     565.00      23.77
 15.87     559.00      23.64
 15.97     642.00      25.34
 16.07     550.00      23.45
 16.17     552.00      23.49
 16.27     534.00      23.11
 16.37     564.54      23.76
 16.47     597.00      24.43
 16.57     537.00      23.17
 16.67     560.00      23.66
 16.77     570.00      23.87
 16.87     526.86      22.95
 16.97     571.40      23.90
 17.07     589.32      24.28
 17.17     554.76      23.55
 17.27     602.80      24.55
 17.37     593.16      24.35
 17.47     535.00      23.13
 17.57     576.00      24.00
 17.67     609.00      24.68
 17.77     555.00      23.56
 17.87     539.00      23.22
 17.97     582.61      24.14
 18.07     532.00      23.07
 18.17     542.05      23.28
 18.27     570.00      23.87
 18.37     565.00      23.77
 18.47     553.00      23.52
 18.57     566.00      23.79
 18.67     563.00      23.73
 18.77     584.00      24.17
 18.87     563.07      23.73
 18.97     549.00      23.43
 19.07     545.00      23.35
 19.17     578.00      24.04
 19.27     539.55      23.23
 19.37     565.00      23.77
 19.47     600.00      24.49
 19.57     564.10      23.75
 19.67     588.95      24.27
 19.77     566.00      23.79
 19.87     571.10      23.90
 19.97     594.00      24.37
 20.07     563.00      23.73
 20.17     549.00      23.43
 20.27     564.00      23.75
 20.37     565.00      23.77
 20.47     581.38      24.11
 20.57     543.00      23.30
 20.67     517.00      22.74
 20.77     516.77      22.73
 20.87     541.00      23.26
 20.97     579.54      24.07
 21.07     543.00      23.30
 21.17     556.00      23.58
 21.27     589.19      24.27
 21.37     522.00      22.85
 21.47     536.00      23.15
 21.57     510.48      22.59
 21.67     565.00      23.77
 21.77     569.00      23.85
 21.87     513.61      22.66
 21.97     597.22      24.44
 22.07     554.00      23.54
 22.17     574.99      23.98
 22.27     587.00      24.23
 22.37     558.79      23.64
 22.47     579.00      24.06
 22.57     552.49      23.51
 22.67     506.69      22.51
 22.77     535.00      23.13
 22.87     530.00      23.02
 22.97     585.94      24.21
 23.07     548.13      23.41
 23.17     558.00      23.62
 23.27     562.00      23.71
 23.37     509.00      22.56
 23.47     508.22      22.54
 23.57     535.00      23.13
 23.67     518.00      22.76
 23.77     531.00      23.04
 23.87     504.00      22.45
 23.97     532.00      23.07
 24.07     593.30      24.36
 24.17     556.00      23.58
 24.27     543.89      23.32
 24.37     597.00      24.43
 24.47     616.00      24.82
 24.57     577.00      24.02
 24.67     603.00      24.56
 24.77     599.00      24.47
 24.87     627.46      25.05
 24.97     589.00      24.27
 25.07     594.89      24.39
 25.17     585.22      24.19
 25.27     574.77      23.97
 25.37     552.00      23.49
 25.47     550.00      23.45
 25.57     588.00      24.25
 25.67     520.88      22.82
 25.77     543.66      23.32
 25.87     605.00      24.60
 25.97     584.00      24.17
 26.07     590.00      24.29
 26.17     554.71      23.55
 26.27     533.00      23.09
 26.37     519.00      22.78
 26.47     552.00      23.49
 26.57     578.00      24.04
 26.67     546.17      23.37
 26.77     535.00      23.13
 26.87     536.00      23.15
 26.97     525.00      22.91
 27.07     570.00      23.87
 27.17     551.00      23.47
 27.27     609.00      24.68
 27.37     558.00      23.62
 27.47     598.00      24.45
 27.57     525.51      22.92
 27.67     575.00      23.98
 27.77     541.96      23.28
 27.87     624.00      24.98
 27.97     662.19      25.73
 28.07     805.35      28.38
 28.17     922.00      30.36
 28.27     998.84      31.60
 28.37     940.22      30.66
 28.47     845.27      29.07
 28.57     702.00      26.50
 28.67     695.00      26.36
 28.77     706.32      26.58
 28.87     760.00      27.57
 28.97     821.68      28.66
 29.07     763.06      27.62
 29.17     702.00      26.50
 29.27     695.00      26.36
 29.37     597.00      24.43
 29.47     581.00      24.10
 29.57     554.00      23.54
 29.67     599.13      24.48
 29.77     587.00      24.23
 29.87     588.00      24.25
 29.97     534.53      23.12
 30.07     570.09      23.88
 30.17     585.88      24.20
 30.27     602.00      24.54
 30.37     580.19      24.09
 30.47     565.29      23.78
 30.57     519.00      22.78
 30.67     556.00      23.58
 30.77     603.00      24.56
 30.87     613.30      24.76
 30.97     589.00      24.27
 31.07     619.00      24.88
 31.17     654.00      25.57
 31.27     564.00      23.75
 31.37     514.88      22.69
 31.47     517.00      22.74
 31.57     492.80      22.20
 31.67     542.15      23.28
 31.77     490.47      22.15
 31.87     488.62      22.10
 31.97     555.00      23.56
 32.07     482.83      21.97
 32.17     511.11      22.61
 32.27     502.83      22.42
 32.37     549.38      23.44
 32.47     550.00      23.45
 32.57     537.00      23.17
 32.67     562.00      23.71
 32.77     553.00      23.52
 32.87     555.00      23.56
 32.97     537.00      23.17
 33.07     556.00      23.58
 33.17     547.00      23.39
 33.27     543.26      23.31
 33.37     572.60      23.93
 33.47     533.86      23.11
 33.57     594.26      24.38
 33.67     631.00      25.12
 33.77     770.00      27.75
 33.87     874.34      29.57
 33.97     948.30      30.79
 34.07    1035.51      32.18
 34.17    1057.17      32.51
 34.27     874.00      29.56
 34.37     738.14      27.17
 34.47     669.00      25.87
 34.57     594.00      24.37
 34.67     545.36      23.35
 34.77     551.00      23.47
 34.87     513.32      22.66
 34.97     529.99      23.02
 35.07     499.00      22.34
 35.17     493.00      22.20
 35.27     494.00      22.23
 35.37     522.00      22.85
 35.47     534.00      23.11
 35.57     543.00      23.30
 35.67     553.00      23.52
 35.77     532.00      23.07
 35.87     482.45      21.96
 35.97     507.00      22.52
 36.07     548.00      23.41
 36.17     479.00      21.89
 36.27     519.00      22.78
 36.37     489.82      22.13
 36.47     474.70      21.79
 36.57     514.00      22.67
 36.67     540.41      23.25
 36.77     466.00      21.59
 36.87     519.32      22.79
 36.97     544.42      23.33
 37.07     548.62      23.42
 37.17     522.00      22.85
 37.27     491.00      22.16
 37.37     543.00      23.30
 37.47     530.00      23.02
 37.57     484.58      22.01
 37.67     559.00      23.64
 37.77     504.10      22.45
 37.87     531.23      23.05
 37.97     540.00      23.24
 38.07     540.77      23.25
 38.17     501.00      22.38
 38.27     510.00      22.58
 38.37     484.00      22.00
 38.47     503.13      22.43
 38.57     528.00      22.98
 38.67     506.27      22.50
 38.77     509.80      22.58
 38.87     510.00      22.58
 38.97     493.00      22.20
 39.07     525.00      22.91
 39.17     504.00      22.45
 39.27     537.96      23.19
 39.37     514.00      22.67
 39.47     506.00      22.49
 39.57     505.00      22.47
 39.67     495.00      22.25
 39.77     463.00      21.52
 39.87     532.13      23.07
 39.97     506.00      22.49
 40.07     506.75      22.51
 40.17     481.00      21.93
 40.27     525.00      22.91
 40.37     472.00      21.73
 40.47     516.11      22.72
 40.57     476.02      21.82
 40.67     476.00      21.82
 40.77     486.00      22.05
 40.87     519.59      22.79
 40.97     516.00      22.72
 41.07     490.00      22.14
 41.17     536.92      23.17
 41.27     491.00      22.16
 41.37     473.75      21.77
 41.47     519.00      22.78
 41.57     546.11      23.37
 41.67     500.31      22.37
 41.77     498.00      22.32
 41.87     512.00      22.63
 41.97     498.00      22.32
 42.07     500.10      22.36
 42.17     519.00      22.78
 42.27     503.82      22.45
 42.37     514.04      22.67
 42.47     555.00      23.56
 42.57     588.00      24.25
 42.67     588.00      24.25
 42.77     587.27      24.23
 42.87     548.00      23.41
 42.97     507.00      22.52
 43.07     539.88      23.24
 43.17     501.60      22.40
 43.27     531.79      23.06
 43.37     548.24      23.41
 43.47     515.00      22.69
 43.57     497.00      22.29
 43.67     502.00      22.41
 43.77     523.00      22.87
 43.87     508.00      22.54
 43.97     523.00      22.87
 44.07     472.00      21.73
 44.17     501.00      22.38
 44.27     476.17      21.82
 44.37     543.95      23.32
 44.47     468.29      21.64
 44.57     519.00      22.78
 44.67     531.00      23.04
 44.77     532.00      23.07
 44.87     535.18      23.13
 44.97     528.49      22.99
 45.07     538.00      23.19
 45.17     525.00      22.91
 45.27     460.91      21.47
 45.37     491.47      22.17
 45.47     511.00      22.61
 45.57     532.84      23.08
 45.67     496.00      22.27
 45.77     557.00      23.60
 45.87     463.17      21.52
 45.97     518.94      22.78
 46.07     481.00      21.93
 46.17     492.00      22.18
 46.27     463.00      21.52
 46.37     519.00      22.78
 46.47     463.22      21.52
 46.57     500.52      22.37
 46.67     472.00      21.73
 46.77     510.66      22.60
 46.87     514.00      22.67
 46.97     509.29      22.57
 47.07     526.50      22.95
 47.17     558.57      23.63
 47.27     506.00      22.49
 47.37     495.89      22.27
 47.47     544.00      23.32
 47.57     549.54      23.44
 47.67     610.95      24.72
 47.77     628.00      25.06
 47.87     618.00      24.86
 47.97     544.66      23.34
 48.07     598.00      24.45
 48.17     586.00      24.21
 48.27     555.00      23.56
 48.37     559.25      23.65
 48.47     536.91      23.17
 48.57     527.89      22.98
 48.67     527.00      22.96
 48.77     528.54      22.99
 48.87     530.00      23.02
 48.97     502.00      22.41
 49.07     579.00      24.06
 49.17     574.00      23.96
 49.27     601.00      24.52
 49.37     716.00      26.76
 49.47     711.00      26.66
 49.57     849.00      29.14
 49.67     889.90      29.83
 49.77    1177.00      34.31
 49.87    1478.00      38.44
 49.97    1823.00      42.70
 50.07    2290.21      47.86
 50.17    2542.00      50.42
 50.27    2559.00      50.59
 50.37    2300.00      47.96
 50.47    1908.66      43.69
 50.57    1322.00      36.36
 50.67    1085.55      32.95
 50.77     776.00      27.86
 50.87     692.42      26.31
 50.97     717.57      26.79
 51.07     682.00      26.12
 51.17     648.00      25.46
 51.27     582.29      24.13
 51.37     609.62      24.69
 51.47     541.20      23.26
 51.57     600.80      24.51
 51.67     577.00      24.02
 51.77     564.00      23.75
 51.87     509.33      22.57
 51.97     560.44      23.67
 52.07     526.00      22.93
 52.17     536.00      23.15
 52.27     502.00      22.41
 52.37     600.00      24.49
 52.47     587.00      24.23
 52.57     561.94      23.71
 52.67     587.00      24.23
 52.77     598.00      24.45
 52.87     647.00      25.44
 52.97     737.00      27.15
 53.07     784.03      28.00
 53.17     891.00      29.85
 53.27    1027.70      32.06
 53.37    1100.00      33.17
 53.47    1188.00      34.47
 53.57    1231.74      35.10
 53.67    1113.00      33.36
 53.77    1000.00      31.62
 53.87     884.10      29.73
 53.97     778.89      27.91
 54.07     629.00      25.08
 54.17     636.32      25.23
 54.27     614.50      24.79
 54.37     568.00      23.83
 54.47     617.00      24.84
 54.57     539.00      23.22
 54.67     585.69      24.20
 54.77     553.00      23.52
 54.87     526.00      22.93
 54.97     518.44      22.77
 55.07     541.00      23.26
 55.17     565.00      23.77
 55.27     565.00      23.77
 55.37     575.00      23.98
 55.47     530.00      23.02
 55.57     577.16      24.02
 55.67     598.00      24.45
 55.77     584.56      24.18
 55.87     588.00      24.25
 55.97     651.00      25.51
 56.07     663.00      25.75
 56.17     752.34      27.43
 56.27     829.00      28.79
 56.37    1190.10      34.50
 56.47    1373.07      37.05
 56.57    1799.25      42.42
 56.67    2039.00      45.16
 56.77    2519.00      50.19
 56.87    2604.74      51.04
 56.97    2621.00      51.20
 57.07    2428.56      49.28
 57.17    2075.36      45.56
 57.27    1612.00      40.15
 57.37    1298.70      36.04
 57.47    1084.00      32.92
 57.57     818.00      28.60
 57.67     796.17      28.22
 57.77     662.35      25.74
 57.87     724.00      26.91
 57.97     676.00      26.00
 58.07     673.00      25.94
 58.17     749.50      27.38
 58.27     762.10      27.61
 58.37     876.00      29.60
 58.47     975.00      31.22
 58.57    1138.00      33.73
 58.67    1260.12      35.50
 58.77    1391.00      37.30
 58.87    1556.00      39.45
 58.97    1529.30      39.11
 59.07    1649.00      40.61
 59.17    1568.00      39.60
 59.27    1455.00      38.14
 59.37    1428.00      37.79
 59.47    1220.52      34.94
 59.57    1166.00      34.15
 59.67    1162.53      34.10
 59.77    1146.00      33.85
 59.87    1241.00      35.23
 59.97    1297.00      36.01
 60.07    1498.00      38.70
 60.17    1567.00      39.59
 60.27    1605.00      40.06
 60.37    1514.82      38.92
 60.47    1361.99      36.91
 60.57    1295.00      35.99
 60.67    1094.00      33.08
 60.77     886.00      29.77
 60.87     818.12      28.60
 60.97     663.00      25.75
 61.07     702.13      26.50
 61.17     581.26      24.11
 61.27     635.56      25.21
 61.37     657.00      25.63
 61.47     671.00      25.90
 61.57     752.00      27.42
 61.67     894.00      29.90
 61.77     970.00      31.14
 61.87    1054.00      32.47
 61.97    1235.25      35.15
 62.07    1407.57      37.52
 62.17    1343.00      36.65
 62.27    1397.02      37.38
 62.37    1334.00      36.52
 62.47    1186.00      34.44
 62.57    1017.00      31.89
 62.67     879.00      29.65
 62.77     744.00      27.28
 62.87     731.61      27.05
 62.97     607.00      24.64
 63.07     625.00      25.00
 63.17     626.00      25.02
 63.27     585.00      24.19
 63.37     598.23      24.46
 63.47     565.00      23.77
 63.57     618.00      24.86
 63.67     559.00      23.64
 63.77     602.00      24.54
 63.87     604.00      24.58
 63.97     623.00      24.96
 64.07     689.00      26.25
 64.17     792.00      28.14
 64.27     780.73      27.94
 64.37     854.50      29.23
 64.47     929.84      30.49
 64.57    1052.79      32.45
 64.67     994.00      31.53
 64.77     994.00      31.53
 64.87     971.59      31.17
 64.97     945.16      30.74
 65.07     888.00      29.80
 65.17     842.87      29.03
 65.27     691.04      26.29
 65.37     675.00      25.98
 65.47     641.00      25.32
 65.57     652.00      25.53
 65.67     588.00      24.25
 65.77     622.44      24.95
 65.87     555.00      23.56
 65.97     547.00      23.39
 66.07     552.39      23.50
 66.17     563.00      23.73
 66.27     558.00      23.62
 66.37     540.00      23.24
 66.47     524.00      22.89
 66.57     521.97      22.85
 66.67     593.00      24.35
 66.77     564.70      23.76
 66.87     614.63      24.79
 66.97     606.62      24.63
 67.07     623.00      24.96
 67.17     671.00      25.90
 67.27     750.00      27.39
 67.37     848.00      29.12
 67.47    1021.00      31.95
 67.57    1273.23      35.68
 67.67    1595.43      39.94
 67.77    1807.62      42.52
 67.87    2082.00      45.63
 67.97    2276.00      47.71
 68.07    2345.00      48.43
 68.17    2378.00      48.76
 68.27    2361.29      48.59
 68.37    2103.00      45.86
 68.47    1709.89      41.35
 68.57    1550.00      39.37
 68.67    1257.00      35.45
 68.77     999.00      31.61
 68.87     921.00      30.35
 68.97     741.00      27.22
 69.07     720.00      26.83
 69.17     673.00      25.94
 69.27     611.00      24.72
 69.37     600.73      24.51
 69.47     604.00      24.58
 69.57     602.00      24.54
 69.67     588.00      24.25
 69.77     598.00      24.45
 69.87     607.00      24.64
 69.97     581.00      24.10
 70.07     587.79      24.24
 70.17     532.52      23.08
 70.27     608.00      24.66
 70.37     560.97      23.68
 70.47     574.00      23.96
 70.57     536.25      23.16
 70.67     567.00      23.81
 70.77     567.00      23.81
 70.87     542.00      23.28
 70.97     615.70      24.81
 71.07     631.26      25.12
 71.17     732.00      27.06
 71.27     746.00      27.31
 71.37     879.00      29.65
 71.47    1091.00      33.03
 71.57    1223.00      34.97
 71.67    1397.00      37.38
 71.77    1616.00      40.20
 71.87    1823.00      42.70
 71.97    1920.79      43.83
 72.07    1923.00      43.85
 72.17    1864.23      43.18
 72.27    1808.52      42.53
 72.37    1699.00      41.22
 72.47    1519.04      38.97
 72.57    1328.16      36.44
 72.67    1236.00      35.16
 72.77    1087.00      32.97
 72.87     908.00      30.13
 72.97     991.22      31.48
 73.07     835.00      28.90
 73.17     811.51      28.49
 73.27     659.00      25.67
 73.37     636.00      25.22
 73.47     707.51      26.60
 73.57     632.36      25.15
 73.67     606.00      24.62
 73.77     583.00      24.15
 73.87     625.00      25.00
 73.97     588.00      24.25
 74.07     648.00      25.46
 74.17     622.89      24.96
 74.27     584.00      24.17
 74.37     636.00      25.22
 74.47     627.00      25.04
 74.57     603.00      24.56
 74.67     661.00      25.71
 74.77     597.56      24.45
 74.87     623.00      24.96
 74.97     605.54      24.61
 75.07     593.00      24.35
 75.17     607.00      24.64
 75.27     513.26      22.66
 75.37     546.00      23.37
 75.47     522.68      22.86
 75.57     570.00      23.87
 75.67     565.00      23.77
 75.77     570.00      23.87
 75.87     605.00      24.60
 75.97     638.00      25.26
 76.07     599.00      24.47
 76.17     601.00      24.52
 76.27     681.00      26.10
 76.37     689.00      26.25
 76.47     702.00      26.50
 76.57     692.00      26.31
 76.67     720.00      26.83
 76.77     664.00      25.77
 76.87     671.00      25.90
 76.97     635.00      25.20
 77.07     625.00      25.00
 77.17     563.00      23.73
 77.27     539.00      23.22
 77.37     559.10      23.65
 77.47     533.00      23.09
 77.57     568.77      23.85
 77.67     516.84      22.73
 77.77     540.00      23.24
 77.87     533.47      23.10
 77.97     526.48      22.95
 78.07     530.43      23.03
 78.17     518.00      22.76
 78.27     545.00      23.35
 78.37     553.01      23.52
 78.47     527.00      22.96
 78.57     570.00      23.87
 78.67     559.00      23.64
 78.77     530.00      23.02
 78.87     546.33      23.37
 78.97     559.64      23.66
 79.07     571.00      23.90
 79.17     505.49      22.48
 79.27     530.44      23.03
 79.37     504.00      22.45
 79.47     575.72      23.99
 79.57     525.00      22.91
 79.67     513.00      22.65
 79.77     570.00      23.87
 79.87     558.85      23.64
 79.97     533.00      23.09
 80.07     544.00      23.32
 80.17     603.89      24.57
 80.27     570.00      23.87
 80.37     565.00      23.77
 80.47     630.00      25.10
 80.57     590.24      24.29
 80.67     647.00      25.44
 80.77     645.00      25.40
 80.87     663.00      25.75
 80.97     682.94      26.13
 81.07     714.00      26.72
 81.17     719.00      26.81
 81.27     791.55      28.13
 81.37     723.00      26.89
 81.47     780.00      27.93
 81.57     740.05      27.20
 81.67     739.00      27.18
 81.77     760.00      27.57
 81.87     720.00      26.83
 81.97     710.00      26.65
 82.07     696.00      26.38
 82.17     716.00      26.76
 82.27     672.71      25.94
 82.37     632.00      25.14
 82.47     628.00      25.06
 82.57     603.00      24.56
 82.67     558.01      23.62
 82.77     593.79      24.37
 82.87     525.00      22.91
 82.97     561.43      23.69
 83.07     534.00      23.11
 83.17     521.00      22.83
 83.27     548.00      23.41
 83.37     541.20      23.26
 83.47     534.00      23.11
 83.57     529.00      23.00
 83.67     586.07      24.21
 83.77     563.66      23.74
 83.87     569.75      23.87
 83.97     523.00      22.87
 84.07     553.00      23.52
 84.17     560.00      23.66
 84.27     608.00      24.66
 84.37     577.00      24.02
 84.47     518.00      22.76
 84.57     578.05      24.04
 84.67     546.00      23.37
 84.77     581.93      24.12
 84.87     563.00      23.73
 84.97     523.00      22.87
 85.07     562.86      23.72
 85.17     551.08      23.48
 85.27     501.00      22.38
 85.37     535.00      23.13
 85.47     522.00      22.85
 85.57     527.00      22.96
 85.67     534.00      23.11
 85.77     504.00      22.45
 85.87     570.01      23.87
 85.97     540.00      23.24
 86.07     512.00      22.63
 86.17     505.58      22.49
 86.27     551.00      23.47
 86.37     550.00      23.45
 86.47     559.00      23.64
 86.57     555.00      23.56
 86.67     587.00      24.23
 86.77     597.00      24.43
 86.87     597.03      24.43
 86.97     633.05      25.16
 87.07     618.08      24.86
 87.17     589.03      24.27
 87.27     662.00      25.73
 87.37     663.00      25.75
 87.47     670.00      25.88
 87.57     610.00      24.70
 87.67     645.00      25.40
 87.77     675.00      25.98
 87.87     606.00      24.62
 87.97     595.00      24.39
 88.07     548.36      23.42
 88.17     572.95      23.94
 88.27     581.00      24.10
 88.37     612.00      24.74
 88.47     579.00      24.06
 88.57     546.00      23.37
 88.67     564.00      23.75
 88.77     601.19      24.52
 88.87     583.00      24.15
 88.97     609.15      24.68
 89.07     636.00      25.22
 89.17     575.44      23.99
 89.27     558.00      23.62
 89.37     626.42      25.03
 89.47     634.00      25.18
 89.57     585.52      24.20
 89.67     571.91      23.91
 89.77     606.14      24.62
 89.87     615.38      24.81
 89.97     570.00      23.87
 90.07     521.51      22.84
 90.17     551.29      23.48
 90.27     589.10      24.27
 90.37     552.00      23.49
 90.47     534.00      23.11
 90.57     539.00      23.22
 90.67     527.00      22.96
 90.77     556.72      23.59
 90.87     519.00      22.78
 90.97     523.00      22.87
 91.07     549.18      23.43
 91.17     525.00      22.91
 91.27     537.64      23.19
 91.37     529.00      23.00
 91.47     524.00      22.89
 91.57     518.24      22.76
 91.67     530.00      23.02
 91.77     587.17      24.23
 91.87     525.00      22.91
 91.97     538.00      23.19
 92.07     577.00      24.02
 92.17     595.00      24.39
 92.27     567.09      23.81
 92.37     612.00      24.74
 92.47     599.00      24.47
 92.57     642.00      25.34
 92.67     623.00      24.96
 92.77     686.00      26.19
 92.87     734.00      27.09
 92.97     696.00      26.38
 93.07     729.00      27.00
 93.17     809.00      28.44
 93.27     768.36      27.72
 93.37     757.92      27.53
 93.47     836.60      28.92
 93.57     862.06      29.36
 93.67     806.00      28.39
 93.77     869.00      29.48
 93.87     799.55      28.28
 93.97     866.02      29.43
 94.07     849.00      29.14
 94.17     869.50      29.49
 94.27     853.00      29.21
 94.37     850.00      29.15
 94.47     865.00      29.41
 94.57     883.13      29.72
 94.67     907.23      30.12
 94.77     834.58      28.89
 94.87     935.83      30.59
 94.97     920.00      30.33
 95.07     863.00      29.38
 95.17     794.89      28.19
 95.27     796.00      28.21
 95.37     814.00      28.53
 95.47     791.42      28.13
 95.57     813.00      28.51
 95.67     728.00      26.98
 95.77     658.63      25.66
 95.87     666.22      25.81
 95.97     704.00      26.53
 96.07     657.77      25.65
 96.17     709.00      26.63
 96.27     720.00      26.83
 96.37     722.00      26.87
 96.47     802.00      28.32
 96.57     838.29      28.95
 96.67     892.03      29.87
 96.77     940.76      30.67
 96.87    1053.00      32.45
 96.97    1093.42      33.07
 97.07    1180.11      34.35
 97.17    1306.00      36.14
 97.27    1272.00      35.67
 97.37    1407.44      37.52
 97.47    1369.02      37.00
 97.57    1456.00      38.16
 97.67    1468.00      38.31
 97.77    1397.72      37.39
 97.87    1344.00      36.66
 97.97    1239.00      35.20
 98.07    1232.35      35.10
 98.17    1147.00      33.87
 98.27    1035.72      32.18
 98.37     979.00      31.29
 98.47     906.28      30.10
 98.57     874.00      29.56
 98.67     877.67      29.63
 98.77     797.00      28.23
 98.87     799.00      28.27
 98.97     778.30      27.90
 99.07     822.00      28.67
 99.17     823.00      28.69
 99.27     922.00      30.36
 99.37     884.72      29.74
 99.47     966.00      31.08
 99.57    1055.14      32.48
 99.67    1170.00      34.21
 99.77    1251.00      35.37
 99.87    1349.35      36.73
 99.97    1567.00      39.59
100.07    1610.00      40.12
100.17    1801.00      42.44
100.27    1813.94      42.59
100.37    2108.00      45.91
100.47    1935.62      44.00
100.57    2131.17      46.16
100.67    2089.00      45.71
100.77    2105.03      45.88
100.87    2005.59      44.78
100.97    2129.00      46.14
101.07    2015.51      44.89
101.17    1919.00      43.81
101.27    1826.00      42.73
101.37    1652.00      40.64
101.47    1564.29      39.55
101.57    1465.68      38.28
101.67    1515.00      38.92
101.77    1410.52      37.56
101.87    1319.00      36.32
101.97    1230.00      35.07
102.07    1152.00      33.94
102.17    1144.00      33.82
102.27    1126.00      33.56
102.37    1128.00      33.59
102.47    1032.96      32.14
102.57    1010.00      31.78
102.67     998.17      31.59
102.77    1070.00      32.71
102.87     996.00      31.56
102.97     953.24      30.87
103.07     928.54      30.47
103.17     912.16      30.20
103.27     867.00      29.44
103.37     815.72      28.56
103.47     810.00      28.46
103.57     696.39      26.39
103.67     725.00      26.93
103.77     700.00      26.46
103.87     657.19      25.64
103.97     582.00      24.12
104.07     554.72      23.55
104.17     568.66      23.85
104.27     559.00      23.64
104.37     606.42      24.63
104.47     547.00      23.39
104.57     571.00      23.90
104.67     572.00      23.92
104.77     588.00      24.25
104.87     510.29      22.59
104.97     551.00      23.47
105.07     530.00      23.02
105.17     549.00      23.43
105.27     513.28      22.66
105.37     544.00      23.32
105.47     552.00      23.49
105.57     532.00      23.07
105.67     565.00      23.77
105.77     581.88      24.12
105.87     601.00      24.52
105.97     522.30      22.85
106.07     596.00      24.41
106.17     599.00      24.47
106.27     573.00      23.94
106.37     557.35      23.61
106.47     587.00      24.23
106.57     622.14      24.94
106.67     650.00      25.50
106.77     585.00      24.19
106.87     630.00      25.10
106.97     656.00      25.61
107.07     649.45      25.48
107.17     677.34      26.03
107.27     678.00      26.04
107.37     674.00      25.96
107.47     623.00      24.96
107.57     657.46      25.64
107.67     674.00      25.96
107.77     659.00      25.67
107.87     659.53      25.68
107.97     713.97      26.72
108.07     641.83      25.33
108.17     743.01      27.26
108.27     677.00      26.02
108.37     666.28      25.81
108.47     654.00      25.57
108.57     650.02      25.50
108.67     615.00      24.80
108.77     671.00      25.90
108.87     676.00      26.00
108.97     694.32      26.35
109.07     728.00      26.98
109.17     648.00      25.46
109.27     689.90      26.27
109.37     713.00      26.70
109.47     640.00      25.30
109.57     596.00      24.41
109.67     650.53      25.51
109.77     626.74      25.03
109.87     588.00      24.25
109.97     613.00      24.76
110.07     645.00      25.40
110.17     608.92      24.68
110.27     532.44      23.07
110.37     611.00      24.72
110.47     543.00      23.30
110.57     580.00      24.08
110.67     514.21      22.68
110.77     579.44      24.07
110.87     541.14      23.26
110.97     547.00      23.39
111.07     584.00      24.17
111.17     524.48      22.90
111.27     576.00      24.00
111.37     518.80      22.78
111.47     509.99      22.58
111.57     579.00      24.06
111.67     527.86      22.98
111.77     572.00      23.92
111.87     583.00      24.15
111.97     591.00      24.31
112.07     612.00      24.74
112.17     595.23      24.40
112.27     581.49      24.11
112.37     602.00      24.54
112.47     616.70      24.83
112.57     605.00      24.60
112.67     675.35      25.99
112.77     645.00      25.40
112.87     699.04      26.44
112.97     709.48      26.64
113.07     679.99      26.08
113.17     758.64      27.54
113.27     741.52      27.23
113.37     831.00      28.83
113.47     806.00      28.39
113.57     803.99      28.35
113.67     900.00      30.00
113.77     887.00      29.78
113.87     970.00      31.14
113.97    1027.00      32.05
114.07    1055.00      32.48
114.17    1061.00      32.57
114.27    1264.00      35.55
114.37    1370.00      37.01
114.47    1366.00      36.96
114.57    1439.00      37.93
114.67    1626.00      40.32
114.77    1675.55      40.93
114.87    1955.00      44.22
114.97    2117.56      46.02
115.07    2391.00      48.90
115.17    2499.00      49.99
115.27    2920.00      54.04
115.37    3095.00      55.63
115.47    3328.00      57.69
115.57    3741.51      61.17
115.67    4108.00      64.09
115.77    4375.00      66.14
115.87    4640.00      68.12
115.97    5287.00      72.71
116.07    5345.00      73.11
116.17    6033.00      77.67
116.27    6398.70      79.99
116.37    6690.65      81.80
116.47    6934.62      83.27
116.57    6940.50      83.31
116.67    7051.00      83.97
116.77    7014.00      83.75
116.87    6696.00      81.83
116.97    6935.00      83.28
117.07    6517.48      80.73
117.17    6173.00      78.57
117.27    5658.04      75.22
117.37    5359.00      73.21
117.47    4970.00      70.50
117.57    4691.46      68.49
117.67    4310.00      65.65
117.77    3983.14      63.11
117.87    3561.01      59.67
117.97    3168.63      56.29
118.07    2914.00      53.98
118.17    2611.00      51.10
118.27    2238.00      47.31
118.37    1894.72      43.53
118.47    1785.00      42.25
118.57    1537.00      39.20
118.67    1370.00      37.01
118.77    1207.57      34.75
118.87    1107.00      33.27
118.97    1086.20      32.96
119.07     977.00      31.26
119.17     865.00      29.41
119.27     795.11      28.20
119.37     755.00      27.48
119.47     754.58      27.47
119.57     671.00      25.90
119.67     670.00      25.88
119.77     626.00      25.02
119.87     634.00      25.18
119.97     614.00      24.78
120.07     576.89      24.02
120.17     573.00      23.94
120.27     586.00      24.21
120.37     538.00      23.19
120.47     553.89      23.53
120.57     590.00      24.29
120.67     588.48      24.26
120.77     567.23      23.82
120.87     571.00      23.90
120.97     593.25      24.36
121.07     552.00      23.49
121.17     568.00      23.83
121.27     546.63      23.38
121.37     585.00      24.19
121.47     591.38      24.32
121.57     603.00      24.56
121.67     576.00      24.00
121.77     563.71      23.74
121.87     601.00      24.52
121.97     595.00      24.39
122.07     619.00      24.88
122.17     591.50      24.32
122.27     616.00      24.82
122.37     685.00      26.17
122.47     603.00      24.56
122.57     670.00      25.88
122.67     686.00      26.19
122.77     670.00      25.88
122.87     671.40      25.91
122.97     646.00      25.42
123.07     657.00      25.63
123.17     634.00      25.18
123.27     638.00      25.26
123.37     629.00      25.08
123.47     633.41      25.17
123.57     676.00      26.00
123.67     666.00      25.81
123.77     638.10      25.26
123.87     664.61      25.78
123.97     582.00      24.12
124.07     661.61      25.72
124.17     610.00      24.70
124.27     600.65      24.51
124.37     573.35      23.94
124.47     611.00      24.72
124.57     596.00      24.41
124.67     593.00      24.35
124.77     599.00      24.47
124.87     579.00      24.06
124.97     606.00      24.62
