  9.97     685.46      26.18
 10.07     719.00      26.81
 10.17     753.00      27.44
 10.27     659.28      25.68
 10.37     727.00      26.96
 10.47     740.00      27.20
 10.57     709.00      26.63
 10.67     730.00      27.02
 10.77     689.00      26.25
 10.87     749.00      27.37
 10.97     694.00      26.34
 11.07     675.00      25.98
 11.17     672.23      25.93
 11.27     745.48      27.30
 11.37     744.00      27.28
 11.47     732.00      27.06
 11.57     725.00      26.93
 11.67     729.00      27.00
 11.77     755.46      27.49
 11.87     735.00      27.11
 11.97     730.77      27.03
 12.07     808.22      28.43
 12.17     851.00      29.17
 12.27     823.00      28.69
 12.37     876.00      29.60
 12.47     767.00      27.69
 12.57     748.00      27.35
 12.67     722.00      26.87
 12.77     680.00      26.08
 12.87     710.00      26.65
 12.97     677.00      26.02
 13.07     631.00      25.12
 13.17     662.00      25.73
 13.27     599.00      24.47
 13.37     684.00      26.15
 13.47     662.00      25.73
 13.57     643.00      25.36
 13.67     645.00      25.40
 13.77     647.00      25.44
 13.87     655.59      25.60
 13.97     642.00      25.34
 14.07     731.00      27.04
 14.17     634.36      25.19
 14.27     656.40      25.62
 14.37     643.00      25.36
 14.47     663.00      25.75
 14.57     626.00      25.02
 14.67     625.26      25.01
 14.77     641.00      25.32
 14.87     655.00      25.59
 14.97     706.85      26.59
 15.07     682.00      26.12
 15.17     644.00      25.38
 15.27     681.46      26.10
 15.37     645.56      25.41
 15.47     611.00      24.72
 15.57     621.00      24.92
 15.67     668.79      25.86
 15.77     642.00      25.34
 15.87     674.00      25.96
 15.97     601.42      24.52
 16.07     662.00      25.73
 16.17     628.04      25.06
 16.27     676.00      26.00
 16.37     674.00      25.96
 16.47     630.00      25.10
 16.57     683.66      26.15
 16.67     633.31      25.17
 16.77     668.00      25.85
 16.87     606.00      24.62
 16.97     640.22      25.30
 17.07     638.00      25.26
 17.17     591.76      24.33
 17.27     667.04      25.83
 17.37     608.00      24.66
 17.47     650.00      25.50
 17.57     672.03      25.92
 17.67     677.78      26.03
 17.77     617.00      24.84
 17.87     605.59      24.61
 17.97     644.31      25.38
 18.07     630.00      25.10
 18.17     675.00      25.98
 18.27     607.00      24.64
 18.37     672.00      25.92
 18.47     607.00      24.64
 18.57     585.00      24.19
 18.67     586.58      24.22
 18.77     656.11      25.61
 18.87     606.00      24.62
 18.97     638.00      25.26
 19.07     686.70      26.20
 19.17     656.00      25.61
 19.27     658.00      25.65
 19.37     641.00      25.32
 19.47     645.04      25.40
 19.57     613.00      24.76
 19.67     628.86      25.08
 19.77     586.90      24.23
 19.87     597.56      24.45
 19.97     610.00      24.70
 20.07     596.00      24.41
 20.17     615.83      24.82
 20.27     575.47      23.99
 20.37     662.00      25.73
 20.47     619.00      24.88
 20.57     600.00      24.49
 20.67     601.89      24.53
 20.77     575.00      23.98
 20.87     622.00      24.94
 20.97     644.31      25.38
 21.07     642.59      25.35
 21.17     608.00      24.66
 21.27     618.00      24.86
 21.37     573.75      23.95
 21.47     651.59      25.53
 21.57     600.22      24.50
 21.67     669.60      25.88
 21.77     592.95      24.35
 21.87     604.00      24.58
 21.97     639.00      25.28
 22.07     638.63      25.27
 22.17     629.61      25.09
 22.27     554.00      23.54
 22.37     618.00      24.86
 22.47     599.35      24.48
 22.57     575.58      23.99
 22.67     623.00      24.96
 22.77     618.00      24.86
 22.87     598.12      24.46
 22.97     570.55      23.89
 23.07     567.64      23.83
 23.17     624.00      24.98
 23.27     577.00      24.02
 23.37     619.56      24.89
 23.47     624.00      24.98
 23.57     626.00      25.02
 23.67     615.00      24.80
 23.77     627.00      25.04
 23.87     617.00      24.84
 23.97     600.18      24.50
 24.07     616.00      24.82
 24.17     649.00      25.48
 24.27     625.00      25.00
 24.37     577.32      24.03
 24.47     637.00      25.24
 24.57     651.00      25.51
 24.67     640.32      25.30
 24.77     711.00      26.66
 24.87     667.81      25.84
 24.97     669.00      25.87
 25.07     708.00      26.61
 25.17     642.51      25.35
 25.27     690.00      26.27
 25.37     652.13      25.54
 25.47     682.88      26.13
 25.57     650.00      25.50
 25.67     642.00      25.34
 25.77     588.58      24.26
 25.87     605.54      24.61
 25.97     670.00      25.88
 26.07     626.00      25.02
 26.17     589.52      24.28
 26.27     656.00      25.61
 26.37     685.71      26.19
 26.47     616.00      24.82
 26.57     644.00      25.38
 26.67     617.00      24.84
 26.77     659.00      25.67
 26.87     627.00      25.04
 26.97     685.00      26.17
 27.07     642.84      25.35
 27.17     698.19      26.42
 27.27     716.13      26.76
 27.37     660.19      25.69
 27.47     729.00      27.00
 27.57     716.00      26.76
 27.67     774.81      27.84
 27.77     881.05      29.68
 27.87    1046.15      32.34
 27.97    1271.78      35.66
 28.07    1952.00      44.18
 28.17    3311.51      57.55
 28.27    4799.84      69.28
 28.37    6312.00      79.45
 28.47    6972.85      83.50
 28.57    6123.00      78.25
 28.67    4822.00      69.44
 28.77    3287.00      57.33
 28.87    2995.00      54.73
 28.97    3301.00      57.45
 29.07    3843.03      61.99
 29.17    3977.00      63.06
 29.27    3457.00      58.80
 29.37    2593.00      50.92
 29.47    1865.00      43.19
 29.57    1331.00      36.48
 29.67    1051.66      32.43
 29.77     927.00      30.45
 29.87     814.00      28.53
 29.97     760.13      27.57
 30.07     734.00      27.09
 30.17     746.15      27.32
 30.27     632.45      25.15
 30.37     693.00      26.32
 30.47     616.46      24.83
 30.57     668.00      25.85
 30.67     665.00      25.79
 30.77     700.00      26.46
 30.87     739.45      27.19
 30.97     726.00      26.94
 31.07     738.00      27.17
 31.17     743.27      27.26
 31.27     710.32      26.65
 31.37     727.00      26.96
 31.47     672.89      25.94
 31.57     708.00      26.61
 31.67     671.79      25.92
 31.77     645.00      25.40
 31.87     639.83      25.29
 31.97     680.00      26.08
 32.07     631.00      25.12
 32.17     604.00      24.58
 32.27     620.00      24.90
 32.37     643.00      25.36
 32.47     652.00      25.53
 32.57     584.00      24.17
 32.67     637.00      25.24
 32.77     648.00      25.46
 32.87     671.00      25.90
 32.97     612.00      24.74
 33.07     626.49      25.03
 33.17     661.00      25.71
 33.27     595.00      24.39
 33.37     659.00      25.67
 33.47     629.00      25.08
 33.57     613.00      24.76
 33.67     642.00      25.34
 33.77     744.00      27.28
 33.87     720.00      26.83
 33.97     853.00      29.21
 34.07     991.78      31.49
 34.17    1141.38      33.78
 34.27    1196.00      34.58
 34.37    1251.54      35.38
 34.47    1166.10      34.15
 34.57     963.00      31.03
 34.67     839.40      28.97
 34.77     715.69      26.75
 34.87     679.83      26.07
 34.97     655.70      25.61
 35.07     672.91      25.94
 35.17     626.00      25.02
 35.27     627.35      25.05
 35.37     640.00      25.30
 35.47     555.25      23.56
 35.57     635.00      25.20
 35.67     609.00      24.68
 35.77     588.00      24.25
 35.87     619.00      24.88
 35.97     628.53      25.07
 36.07     596.00      24.41
 36.17     624.00      24.98
 36.27     623.00      24.96
 36.37     576.75      24.02
 36.47     577.32      24.03
 36.57     610.00      24.70
 36.67     568.45      23.84
 36.77     590.00      24.29
 36.87     545.70      23.36
 36.97     581.00      24.10
 37.07     550.03      23.45
 37.17     635.67      25.21
 37.27     586.00      24.21
 37.37     620.83      24.92
 37.47     561.11      23.69
 37.57     646.00      25.42
 37.67     583.06      24.15
 37.77     627.00      25.04
 37.87     641.82      25.33
 37.97     717.00      26.78
 38.07     634.41      25.19
 38.17     728.00      26.98
 38.27     682.00      26.12
 38.37     731.31      27.04
 38.47     739.75      27.20
 38.57     652.21      25.54
 38.67     658.00      25.65
 38.77     621.84      24.94
 38.87     609.00      24.68
 38.97     581.00      24.10
 39.07     599.00      24.47
 39.17     596.00      24.41
 39.27     568.00      23.83
 39.37     611.00      24.72
 39.47     626.53      25.03
 39.57     615.99      24.82
 39.67     517.00      22.74
 39.77     592.00      24.33
 39.87     569.00      23.85
 39.97     567.00      23.81
 40.07     533.94      23.11
 40.17     531.29      23.05
 40.27     544.43      23.33
 40.37     560.00      23.66
 40.47     606.84      24.63
 40.57     589.00      24.27
 40.67     622.00      24.94
 40.77     563.74      23.74
 40.87     554.00      23.54
 40.97     630.44      25.11
 41.07     551.50      23.48
 41.17     610.58      24.71
 41.27     580.00      24.08
 41.37     564.03      23.75
 41.47     575.00      23.98
 41.57     609.00      24.68
 41.67     577.00      24.02
 41.77     614.00      24.78
 41.87     607.64      24.65
 41.97     578.55      24.05
 42.07     606.00      24.62
 42.17     560.00      23.66
 42.27     541.00      23.26
 42.37     560.00      23.66
 42.47     635.00      25.20
 42.57     609.00      24.68
 42.67     638.66      25.27
 42.77     624.38      24.99
 42.87     620.00      24.90
 42.97     633.00      25.16
 43.07     749.93      27.38
 43.17     651.00      25.51
 43.27     663.00      25.75
 43.37     651.00      25.51
 43.47     592.50      24.34
 43.57     592.68      24.35
 43.67     607.00      24.64
 43.77     600.00      24.49
 43.87     621.00      24.92
 43.97     597.38      24.44
 44.07     566.00      23.79
 44.17     626.00      25.02
 44.27     591.00      24.31
 44.37     573.00      23.94
 44.47     553.94      23.54
 44.57     567.00      23.81
 44.67     616.00      24.82
 44.77     601.00      24.52
 44.87     612.22      24.74
 44.97     590.00      24.29
 45.07     594.56      24.38
 45.17     595.00      24.39
 45.27     602.18      24.54
 45.37     606.00      24.62
 45.47     556.93      23.60
 45.57     596.00      24.41
 45.67     605.00      24.60
 45.77     580.00      24.08
 45.87     623.61      24.97
 45.97     589.00      24.27
 46.07     563.00      23.73
 46.17     559.79      23.66
 46.27     535.00      23.13
 46.37     579.00      24.06
 46.47     556.00      23.58
 46.57     613.00      24.76
 46.67     613.93      24.78
 46.77     543.00      23.30
 46.87     603.10      24.56
 46.97     580.90      24.10
 47.07     587.00      24.23
 47.17     602.00      24.54
 47.27     631.24      25.12
 47.37     623.05      24.96
 47.47     590.00      24.29
 47.57     628.00      25.06
 47.67     621.00      24.92
 47.77     624.00      24.98
 47.87     638.06      25.26
 47.97     665.00      25.79
 48.07     619.00      24.88
 48.17     685.00      26.17
 48.27     693.00      26.32
 48.37     618.00      24.86
 48.47     680.00      26.08
 48.57     643.00      25.36
 48.67     620.00      24.90
 48.77     623.46      24.97
 48.87     612.00      24.74
 48.97     624.83      25.00
 49.07     636.00      25.22
 49.17     621.00      24.92
 49.27     621.00      24.92
 49.37     646.68      25.43
 49.47     609.00      24.68
 49.57     623.00      24.96
 49.67     656.00      25.61
 49.77     703.37      26.52
 49.87     777.00      27.87
 49.97    1077.87      32.83
 50.07    1311.26      36.21
 50.17    1662.00      40.77
 50.27    2074.81      45.55
 50.37    2570.00      50.70
 50.47    2852.00      53.40
 50.57    3090.04      55.59
 50.67    2856.83      53.45
 50.77    2441.00      49.41
 50.87    2018.00      44.92
 50.97    1640.00      40.50
 51.07    1249.84      35.35
 51.17    1005.00      31.70
 51.27     836.00      28.91
 51.37     794.00      28.18
 51.47     727.00      26.96
 51.57     750.00      27.39
 51.67     685.00      26.17
 51.77     711.68      26.68
 51.87     712.00      26.68
 51.97     697.00      26.40
 52.07     677.00      26.02
 52.17     713.00      26.70
 52.27     671.00      25.90
 52.37     693.67      26.34
 52.47     672.67      25.94
 52.57     627.00      25.04
 52.67     605.37      24.60
 52.77     664.00      25.77
 52.87     651.04      25.52
 52.97     726.00      26.94
 53.07     698.63      26.43
 53.17     759.00      27.55
 53.27     732.00      27.06
 53.37     843.00      29.03
 53.47     867.41      29.45
 53.57    1014.35      31.85
 53.67    1122.00      33.50
 53.77    1201.00      34.66
 53.87    1250.00      35.36
 53.97    1283.00      35.82
 54.07    1192.00      34.53
 54.17    1109.00      33.30
 54.27    1032.00      32.12
 54.37     934.65      30.57
 54.47     837.00      28.93
 54.57     728.00      26.98
 54.67     714.00      26.72
 54.77     689.00      26.25
 54.87     657.00      25.63
 54.97     678.00      26.04
 55.07     650.00      25.50
 55.17     619.56      24.89
 55.27     647.00      25.44
 55.37     658.00      25.65
 55.47     613.86      24.78
 55.57     613.65      24.77
 55.67     638.00      25.26
 55.77     677.00      26.02
 55.87     670.47      25.89
 55.97     706.00      26.57
 56.07     717.00      26.78
 56.17     676.00      26.00
 56.27     754.07      27.46
 56.37     783.16      27.98
 56.47     844.00      29.05
 56.57     999.14      31.61
 56.67    1058.00      32.53
 56.77    1376.00      37.09
 56.87    1577.21      39.71
 56.97    1944.00      44.09
 57.07    2353.00      48.51
 57.17    2580.00      50.79
 57.27    2722.37      52.18
 57.37    2711.00      52.07
 57.47    2577.00      50.76
 57.57    2245.00      47.38
 57.67    1921.00      43.83
 57.77    1476.00      38.42
 57.87    1305.31      36.13
 57.97    1088.00      32.98
 58.07     962.00      31.02
 58.17     824.00      28.71
 58.27     736.00      27.13
 58.37     731.00      27.04
 58.47     755.05      27.48
 58.57     826.00      28.74
 58.67     885.14      29.75
 58.77     906.00      30.10
 58.87     936.18      30.60
 58.97    1024.00      32.00
 59.07    1126.45      33.56
 59.17    1196.00      34.58
 59.27    1244.00      35.27
 59.37    1310.53      36.20
 59.47    1360.00      36.88
 59.57    1363.00      36.92
 59.67    1257.00      35.45
 59.77    1234.00      35.13
 59.87    1266.00      35.58
 59.97    1194.00      34.55
 60.07    1264.00      35.55
 60.17    1228.11      35.04
 60.27    1379.00      37.13
 60.37    1433.00      37.85
 60.47    1542.00      39.27
 60.57    1583.00      39.79
 60.67    1557.28      39.46
 60.77    1543.31      39.29
 60.87    1487.00      38.56
 60.97    1370.00      37.01
 61.07    1267.46      35.60
 61.17    1041.00      32.26
 61.27     930.00      30.50
 61.37     895.00      29.92
 61.47     757.22      27.52
 61.57     831.00      28.83
 61.67     724.38      26.91
 61.77     799.02      28.27
 61.87     835.00      28.90
 61.97     889.00      29.82
 62.07    1022.00      31.97
 62.17    1230.23      35.07
 62.27    1317.00      36.29
 62.37    1434.41      37.87
 62.47    1568.00      39.60
 62.57    1643.00      40.53
 62.67    1735.44      41.66
 62.77    1613.21      40.16
 62.87    1502.99      38.77
 62.97    1404.00      37.47
 63.07    1107.00      33.27
 63.17    1110.19      33.32
 63.27     909.00      30.15
 63.37     856.88      29.27
 63.47     773.00      27.80
 63.57     695.00      26.36
 63.67     676.92      26.02
 63.77     682.00      26.12
 63.87     695.82      26.38
 63.97     732.00      27.06
 64.07     654.70      25.59
 64.17     750.00      27.39
 64.27     736.88      27.15
 64.37     809.64      28.45
 64.47     809.00      28.44
 64.57     960.00      30.98
 64.67     996.00      31.56
 64.77    1141.10      33.78
 64.87    1273.00      35.68
 64.97    1356.06      36.82
 65.07    1506.00      38.81
 65.17    1526.00      39.06
 65.27    1461.00      38.22
 65.37    1384.93      37.21
 65.47    1331.13      36.48
 65.57    1283.58      35.83
 65.67    1056.02      32.50
 65.77    1012.37      31.82
 65.87     932.00      30.53
 65.97     844.00      29.05
 66.07     839.72      28.98
 66.17     787.00      28.05
 66.27     731.00      27.04
 66.37     651.00      25.51
 66.47     688.00      26.23
 66.57     652.00      25.53
 66.67     737.96      27.17
 66.77     683.00      26.13
 66.87     725.95      26.94
 66.97     669.42      25.87
 67.07     690.00      26.27
 67.17     651.00      25.51
 67.27     702.00      26.50
 67.37     786.53      28.05
 67.47     711.70      26.68
 67.57     798.00      28.25
 67.67     885.00      29.75
 67.77     975.00      31.22
 67.87    1061.00      32.57
 67.97    1278.75      35.76
 68.07    1426.00      37.76
 68.17    1669.00      40.85
 68.27    1902.87      43.62
 68.37    2203.00      46.94
 68.47    2317.19      48.14
 68.57    2459.00      49.59
 68.67    2540.00      50.40
 68.77    2405.00      49.04
 68.87    2273.00      47.68
 68.97    1938.58      44.03
 69.07    1839.00      42.88
 69.17    1540.00      39.24
 69.27    1368.69      37.00
 69.37    1110.00      33.32
 69.47     980.26      31.31
 69.57     903.00      30.05
 69.67     817.75      28.60
 69.77     795.00      28.20
 69.87     750.06      27.39
 69.97     776.00      27.86
 70.07     658.54      25.66
 70.17     690.47      26.28
 70.27     697.90      26.42
 70.37     667.47      25.84
 70.47     721.54      26.86
 70.57     713.00      26.70
 70.67     690.00      26.27
 70.77     703.68      26.53
 70.87     710.00      26.65
 70.97     658.00      25.65
 71.07     685.00      26.17
 71.17     691.66      26.30
 71.27     650.00      25.50
 71.37     701.06      26.48
 71.47     787.00      28.05
 71.57     846.74      29.10
 71.67     867.00      29.44
 71.77     973.78      31.21
 71.87    1039.00      32.23
 71.97    1216.00      34.87
 72.07    1368.00      36.99
 72.17    1500.00      38.73
 72.27    1733.39      41.63
 72.37    1753.00      41.87
 72.47    1975.11      44.44
 72.57    1940.00      44.05
 72.67    1983.50      44.54
 72.77    1897.41      43.56
 72.87    1769.00      42.06
 72.97    1592.00      39.90
 73.07    1413.85      37.60
 73.17    1349.01      36.73
 73.27    1158.82      34.04
 73.37     973.00      31.19
 73.47     907.00      30.12
 73.57     824.00      28.71
 73.67     775.15      27.84
 73.77     745.00      27.29
 73.87     712.81      26.70
 73.97     653.00      25.55
 74.07     637.29      25.24
 74.17     663.71      25.76
 74.27     711.94      26.68
 74.37     628.00      25.06
 74.47     635.00      25.20
 74.57     643.00      25.36
 74.67     671.00      25.90
 74.77     672.00      25.92
 74.87     662.65      25.74
 74.97     668.00      25.85
 75.07     680.00      26.08
 75.17     667.00      25.83
 75.27     671.00      25.90
 75.37     669.83      25.88
 75.47     697.00      26.40
 75.57     700.00      26.46
 75.67     643.00      25.36
 75.77     702.36      26.50
 75.87     686.00      26.19
 75.97     643.12      25.36
 76.07     663.00      25.75
 76.17     684.54      26.16
 76.27     645.44      25.41
 76.37     726.00      26.94
 76.47     749.00      27.37
 76.57     768.18      27.72
 76.67     857.81      29.29
 76.77     858.69      29.30
 76.87     915.43      30.26
 76.97     933.00      30.55
 77.07     967.00      31.10
 77.17     954.00      30.89
 77.27     992.00      31.50
 77.37     983.73      31.36
 77.47     875.00      29.58
 77.57     918.00      30.30
 77.67     853.30      29.21
 77.77     735.13      27.11
 77.87     754.97      27.48
 77.97     702.00      26.50
 78.07     648.00      25.46
 78.17     695.00      26.36
 78.27     626.00      25.02
 78.37     613.00      24.76
 78.47     613.54      24.77
 78.57     632.00      25.14
 78.67     578.91      24.06
 78.77     643.00      25.36
 78.87     573.66      23.95
 78.97     588.00      24.25
 79.07     646.80      25.43
 79.17     557.15      23.60
 79.27     666.00      25.81
 79.37     586.83      24.22
 79.47     606.24      24.62
 79.57     572.00      23.92
 79.67     642.00      25.34
 79.77     568.30      23.84
 79.87     569.04      23.85
 79.97     587.71      24.24
 80.07     659.00      25.67
 80.17     568.00      23.83
 80.27     608.00      24.66
 80.37     646.00      25.42
 80.47     615.62      24.81
 80.57     726.23      26.95
 80.67     708.00      26.61
 80.77     699.76      26.45
 80.87     770.44      27.76
 80.97     856.00      29.26
 81.07     944.00      30.72
 81.17    1008.00      31.75
 81.27    1045.06      32.33
 81.37    1173.33      34.25
 81.47    1217.00      34.89
 81.57    1311.00      36.21
 81.67    1390.00      37.28
 81.77    1397.00      37.38
 81.87    1304.00      36.11
 81.97    1306.00      36.14
 82.07    1245.00      35.28
 82.17    1161.00      34.07
 82.27    1181.00      34.37
 82.37    1038.00      32.22
 82.47     953.00      30.87
 82.57     921.00      30.35
 82.67     867.00      29.44
 82.77     885.40      29.76
 82.87     787.34      28.06
 82.97     710.00      26.65
 83.07     746.87      27.33
 83.17     698.00      26.42
 83.27     705.83      26.57
 83.37     654.00      25.57
 83.47     651.00      25.51
 83.57     626.00      25.02
 83.67     618.00      24.86
 83.77     593.00      24.35
 83.87     575.00      23.98
 83.97     626.86      25.04
 84.07     640.00      25.30
 84.17     687.92      26.23
 84.27     653.00      25.55
 84.37     704.41      26.54
 84.47     678.07      26.04
 84.57     621.00      24.92
 84.67     638.00      25.26
 84.77     630.00      25.10
 84.87     665.00      25.79
 84.97     611.00      24.72
 85.07     644.00      25.38
 85.17     617.00      24.84
 85.27     629.96      25.10
 85.37     627.00      25.04
 85.47     585.53      24.20
 85.57     562.00      23.71
 85.67     571.00      23.90
 85.77     593.92      24.37
 85.87     614.00      24.78
 85.97     578.00      24.04
 86.07     579.66      24.08
 86.17     649.00      25.48
 86.27     612.45      24.75
 86.37     609.12      24.68
 86.47     583.00      24.15
 86.57     651.00      25.51
 86.67     616.87      24.84
 86.77     677.00      26.02
 86.87     597.98      24.45
 86.97     630.00      25.10
 87.07     643.00      25.36
 87.17     630.73      25.11
 87.27     716.00      26.76
 87.37     673.00      25.94
 87.47     700.00      26.46
 87.57     682.00      26.12
 87.67     655.82      25.61
 87.77     673.60      25.95
 87.87     739.00      27.18
 87.97     685.00      26.17
 88.07     749.46      27.38
 88.17     741.00      27.22
 88.27     664.04      25.77
 88.37     690.76      26.28
 88.47     687.00      26.21
 88.57     671.00      25.90
 88.67     702.00      26.50
 88.77     700.58      26.47
 88.87     709.00      26.63
 88.97     632.00      25.14
 89.07     657.00      25.63
 89.17     660.00      25.69
 89.27     611.00      24.72
 89.37     629.62      25.09
 89.47     667.00      25.83
 89.57     678.00      26.04
 89.67     705.86      26.57
 89.77     609.74      24.69
 89.87     648.00      25.46
 89.97     676.00      26.00
 90.07     704.00      26.53
 90.17     693.11      26.33
 90.27     671.32      25.91
 90.37     643.00      25.36
 90.47     705.73      26.57
 90.57     691.00      26.29
 90.67     673.00      25.94
 90.77     675.00      25.98
 90.87     640.00      25.30
 90.97     596.07      24.41
 91.07     603.00      24.56
 91.17     628.00      25.06
 91.27     593.40      24.36
 91.37     574.40      23.97
 91.47     590.00      24.29
 91.57     545.00      23.35
 91.67     631.00      25.12
 91.77     609.00      24.68
 91.87     556.00      23.58
 91.97     619.00      24.88
 92.07     612.66      24.75
 92.17     576.00      24.00
 92.27     590.67      24.30
 92.37     631.29      25.13
 92.47     576.91      24.02
 92.57     591.00      24.31
 92.67     622.00      24.94
 92.77     622.00      24.94
 92.87     631.00      25.12
 92.97     603.63      24.57
 93.07     661.00      25.71
 93.17     623.91      24.98
 93.27     707.00      26.59
 93.37     694.00      26.34
 93.47     664.00      25.77
 93.57     746.00      27.31
 93.67     768.00      27.71
 93.77     779.00      27.91
 93.87     802.00      28.32
 93.97     829.10      28.79
 94.07     761.00      27.59
 94.17     848.68      29.13
 94.27     854.00      29.22
 94.37     930.43      30.50
 94.47     923.00      30.38
 94.57     943.02      30.71
 94.67     937.47      30.62
 94.77     993.74      31.52
 94.87     918.00      30.30
 94.97     953.39      30.88
 95.07     925.22      30.42
 95.17    1037.88      32.22
 95.27     977.00      31.26
 95.37     967.00      31.10
 95.47     988.85      31.45
 95.57     998.00      31.59
 95.67    1034.00      32.16
 95.77    1055.00      32.48
 95.87    1002.00      31.65
 95.97    1002.00      31.65
 96.07     919.39      30.32
 96.17     854.00      29.22
 96.27     852.36      29.20
 96.37     845.00      29.07
 96.47     904.00      30.07
 96.57     826.00      28.74
 96.67     839.85      28.98
 96.77     817.00      28.58
 96.87     841.72      29.01
 96.97     861.00      29.34
 97.07     854.00      29.22
 97.17     918.00      30.30
 97.27     855.90      29.26
 97.37     993.00      31.51
 97.47    1018.49      31.91
 97.57    1081.65      32.89
 97.67    1207.22      34.75
 97.77    1285.55      35.85
 97.87    1304.00      36.11
 97.97    1324.05      36.39
 98.07    1500.00      38.73
 98.17    1483.01      38.51
 98.27    1614.00      40.17
 98.37    1621.10      40.26
 98.47    1611.00      40.14
 98.57    1519.41      38.98
 98.67    1501.00      38.74
 98.77    1458.00      38.18
 98.87    1461.00      38.22
 98.97    1364.39      36.94
 99.07    1323.75      36.38
 99.17    1293.00      35.96
 99.27    1179.05      34.34
 99.37    1068.00      32.68
 99.47    1089.00      33.00
 99.57     998.00      31.59
 99.67     994.00      31.53
 99.77     966.44      31.09
 99.87    1021.86      31.97
 99.97    1034.00      32.16
100.07    1036.00      32.19
100.17    1033.00      32.14
100.27    1154.54      33.98
100.37    1218.00      34.90
100.47    1284.00      35.83
100.57    1391.93      37.31
100.67    1475.00      38.41
100.77    1529.00      39.10
100.87    1582.78      39.78
100.97    1750.31      41.84
101.07    1850.00      43.01
101.17    1834.00      42.83
101.27    2022.00      44.97
101.37    1928.16      43.91
101.47    1963.98      44.32
101.57    2132.24      46.18
101.67    2047.00      45.24
101.77    2082.00      45.63
101.87    2062.00      45.41
101.97    2135.00      46.21
102.07    2053.00      45.31
102.17    1939.00      44.03
102.27    1933.89      43.98
102.37    1821.00      42.67
102.47    1735.68      41.66
102.57    1624.00      40.30
102.67    1551.00      39.38
102.77    1549.00      39.36
102.87    1522.92      39.02
102.97    1417.00      37.64
103.07    1383.81      37.20
103.17    1311.18      36.21
103.27    1275.00      35.71
103.37    1261.00      35.51
103.47    1226.00      35.01
103.57    1207.00      34.74
103.67    1154.81      33.98
103.77    1219.52      34.92
103.87    1214.11      34.84
103.97    1064.22      32.62
104.07    1118.00      33.44
104.17     947.00      30.77
104.27     975.00      31.22
104.37     989.98      31.46
104.47     892.00      29.87
104.57     795.56      28.21
104.67     795.29      28.20
104.77     796.00      28.21
104.87     768.00      27.71
104.97     756.77      27.51
105.07     734.00      27.09
105.17     728.00      26.98
105.27     693.00      26.32
105.37     647.35      25.44
105.47     669.00      25.87
105.57     627.00      25.04
105.67     638.41      25.27
105.77     669.00      25.87
105.87     623.00      24.96
105.97     641.90      25.34
106.07     601.00      24.52
106.17     670.00      25.88
106.27     583.92      24.16
106.37     610.00      24.70
106.47     611.00      24.72
106.57     639.30      25.28
106.67     631.00      25.12
106.77     634.38      25.19
106.87     651.65      25.53
106.97     655.00      25.59
107.07     660.00      25.69
107.17     649.00      25.48
107.27     684.00      26.15
107.37     701.62      26.49
107.47     712.00      26.68
107.57     763.00      27.62
107.67     784.00      28.00
107.77     713.00      26.70
107.87     744.00      27.28
107.97     707.00      26.59
108.07     770.00      27.75
108.17     831.41      28.83
108.27     722.40      26.88
108.37     763.00      27.62
108.47     746.00      27.31
108.57     737.00      27.15
108.67     756.02      27.50
108.77     819.49      28.63
108.87     745.13      27.30
108.97     800.00      28.28
109.07     757.00      27.51
109.17     725.00      26.93
109.27     731.00      27.04
109.37     721.00      26.85
109.47     722.00      26.87
109.57     773.00      27.80
109.67     791.00      28.12
109.77     758.58      27.54
109.87     713.00      26.70
109.97     778.20      27.90
110.07     759.81      27.56
110.17     755.00      27.48
110.27     749.00      27.37
110.37     699.13      26.44
110.47     789.00      28.09
110.57     796.00      28.21
110.67     722.00      26.87
110.77     709.26      26.63
110.87     646.00      25.42
110.97     720.00      26.83
111.07     683.00      26.13
111.17     686.00      26.19
111.27     655.00      25.59
111.37     651.00      25.51
111.47     592.82      24.35
111.57     607.79      24.65
111.67     637.00      25.24
111.77     631.00      25.12
111.87     590.00      24.29
111.97     564.45      23.76
112.07     659.00      25.67
112.17     603.00      24.56
112.27     576.00      24.00
112.37     611.00      24.72
112.47     614.00      24.78
112.57     558.78      23.64
112.67     629.00      25.08
112.77     564.00      23.75
112.87     588.00      24.25
112.97     613.00      24.76
113.07     588.55      24.26
113.17     580.00      24.08
113.27     577.95      24.04
113.37     552.00      23.49
113.47     627.00      25.04
113.57     586.00      24.21
113.67     590.64      24.30
113.77     645.00      25.40
113.87     629.00      25.08
113.97     624.00      24.98
114.07     636.66      25.23
114.17     688.99      26.25
114.27     644.00      25.38
114.37     644.00      25.38
114.47     712.11      26.69
114.57     716.00      26.76
114.67     691.00      26.29
114.77     718.04      26.80
114.87     816.84      28.58
114.97     809.00      28.44
115.07     857.00      29.27
115.17     863.00      29.38
115.27     969.00      31.13
115.37    1034.00      32.16
115.47    1176.00      34.29
115.57    1228.41      35.05
115.67    1467.90      38.31
115.77    1626.36      40.33
115.87    1782.87      42.22
115.97    1920.00      43.82
116.07    2223.00      47.15
116.17    2496.00      49.96
116.27    2876.00      53.63
116.37    3088.00      55.57
116.47    3439.00      58.64
116.57    3704.00      60.86
116.67    4225.00      65.00
116.77    4553.65      67.48
116.87    4939.00      70.28
116.97    5429.06      73.68
117.07    5647.79      75.15
117.17    6198.40      78.73
117.27    6417.00      80.11
117.37    6703.10      81.87
117.47    7137.00      84.48
117.57    7277.00      85.31
117.67    7611.00      87.24
117.77    7453.00      86.33
117.87    7377.37      85.89
117.97    7358.00      85.78
118.07    7399.00      86.02
118.17    7088.00      84.19
118.27    6849.00      82.76
118.37    6443.84      80.27
118.47    6133.00      78.31
118.57    5945.16      77.10
118.67    5643.20      75.12
118.77    5065.20      71.17
118.87    4822.40      69.44
118.97    4410.00      66.41
119.07    4209.00      64.88
119.17    3725.00      61.03
119.27    3331.87      57.72
119.37    3084.64      55.54
119.47    2778.00      52.71
119.57    2433.00      49.33
119.67    2257.72      47.52
119.77    1966.42      44.34
119.87    1880.00      43.36
119.97    1634.00      40.42
120.07    1576.00      39.70
120.17    1416.00      37.63
120.27    1300.00      36.06
120.37    1219.00      34.91
120.47    1152.00      33.94
120.57    1039.00      32.23
120.67     981.00      31.32
120.77     915.00      30.25
120.87     824.35      28.71
120.97     874.00      29.56
121.07     834.00      28.88
121.17     797.20      28.23
121.27     786.94      28.05
121.37     781.80      27.96
121.47     771.32      27.77
121.57     717.65      26.79
121.67     727.41      26.97
121.77     653.52      25.56
121.87     672.00      25.92
121.97     667.92      25.84
122.07     715.37      26.75
122.17     682.53      26.13
122.27     683.65      26.15
122.37     680.00      26.08
122.47     653.77      25.57
122.57     687.00      26.21
122.67     627.00      25.04
122.77     676.00      26.00
122.87     641.00      25.32
122.97     737.97      27.17
123.07     696.00      26.38
123.17     729.00      27.00
123.27     699.00      26.44
123.37     725.00      26.93
123.47     729.81      27.01
123.57     706.00      26.57
123.67     730.00      27.02
123.77     740.60      27.21
123.87     750.00      27.39
123.97     759.00      27.55
124.07     709.00      26.63
124.17     773.00      27.80
124.27     806.00      28.39
124.37     794.00      28.18
124.47     810.33      28.47
124.57     850.00      29.15
124.67     748.00      27.35
124.77     832.00      28.84
124.87     756.24      27.50
124.97     793.00      28.16
