  9.97     535.00      23.13
 10.07     586.00      24.21
 10.17     595.00      24.39
 10.27     602.00      24.54
 10.37     562.00      23.71
 10.47     591.00      24.31
 10.57     554.00      23.54
 10.67     555.00      23.56
 10.77     555.79      23.58
 10.87     566.46      23.80
 10.97     638.00      25.26
 11.07     553.26      23.52
 11.17     599.00      24.47
 11.27     531.15      23.05
 11.37     576.00      24.00
 11.47     600.31      24.50
 11.57     561.00      23.69
 11.67     593.00      24.35
 11.77     608.00      24.66
 11.87     567.61      23.82
 11.97     669.00      25.87
 12.07     625.65      25.01
 12.17     655.00      25.59
 12.27     659.00      25.67
 12.37     619.00      24.88
 12.47     642.00      25.34
 12.57     561.61      23.70
 12.67     544.00      23.32
 12.77     537.00      23.17
 12.87     536.83      23.17
 12.97     558.33      23.63
 13.07     571.00      23.90
 13.17     606.00      24.62
 13.27     509.00      22.56
 13.37     533.00      23.09
 13.47     549.00      23.43
 13.57     537.45      23.18
 13.67     596.00      24.41
 13.77     571.00      23.90
 13.87     604.93      24.60
 13.97     522.14      22.85
 14.07     610.00      24.70
 14.17     514.00      22.67
 14.27     525.00      22.91
 14.37     561.00      23.69
 14.47     551.60      23.49
 14.57     559.00      23.64
 14.67     566.15      23.79
 14.77     499.00      22.34
 14.87     518.73      22.78
 14.97     578.63      24.05
 15.07     608.48      24.67
 15.17     543.88      23.32
 15.27     572.00      23.92
 15.37     546.00      23.37
 15.47     566.00      23.79
 15.57     555.00      23.56
 15.67     578.14      24.04
 15.77     585.25      24.19
 15.87     556.49      23.59
 15.97     535.01      23.13
 16.07     600.36      24.50
 16.17     572.02      23.92
 16.27     594.34      24.38
 16.37     528.26      22.98
 16.47     522.73      22.86
 16.57     584.00      24.17
 16.67     523.00      22.87
 16.77     568.00      23.83
 16.87     536.00      23.15
 16.97     532.00      23.07
 17.07     547.00      23.39
 17.17     527.50      22.97
 17.27     538.00      23.19
 17.37     577.46      24.03
 17.47     559.92      23.66
 17.57     571.29      23.90
 17.67     573.34      23.94
 17.77     555.12      23.56
 17.87     571.87      23.91
 17.97     555.00      23.56
 18.07     534.95      23.13
 18.17     624.00      24.98
 18.27     559.35      23.65
 18.37     546.00      23.37
 18.47     553.00      23.52
 18.57     566.09      23.79
 18.67     547.00      23.39
 18.77     579.31      24.07
 18.87     561.52      23.70
 18.97     551.00      23.47
 19.07     539.00      23.22
 19.17     532.61      23.08
 19.27     539.00      23.22
 19.37     564.00      23.75
 19.47     532.63      23.08
 19.57     576.00      24.00
 19.67     591.71      24.33
 19.77     596.00      24.41
 19.87     542.74      23.30
 19.97     526.00      22.93
 20.07     590.00      24.29
 20.17     538.00      23.19
 20.27     525.67      22.93
 20.37     514.00      22.67
 20.47     518.00      22.76
 20.57     562.00      23.71
 20.67     584.03      24.17
 20.77     519.07      22.78
 20.87     600.72      24.51
 20.97     536.00      23.15
 21.07     522.21      22.85
 21.17     510.90      22.60
 21.27     520.00      22.80
 21.37     541.00      23.26
 21.47     523.32      22.88
 21.57     511.00      22.61
 21.67     562.52      23.72
 21.77     588.00      24.25
 21.87     581.00      24.10
 21.97     553.00      23.52
 22.07     549.00      23.43
 22.17     562.00      23.71
 22.27     555.00      23.56
 22.37     541.00      23.26
 22.47     544.00      23.32
 22.57     564.65      23.76
 22.67     519.00      22.78
 22.77     542.00      23.28
 22.87     539.59      23.23
 22.97     577.00      24.02
 23.07     557.68      23.62
 23.17     579.35      24.07
 23.27     555.00      23.56
 23.37     574.00      23.96
 23.47     535.00      23.13
 23.57     589.00      24.27
 23.67     583.00      24.15
 23.77     547.00      23.39
 23.87     577.00      24.02
 23.97     557.00      23.60
 24.07     597.04      24.43
 24.17     582.00      24.12
 24.27     556.00      23.58
 24.37     588.69      24.26
 24.47     613.00      24.76
 24.57     602.44      24.54
 24.67     613.00      24.76
 24.77     603.00      24.56
 24.87     617.00      24.84
 24.97     678.00      26.04
 25.07     595.11      24.39
 25.17     553.00      23.52
 25.27     546.01      23.37
 25.37     535.59      23.14
 25.47     506.00      22.49
 25.57     552.00      23.49
 25.67     569.00      23.85
 25.77     585.00      24.19
 25.87     550.00      23.45
 25.97     562.00      23.71
 26.07     500.85      22.38
 26.17     505.93      22.49
 26.27     520.06      22.80
 26.37     544.00      23.32
 26.47     537.23      23.18
 26.57     547.51      23.40
 26.67     555.36      23.57
 26.77     518.00      22.76
 26.87     588.00      24.25
 26.97     505.49      22.48
 27.07     586.00      24.21
 27.17     560.00      23.66
 27.27     575.20      23.98
 27.37     585.55      24.20
 27.47     492.00      22.18
 27.57     541.33      23.27
 27.67     618.00      24.86
 27.77     550.00      23.45
 27.87     596.00      24.41
 27.97     635.00      25.20
 28.07     716.77      26.77
 28.17     892.00      29.87
 28.27     928.00      30.46
 28.37     929.00      30.48
 28.47     800.21      28.29
 28.57     721.00      26.85
 28.67     664.00      25.77
 28.77     669.60      25.88
 28.87     758.00      27.53
 28.97     784.00      28.00
 29.07     856.00      29.26
 29.17     663.00      25.75
 29.27     643.00      25.36
 29.37     592.00      24.33
 29.47     608.36      24.66
 29.57     591.00      24.31
 29.67     607.00      24.64
 29.77     667.00      25.83
 29.87     621.00      24.92
 29.97     585.00      24.19
 30.07     557.00      23.60
 30.17     547.00      23.39
 30.27     584.00      24.17
 30.37     565.00      23.77
 30.47     576.00      24.00
 30.57     536.00      23.15
 30.67     580.00      24.08
 30.77     614.88      24.80
 30.87     598.00      24.45
 30.97     560.02      23.66
 31.07     585.00      24.19
 31.17     611.00      24.72
 31.27     556.00      23.58
 31.37     565.62      23.78
 31.47     592.00      24.33
 31.57     530.00      23.02
 31.67     488.86      22.11
 31.77     528.00      22.98
 31.87     542.00      23.28
 31.97     508.00      22.54
 32.07     540.00      23.24
 32.17     540.34      23.25
 32.27     540.00      23.24
 32.37     535.00      23.13
 32.47     558.00      23.62
 32.57     593.00      24.35
 32.67     490.25      22.14
 32.77     495.00      22.25
 32.87     561.00      23.69
 32.97     544.86      23.34
 33.07     593.00      24.35
 33.17     538.96      23.22
 33.27     543.00      23.30
 33.37     593.00      24.35
 33.47     507.00      22.52
 33.57     532.25      23.07
 33.67     613.00      24.76
 33.77     735.71      27.12
 33.87     854.00      29.22
 33.97    1007.00      31.73
 34.07    1066.17      32.65
 34.17    1035.00      32.17
 34.27     904.95      30.08
 34.37     794.00      28.18
 34.47     697.00      26.40
 34.57     594.00      24.37
 34.67     569.00      23.85
 34.77     519.00      22.78
 34.87     488.00      22.09
 34.97     526.00      22.93
 35.07     550.00      23.45
 35.17     490.82      22.15
 35.27     497.00      22.29
 35.37     522.51      22.86
 35.47     557.93      23.62
 35.57     558.00      23.62
 35.67     544.91      23.34
 35.77     558.37      23.63
 35.87     505.00      22.47
 35.97     520.69      22.82
 36.07     525.31      22.92
 36.17     476.00      21.82
 36.27     474.50      21.78
 36.37     542.90      23.30
 36.47     479.09      21.89
 36.57     524.15      22.89
 36.67     547.00      23.39
 36.77     466.00      21.59
 36.87     493.00      22.20
 36.97     511.00      22.61
 37.07     495.00      22.25
 37.17     492.00      22.18
 37.27     513.00      22.65
 37.37     543.00      23.30
 37.47     522.00      22.85
 37.57     481.29      21.94
 37.67     498.79      22.33
 37.77     570.94      23.89
 37.87     520.00      22.80
 37.97     549.61      23.44
 38.07     490.22      22.14
 38.17     514.00      22.67
 38.27     528.00      22.98
 38.37     468.00      21.63
 38.47     502.00      22.41
 38.57     542.78      23.30
 38.67     451.00      21.24
 38.77     481.00      21.93
 38.87     529.00      23.00
 38.97     526.70      22.95
 39.07     466.00      21.59
 39.17     472.00      21.73
 39.27     474.00      21.77
 39.37     474.00      21.77
 39.47     467.12      21.61
 39.57     484.00      22.00
 39.67     507.00      22.52
 39.77     501.99      22.41
 39.87     543.78      23.32
 39.97     486.24      22.05
 40.07     475.00      21.79
 40.17     472.56      21.74
 40.27     484.00      22.00
 40.37     464.20      21.55
 40.47     470.76      21.70
 40.57     533.50      23.10
 40.67     512.00      22.63
 40.77     541.72      23.27
 40.87     500.00      22.36
 40.97     468.30      21.64
 41.07     518.00      22.76
 41.17     519.00      22.78
 41.27     481.75      21.95
 41.37     515.00      22.69
 41.47     511.00      22.61
 41.57     532.29      23.07
 41.67     472.00      21.73
 41.77     540.11      23.24
 41.87     490.91      22.16
 41.97     474.00      21.77
 42.07     503.00      22.43
 42.17     499.88      22.36
 42.27     498.13      22.32
 42.37     557.33      23.61
 42.47     555.00      23.56
 42.57     545.00      23.35
 42.67     588.00      24.25
 42.77     592.00      24.33
 42.87     557.00      23.60
 42.97     547.00      23.39
 43.07     578.00      24.04
 43.17     533.00      23.09
 43.27     459.00      21.42
 43.37     542.76      23.30
 43.47     497.79      22.31
 43.57     464.00      21.54
 43.67     480.00      21.91
 43.77     497.98      22.32
 43.87     518.46      22.77
 43.97     493.00      22.20
 44.07     503.00      22.43
 44.17     503.90      22.45
 44.27     488.00      22.09
 44.37     531.10      23.05
 44.47     499.00      22.34
 44.57     476.00      21.82
 44.67     462.00      21.49
 44.77     531.00      23.04
 44.87     477.00      21.84
 44.97     480.00      21.91
 45.07     480.05      21.91
 45.17     511.21      22.61
 45.27     495.31      22.26
 45.37     476.25      21.82
 45.47     518.90      22.78
 45.57     530.28      23.03
 45.67     483.00      21.98
 45.77     519.76      22.80
 45.87     501.00      22.38
 45.97     517.00      22.74
 46.07     467.07      21.61
 46.17     528.00      22.98
 46.27     490.00      22.14
 46.37     549.00      23.43
 46.47     485.00      22.02
 46.57     512.30      22.63
 46.67     477.06      21.84
 46.77     496.00      22.27
 46.87     495.00      22.25
 46.97     494.93      22.25
 47.07     518.16      22.76
 47.17     505.00      22.47
 47.27     506.00      22.49
 47.37     541.00      23.26
 47.47     535.00      23.13
 47.57     503.62      22.44
 47.67     551.00      23.47
 47.77     568.00      23.83
 47.87     593.86      24.37
 47.97     608.18      24.66
 48.07     600.00      24.49
 48.17     545.00      23.35
 48.27     560.33      23.67
 48.37     549.00      23.43
 48.47     520.00      22.80
 48.57     565.12      23.77
 48.67     500.00      22.36
 48.77     558.00      23.62
 48.87     543.92      23.32
 48.97     595.00      24.39
 49.07     519.36      22.79
 49.17     494.00      22.23
 49.27     573.56      23.95
 49.37     608.00      24.66
 49.47     718.00      26.80
 49.57     739.63      27.20
 49.67     825.00      28.72
 49.77    1032.09      32.13
 49.87    1237.95      35.18
 49.97    1618.00      40.22
 50.07    2142.00      46.28
 50.17    2320.33      48.17
 50.27    2525.52      50.25
 50.37    2454.48      49.54
 50.47    2075.00      45.55
 50.57    1646.00      40.57
 50.67    1212.00      34.81
 50.77     940.85      30.67
 50.87     786.00      28.04
 50.97     645.00      25.40
 51.07     695.00      26.36
 51.17     653.00      25.55
 51.27     633.77      25.17
 51.37     539.20      23.22
 51.47     603.00      24.56
 51.57     570.00      23.87
 51.67     512.44      22.64
 51.77     540.61      23.25
 51.87     563.00      23.73
 51.97     485.48      22.03
 52.07     560.00      23.66
 52.17     577.00      24.02
 52.27     516.00      22.72
 52.37     544.00      23.32
 52.47     570.00      23.87
 52.57     582.02      24.13
 52.67     571.00      23.90
 52.77     586.67      24.22
 52.87     582.00      24.12
 52.97     699.00      26.44
 53.07     762.00      27.60
 53.17     841.00      29.00
 53.27     955.00      30.90
 53.37    1054.92      32.48
 53.47    1070.00      32.71
 53.57    1198.00      34.61
 53.67    1115.00      33.39
 53.77    1082.48      32.90
 53.87     974.09      31.21
 53.97     835.00      28.90
 54.07     760.00      27.57
 54.17     663.00      25.75
 54.27     586.40      24.22
 54.37     578.29      24.05
 54.47     552.00      23.49
 54.57     570.00      23.87
 54.67     558.00      23.62
 54.77     545.00      23.35
 54.87     558.00      23.62
 54.97     550.00      23.45
 55.07     567.00      23.81
 55.17     581.61      24.12
 55.27     533.00      23.09
 55.37     506.33      22.50
 55.47     550.00      23.45
 55.57     548.00      23.41
 55.67     549.00      23.43
 55.77     593.00      24.35
 55.87     603.12      24.56
 55.97     596.00      24.41
 56.07     598.23      24.46
 56.17     712.66      26.70
 56.27     759.00      27.55
 56.37     922.00      30.36
 56.47    1146.54      33.86
 56.57    1477.00      38.43
 56.67    1998.83      44.71
 56.77    2244.00      47.37
 56.87    2527.59      50.28
 56.97    2730.61      52.26
 57.07    2589.00      50.88
 57.17    2273.31      47.68
 57.27    1973.00      44.42
 57.37    1525.00      39.05
 57.47    1190.62      34.51
 57.57    1000.00      31.62
 57.67     836.00      28.91
 57.77     753.00      27.44
 57.87     676.96      26.02
 57.97     624.00      24.98
 58.07     689.64      26.26
 58.17     684.00      26.15
 58.27     731.00      27.04
 58.37     844.50      29.06
 58.47     895.00      29.92
 58.57    1036.60      32.20
 58.67    1236.30      35.16
 58.77    1335.70      36.55
 58.87    1503.00      38.77
 58.97    1601.00      40.01
 59.07    1556.27      39.45
 59.17    1630.00      40.37
 59.27    1564.00      39.55
 59.37    1374.07      37.07
 59.47    1343.00      36.65
 59.57    1206.17      34.73
 59.67    1256.00      35.44
 59.77    1194.00      34.55
 59.87    1098.00      33.14
 59.97    1198.76      34.62
 60.07    1337.00      36.57
 60.17    1486.55      38.56
 60.27    1497.71      38.70
 60.37    1627.00      40.34
 60.47    1475.00      38.41
 60.57    1391.00      37.30
 60.67    1242.00      35.24
 60.77    1026.00      32.03
 60.87     870.00      29.50
 60.97     744.00      27.28
 61.07     673.00      25.94
 61.17     620.00      24.90
 61.27     600.00      24.49
 61.37     631.00      25.12
 61.47     713.00      26.70
 61.57     671.00      25.90
 61.67     782.00      27.96
 61.77     824.00      28.71
 61.87    1042.48      32.29
 61.97    1144.97      33.84
 62.07    1292.26      35.95
 62.17    1364.00      36.93
 62.27    1383.00      37.19
 62.37    1376.98      37.11
 62.47    1275.15      35.71
 62.57    1127.00      33.57
 62.67    1010.00      31.78
 62.77     829.00      28.79
 62.87     701.00      26.48
 62.97     621.00      24.92
 63.07     592.00      24.33
 63.17     594.23      24.38
 63.27     608.00      24.66
 63.37     581.00      24.10
 63.47     586.53      24.22
 63.57     568.00      23.83
 63.67     543.00      23.30
 63.77     554.30      23.54
 63.87     570.00      23.87
 63.97     578.00      24.04
 64.07     688.68      26.24
 64.17     742.00      27.24
 64.27     752.00      27.42
 64.37     797.00      28.23
 64.47     923.00      30.38
 64.57     904.50      30.07
 64.67     972.00      31.18
 64.77    1038.00      32.22
 64.87    1065.00      32.63
 64.97     939.00      30.64
 65.07     864.00      29.39
 65.17     866.00      29.43
 65.27     803.47      28.35
 65.37     680.00      26.08
 65.47     655.00      25.59
 65.57     624.75      24.99
 65.67     600.00      24.49
 65.77     600.00      24.49
 65.87     621.24      24.92
 65.97     535.00      23.13
 66.07     550.00      23.45
 66.17     529.79      23.02
 66.27     555.00      23.56
 66.37     537.00      23.17
 66.47     540.00      23.24
 66.57     568.66      23.85
 66.67     560.00      23.66
 66.77     501.00      22.38
 66.87     599.73      24.49
 66.97     548.00      23.41
 67.07     595.00      24.39
 67.17     588.00      24.25
 67.27     646.00      25.42
 67.37     775.00      27.84
 67.47     924.56      30.41
 67.57    1090.00      33.02
 67.67    1333.00      36.51
 67.77    1552.00      39.40
 67.87    1921.00      43.83
 67.97    2150.00      46.37
 68.07    2410.91      49.10
 68.17    2377.00      48.75
 68.27    2446.00      49.46
 68.37    2270.00      47.64
 68.47    2120.00      46.04
 68.57    1793.00      42.34
 68.67    1432.00      37.84
 68.77    1262.00      35.52
 68.87     979.00      31.29
 68.97     842.00      29.02
 69.07     715.00      26.74
 69.17     665.25      25.79
 69.27     620.00      24.90
 69.37     618.27      24.87
 69.47     616.00      24.82
 69.57     594.00      24.37
 69.67     594.00      24.37
 69.77     513.29      22.66
 69.87     605.00      24.60
 69.97     549.40      23.44
 70.07     539.00      23.22
 70.17     544.00      23.32
 70.27     605.00      24.60
 70.37     514.51      22.68
 70.47     593.09      24.35
 70.57     590.83      24.31
 70.67     582.00      24.12
 70.77     547.00      23.39
 70.87     569.00      23.85
 70.97     583.37      24.15
 71.07     590.00      24.29
 71.17     672.31      25.93
 71.27     766.39      27.68
 71.37     804.00      28.35
 71.47     941.03      30.68
 71.57    1110.00      33.32
 71.67    1214.00      34.84
 71.77    1447.95      38.05
 71.87    1681.72      41.01
 71.97    1733.00      41.63
 72.07    1909.00      43.69
 72.17    1911.17      43.72
 72.27    2031.00      45.07
 72.37    1916.00      43.77
 72.47    1647.00      40.58
 72.57    1451.00      38.09
 72.67    1322.00      36.36
 72.77    1185.00      34.42
 72.87    1051.00      32.42
 72.97    1004.75      31.70
 73.07     903.00      30.05
 73.17     849.21      29.14
 73.27     777.00      27.87
 73.37     743.00      27.26
 73.47     773.58      27.81
 73.57     680.43      26.09
 73.67     572.00      23.92
 73.77     578.00      24.04
 73.87     582.00      24.12
 73.97     610.00      24.70
 74.07     544.68      23.34
 74.17     531.91      23.06
 74.27     600.00      24.49
 74.37     528.19      22.98
 74.47     629.00      25.08
 74.57     597.01      24.43
 74.67     650.00      25.50
 74.77     601.35      24.52
 74.87     627.00      25.04
 74.97     532.44      23.07
 75.07     538.05      23.20
 75.17     622.00      24.94
 75.27     617.00      24.84
 75.37     584.00      24.17
 75.47     567.00      23.81
 75.57     561.00      23.69
 75.67     506.85      22.51
 75.77     535.00      23.13
 75.87     572.86      23.93
 75.97     587.00      24.23
 76.07     601.00      24.52
 76.17     631.00      25.12
 76.27     626.60      25.03
 76.37     650.00      25.50
 76.47     706.00      26.57
 76.57     691.00      26.29
 76.67     692.00      26.31
 76.77     655.88      25.61
 76.87     656.00      25.61
 76.97     682.14      26.12
 77.07     597.08      24.44
 77.17     622.00      24.94
 77.27     624.41      24.99
 77.37     537.78      23.19
 77.47     554.00      23.54
 77.57     547.00      23.39
 77.67     498.91      22.34
 77.77     536.00      23.15
 77.87     537.00      23.17
 77.97     483.27      21.98
 78.07     496.16      22.27
 78.17     512.55      22.64
 78.27     512.00      22.63
 78.37     532.35      23.07
 78.47     483.52      21.99
 78.57     529.00      23.00
 78.67     518.00      22.76
 78.77     525.00      22.91
 78.87     517.00      22.74
 78.97     565.41      23.78
 79.07     467.00      21.61
 79.17     526.00      22.93
 79.27     514.00      22.67
 79.37     539.44      23.23
 79.47     557.00      23.60
 79.57     560.93      23.68
 79.67     493.59      22.22
 79.77     538.98      23.22
 79.87     569.87      23.87
 79.97     538.00      23.19
 80.07     528.00      22.98
 80.17     591.03      24.31
 80.27     574.45      23.97
 80.37     601.83      24.53
 80.47     540.52      23.25
 80.57     551.79      23.49
 80.67     609.04      24.68
 80.77     599.89      24.49
 80.87     621.11      24.92
 80.97     616.00      24.82
 81.07     664.13      25.77
 81.17     700.29      26.46
 81.27     708.00      26.61
 81.37     770.34      27.75
 81.47     701.25      26.48
 81.57     721.00      26.85
 81.67     795.00      28.20
 81.77     760.33      27.57
 81.87     715.00      26.74
 81.97     706.00      26.57
 82.07     674.55      25.97
 82.17     677.04      26.02
 82.27     714.00      26.72
 82.37     693.00      26.32
 82.47     583.00      24.15
 82.57     580.00      24.08
 82.67     625.31      25.01
 82.77     532.11      23.07
 82.87     529.00      23.00
 82.97     530.50      23.03
 83.07     577.00      24.02
 83.17     550.05      23.45
 83.27     555.00      23.56
 83.37     512.00      22.63
 83.47     541.00      23.26
 83.57     558.00      23.62
 83.67     531.00      23.04
 83.77     559.58      23.66
 83.87     556.00      23.58
 83.97     551.09      23.48
 84.07     557.17      23.60
 84.17     592.00      24.33
 84.27     565.00      23.77
 84.37     518.59      22.77
 84.47     538.00      23.19
 84.57     583.97      24.17
 84.67     508.39      22.55
 84.77     581.89      24.12
 84.87     509.00      22.56
 84.97     517.00      22.74
 85.07     507.47      22.53
 85.17     507.00      22.52
 85.27     503.00      22.43
 85.37     481.96      21.95
 85.47     522.00      22.85
 85.57     558.73      23.64
 85.67     474.36      21.78
 85.77     547.49      23.40
 85.87     535.00      23.13
 85.97     487.89      22.09
 86.07     511.42      22.61
 86.17     543.00      23.30
 86.27     537.36      23.18
 86.37     563.51      23.74
 86.47     523.00      22.87
 86.57     494.81      22.24
 86.67     539.00      23.22
 86.77     563.65      23.74
 86.87     580.00      24.08
 86.97     613.00      24.76
 87.07     589.00      24.27
 87.17     638.00      25.26
 87.27     612.87      24.76
 87.37     605.00      24.60
 87.47     663.00      25.75
 87.57     622.22      24.94
 87.67     620.00      24.90
 87.77     579.26      24.07
 87.87     639.01      25.28
 87.97     632.06      25.14
 88.07     554.22      23.54
 88.17     584.00      24.17
 88.27     578.00      24.04
 88.37     576.00      24.00
 88.47     516.89      22.74
 88.57     571.00      23.90
 88.67     587.37      24.24
 88.77     550.00      23.45
 88.87     587.00      24.23
 88.97     587.60      24.24
 89.07     549.91      23.45
 89.17     568.00      23.83
 89.27     589.46      24.28
 89.37     627.00      25.04
 89.47     550.57      23.46
 89.57     604.00      24.58
 89.67     570.00      23.87
 89.77     547.70      23.40
 89.87     577.00      24.02
 89.97     538.00      23.19
 90.07     503.00      22.43
 90.17     500.00      22.36
 90.27     535.81      23.15
 90.37     566.84      23.81
 90.47     521.00      22.83
 90.57     502.00      22.41
 90.67     514.00      22.67
 90.77     543.46      23.31
 90.87     540.00      23.24
 90.97     511.00      22.61
 91.07     489.55      22.13
 91.17     470.00      21.68
 91.27     529.41      23.01
 91.37     542.62      23.29
 91.47     493.00      22.20
 91.57     517.00      22.74
 91.67     565.14      23.77
 91.77     474.00      21.77
 91.87     535.00      23.13
 91.97     553.74      23.53
 92.07     517.00      22.74
 92.17     542.00      23.28
 92.27     556.00      23.58
 92.37     588.02      24.25
 92.47     605.00      24.60
 92.57     610.00      24.70
 92.67     592.00      24.33
 92.77     681.00      26.10
 92.87     670.00      25.88
 92.97     658.49      25.66
 93.07     709.00      26.63
 93.17     777.00      27.87
 93.27     775.09      27.84
 93.37     803.95      28.35
 93.47     795.00      28.20
 93.57     755.56      27.49
 93.67     818.00      28.60
 93.77     845.00      29.07
 93.87     819.00      28.62
 93.97     866.76      29.44
 94.07     906.00      30.10
 94.17     907.00      30.12
 94.27     890.00      29.83
 94.37     879.99      29.66
 94.47     805.26      28.38
 94.57     894.26      29.90
 94.67     880.00      29.66
 94.77     927.00      30.45
 94.87     888.00      29.80
 94.97     953.00      30.87
 95.07     963.00      31.03
 95.17     910.00      30.17
 95.27     868.00      29.46
 95.37     797.00      28.23
 95.47     809.00      28.44
 95.57     780.00      27.93
 95.67     708.78      26.62
 95.77     674.52      25.97
 95.87     648.00      25.46
 95.97     707.00      26.59
 96.07     685.00      26.17
 96.17     663.00      25.75
 96.27     665.00      25.79
 96.37     654.00      25.57
 96.47     710.76      26.66
 96.57     771.07      27.77
 96.67     864.79      29.41
 96.77     865.16      29.41
 96.87     923.00      30.38
 96.97    1048.00      32.37
 97.07    1059.00      32.54
 97.17    1246.99      35.31
 97.27    1252.00      35.38
 97.37    1354.67      36.81
 97.47    1360.17      36.88
 97.57    1459.00      38.20
 97.67    1467.00      38.30
 97.77    1473.13      38.38
 97.87    1413.00      37.59
 97.97    1312.43      36.23
 98.07    1312.00      36.22
 98.17    1267.00      35.59
 98.27    1195.00      34.57
 98.37    1151.00      33.93
 98.47    1031.00      32.11
 98.57     908.00      30.13
 98.67     897.81      29.96
 98.77     814.00      28.53
 98.87     784.00      28.00
 98.97     797.00      28.23
 99.07     786.88      28.05
 99.17     834.00      28.88
 99.27     798.79      28.26
 99.37     894.79      29.91
 99.47     869.00      29.48
 99.57    1020.15      31.94
 99.67    1015.00      31.86
 99.77    1124.00      33.53
 99.87    1227.00      35.03
 99.97    1374.13      37.07
100.07    1472.00      38.37
100.17    1588.00      39.85
100.27    1675.00      40.93
100.37    1796.00      42.38
100.47    1965.00      44.33
100.57    1980.00      44.50
100.67    2110.00      45.93
100.77    1999.48      44.72
100.87    2163.71      46.52
100.97    2167.93      46.56
101.07    2082.00      45.63
101.17    2091.00      45.73
101.27    1923.71      43.86
101.37    1886.00      43.43
101.47    1858.18      43.11
101.57    1755.43      41.90
101.67    1620.00      40.25
101.77    1494.00      38.65
101.87    1401.00      37.43
101.97    1354.00      36.80
102.07    1275.00      35.71
102.17    1252.00      35.38
102.27    1186.00      34.44
102.37    1134.00      33.67
102.47    1192.70      34.54
102.57    1088.29      32.99
102.67    1105.71      33.25
102.77    1086.00      32.95
102.87    1053.00      32.45
102.97    1065.55      32.64
103.07    1031.25      32.11
103.17     925.00      30.41
103.27     950.15      30.82
103.37     875.59      29.59
103.47     841.00      29.00
103.57     784.00      28.00
103.67     814.00      28.53
103.77     704.31      26.54
103.87     683.00      26.13
103.97     692.00      26.31
104.07     571.00      23.90
104.17     609.00      24.68
104.27     546.69      23.38
104.37     575.63      23.99
104.47     528.00      22.98
104.57     589.00      24.27
104.67     518.00      22.76
104.77     528.00      22.98
104.87     504.00      22.45
104.97     544.00      23.32
105.07     517.38      22.75
105.17     554.00      23.54
105.27     532.00      23.07
105.37     520.00      22.80
105.47     513.00      22.65
105.57     498.00      22.32
105.67     571.00      23.90
105.77     514.00      22.67
105.87     492.49      22.19
105.97     565.00      23.77
106.07     581.00      24.10
106.17     578.00      24.04
106.27     558.00      23.62
106.37     579.14      24.07
106.47     591.00      24.31
106.57     568.36      23.84
106.67     583.00      24.15
106.77     612.00      24.74
106.87     577.00      24.02
106.97     639.00      25.28
107.07     647.00      25.44
107.17     654.67      25.59
107.27     663.82      25.76
107.37     707.25      26.59
107.47     684.00      26.15
107.57     604.00      24.58
107.67     718.00      26.80
107.77     712.00      26.68
107.87     591.00      24.31
107.97     638.01      25.26
108.07     701.68      26.49
108.17     704.00      26.53
108.27     658.00      25.65
108.37     654.41      25.58
108.47     681.00      26.10
108.57     703.00      26.51
108.67     650.00      25.50
108.77     637.28      25.24
108.87     682.00      26.12
108.97     722.35      26.88
109.07     701.00      26.48
109.17     685.00      26.17
109.27     627.00      25.04
109.37     724.00      26.91
109.47     592.00      24.33
109.57     649.29      25.48
109.67     621.50      24.93
109.77     667.00      25.83
109.87     636.00      25.22
109.97     609.00      24.68
110.07     632.00      25.14
110.17     588.00      24.25
110.27     600.00      24.49
110.37     591.00      24.31
110.47     570.00      23.87
110.57     576.64      24.01
110.67     552.00      23.49
110.77     579.15      24.07
110.87     486.44      22.06
110.97     486.23      22.05
111.07     534.72      23.12
111.17     522.00      22.85
111.27     531.00      23.04
111.37     540.00      23.24
111.47     536.25      23.16
111.57     537.71      23.19
111.67     548.38      23.42
111.77     527.00      22.96
111.87     516.00      22.72
111.97     561.00      23.69
112.07     510.53      22.59
112.17     591.00      24.31
112.27     552.00      23.49
112.37     530.00      23.02
112.47     578.95      24.06
112.57     560.00      23.66
112.67     600.00      24.49
112.77     585.00      24.19
112.87     604.00      24.58
112.97     617.00      24.84
113.07     627.72      25.05
113.17     646.00      25.42
113.27     705.50      26.56
113.37     718.00      26.80
113.47     723.14      26.89
113.57     848.00      29.12
113.67     835.07      28.90
113.77     843.00      29.03
113.87     931.09      30.51
113.97     888.66      29.81
114.07     942.70      30.70
114.17    1000.51      31.63
114.27    1168.95      34.19
114.37    1234.00      35.13
114.47    1213.00      34.83
114.57    1309.84      36.19
114.67    1456.00      38.16
114.77    1475.24      38.41
114.87    1729.00      41.58
114.97    1820.47      42.67
115.07    2021.00      44.96
115.17    2269.00      47.63
115.27    2616.00      51.15
115.37    2656.60      51.54
115.47    3038.00      55.12
115.57    3340.00      57.79
115.67    3693.65      60.78
115.77    3989.00      63.16
115.87    4402.00      66.35
115.97    4526.00      67.28
116.07    5129.32      71.62
116.17    5353.00      73.16
116.27    5973.00      77.29
116.37    6373.04      79.83
116.47    6505.00      80.65
116.57    6756.00      82.19
116.67    7043.00      83.92
116.77    7200.00      84.85
116.87    7085.00      84.17
116.97    7013.27      83.75
117.07    7201.08      84.86
117.17    7099.00      84.26
117.27    6525.38      80.78
117.37    6272.00      79.20
117.47    5992.19      77.41
117.57    5488.00      74.08
117.67    5150.00      71.76
117.77    4877.78      69.84
117.87    4242.48      65.13
117.97    3902.23      62.47
118.07    3785.00      61.52
118.17    3326.00      57.67
118.27    2974.00      54.53
118.37    2594.00      50.93
118.47    2349.00      48.47
118.57    1987.58      44.58
118.67    1798.34      42.41
118.77    1554.00      39.42
118.87    1414.00      37.60
118.97    1185.00      34.42
119.07    1073.00      32.76
119.17     986.00      31.40
119.27     969.00      31.13
119.37     849.00      29.14
119.47     792.86      28.16
119.57     780.00      27.93
119.67     705.00      26.55
119.77     735.00      27.11
119.87     691.91      26.30
119.97     651.00      25.51
120.07     650.00      25.50
120.17     658.00      25.65
120.27     597.00      24.43
120.37     613.00      24.76
120.47     572.00      23.92
120.57     591.24      24.32
120.67     560.34      23.67
120.77     542.00      23.28
120.87     511.00      22.61
120.97     560.00      23.66
121.07     601.59      24.53
121.17     528.00      22.98
121.27     545.00      23.35
121.37     531.00      23.04
121.47     558.00      23.62
121.57     568.00      23.83
121.67     556.10      23.58
121.77     541.00      23.26
121.87     572.00      23.92
121.97     575.00      23.98
122.07     556.46      23.59
122.17     562.00      23.71
122.27     555.00      23.56
122.37     591.00      24.31
122.47     599.00      24.47
122.57     624.00      24.98
122.67     599.40      24.48
122.77     625.00      25.00
122.87     580.37      24.09
122.97     634.00      25.18
123.07     635.00      25.20
123.17     638.00      25.26
123.27     636.72      25.23
123.37     638.76      25.27
123.47     661.00      25.71
123.57     624.00      24.98
123.67     601.00      24.52
123.77     648.00      25.46
123.87     616.88      24.84
123.97     613.00      24.76
124.07     657.00      25.63
124.17     614.00      24.78
124.27     600.00      24.49
124.37     600.31      24.50
124.47     620.00      24.90
124.57     615.00      24.80
124.67     617.83      24.86
124.77     621.00      24.92
124.87     577.00      24.02
124.97     606.00      24.62
