  9.97     615.49      24.81
 10.07     612.00      24.74
 10.17     586.48      24.22
 10.27     543.01      23.30
 10.37     563.07      23.73
 10.47     605.00      24.60
 10.57     586.97      24.23
 10.67     578.55      24.05
 10.77     606.00      24.62
 10.87     552.19      23.50
 10.97     609.43      24.69
 11.07     615.00      24.80
 11.17     571.75      23.91
 11.27     588.00      24.25
 11.37     609.00      24.68
 11.47     619.00      24.88
 11.57     672.00      25.92
 11.67     596.00      24.41
 11.77     610.00      24.70
 11.87     644.00      25.38
 11.97     656.00      25.61
 12.07     713.17      26.71
 12.17     662.00      25.73
 12.27     689.00      26.25
 12.37     633.59      25.17
 12.47     685.65      26.18
 12.57     636.87      25.24
 12.67     600.00      24.49
 12.77     621.60      24.93
 12.87     552.00      23.49
 12.97     534.20      23.11
 13.07     552.00      23.49
 13.17     587.00      24.23
 13.27     586.61      24.22
 13.37     563.00      23.73
 13.47     601.00      24.52
 13.57     617.98      24.86
 13.67     542.09      23.28
 13.77     552.00      23.49
 13.87     552.03      23.50
 13.97     611.43      24.73
 14.07     605.38      24.60
 14.17     540.83      23.26
 14.27     560.00      23.66
 14.37     575.67      23.99
 14.47     614.16      24.78
 14.57     553.00      23.52
 14.67     547.91      23.41
 14.77     579.93      24.08
 14.87     580.00      24.08
 14.97     599.10      24.48
 15.07     569.00      23.85
 15.17     608.93      24.68
 15.27     518.00      22.76
 15.37     540.00      23.24
 15.47     605.00      24.60
 15.57     577.00      24.02
 15.67     577.00      24.02
 15.77     512.00      22.63
 15.87     554.00      23.54
 15.97     543.17      23.31
 16.07     575.63      23.99
 16.17     592.00      24.33
 16.27     544.00      23.32
 16.37     575.00      23.98
 16.47     543.99      23.32
 16.57     531.00      23.04
 16.67     550.01      23.45
 16.77     566.00      23.79
 16.87     580.00      24.08
 16.97     560.00      23.66
 17.07     581.00      24.10
 17.17     554.00      23.54
 17.27     539.00      23.22
 17.37     565.00      23.77
 17.47     539.00      23.22
 17.57     527.00      22.96
 17.67     571.00      23.90
 17.77     575.00      23.98
 17.87     556.00      23.58
 17.97     570.00      23.87
 18.07     597.00      24.43
 18.17     563.68      23.74
 18.27     573.00      23.94
 18.37     569.34      23.86
 18.47     593.41      24.36
 18.57     543.02      23.30
 18.67     532.00      23.07
 18.77     554.00      23.54
 18.87     561.34      23.69
 18.97     580.58      24.10
 19.07     584.58      24.18
 19.17     578.16      24.04
 19.27     535.00      23.13
 19.37     582.35      24.13
 19.47     564.00      23.75
 19.57     540.00      23.24
 19.67     542.66      23.30
 19.77     521.00      22.83
 19.87     573.00      23.94
 19.97     621.00      24.92
 20.07     532.00      23.07
 20.17     585.00      24.19
 20.27     517.87      22.76
 20.37     596.42      24.42
 20.47     539.52      23.23
 20.57     558.00      23.62
 20.67     520.00      22.80
 20.77     578.00      24.04
 20.87     586.00      24.21
 20.97     578.21      24.05
 21.07     580.36      24.09
 21.17     545.82      23.36
 21.27     520.72      22.82
 21.37     587.00      24.23
 21.47     533.83      23.10
 21.57     553.00      23.52
 21.67     557.00      23.60
 21.77     544.00      23.32
 21.87     530.87      23.04
 21.97     547.00      23.39
 22.07     545.00      23.35
 22.17     570.00      23.87
 22.27     534.00      23.11
 22.37     518.00      22.76
 22.47     590.24      24.29
 22.57     533.75      23.10
 22.67     581.00      24.10
 22.77     520.00      22.80
 22.87     569.00      23.85
 22.97     578.00      24.04
 23.07     593.00      24.35
 23.17     572.00      23.92
 23.27     544.81      23.34
 23.37     531.10      23.05
 23.47     519.27      22.79
 23.57     547.00      23.39
 23.67     573.90      23.96
 23.77     507.68      22.53
 23.87     559.00      23.64
 23.97     535.00      23.13
 24.07     532.49      23.08
 24.17     564.00      23.75
 24.27     517.06      22.74
 24.37     568.00      23.83
 24.47     560.00      23.66
 24.57     616.07      24.82
 24.67     620.00      24.90
 24.77     609.10      24.68
 24.87     578.00      24.04
 24.97     642.00      25.34
 25.07     571.74      23.91
 25.17     536.00      23.15
 25.27     581.00      24.10
 25.37     510.00      22.58
 25.47     559.00      23.64
 25.57     570.00      23.87
 25.67     546.00      23.37
 25.77     548.83      23.43
 25.87     542.94      23.30
 25.97     542.00      23.28
 26.07     562.00      23.71
 26.17     536.00      23.15
 26.27     562.00      23.71
 26.37     534.00      23.11
 26.47     495.00      22.25
 26.57     523.06      22.87
 26.67     523.00      22.87
 26.77     534.00      23.11
 26.87     564.00      23.75
 26.97     573.20      23.94
 27.07     552.00      23.49
 27.17     524.66      22.91
 27.27     544.00      23.32
 27.37     539.99      23.24
 27.47     512.15      22.63
 27.57     576.00      24.00
 27.67     526.14      22.94
 27.77     520.37      22.81
 27.87     593.00      24.35
 27.97     652.00      25.53
 28.07     853.00      29.21
 28.17     843.00      29.03
 28.27     982.00      31.34
 28.37     868.00      29.46
 28.47     793.00      28.16
 28.57     729.86      27.02
 28.67     669.00      25.87
 28.77     723.00      26.89
 28.87     800.00      28.28
 28.97     825.19      28.73
 29.07     856.45      29.27
 29.17     717.34      26.78
 29.27     629.00      25.08
 29.37     549.00      23.43
 29.47     571.83      23.91
 29.57     554.00      23.54
 29.67     575.00      23.98
 29.77     548.67      23.42
 29.87     564.00      23.75
 29.97     533.62      23.10
 30.07     535.98      23.15
 30.17     595.00      24.39
 30.27     522.00      22.85
 30.37     540.00      23.24
 30.47     536.15      23.16
 30.57     550.00      23.45
 30.67     599.00      24.47
 30.77     549.00      23.43
 30.87     583.00      24.15
 30.97     633.00      25.16
 31.07     627.00      25.04
 31.17     537.17      23.18
 31.27     537.00      23.17
 31.37     562.00      23.71
 31.47     539.58      23.23
 31.57     534.75      23.12
 31.67     526.00      22.93
 31.77     561.10      23.69
 31.87     561.39      23.69
 31.97     547.00      23.39
 32.07     526.18      22.94
 32.17     510.00      22.58
 32.27     560.00      23.66
 32.37     564.00      23.75
 32.47     499.28      22.34
 32.57     592.00      24.33
 32.67     547.00      23.39
 32.77     558.26      23.63
 32.87     589.00      24.27
 32.97     573.20      23.94
 33.07     501.16      22.39
 33.17     557.00      23.60
 33.27     550.28      23.46
 33.37     605.00      24.60
 33.47     567.00      23.81
 33.57     587.00      24.23
 33.67     640.00      25.30
 33.77     789.00      28.09
 33.87     917.00      30.28
 33.97    1047.00      32.36
 34.07    1059.00      32.54
 34.17    1024.92      32.01
 34.27     877.00      29.61
 34.37     782.62      27.98
 34.47     668.41      25.85
 34.57     593.00      24.35
 34.67     568.00      23.83
 34.77     525.00      22.91
 34.87     533.00      23.09
 34.97     558.00      23.62
 35.07     529.00      23.00
 35.17     521.32      22.83
 35.27     486.00      22.05
 35.37     492.56      22.19
 35.47     547.00      23.39
 35.57     523.35      22.88
 35.67     509.00      22.56
 35.77     529.47      23.01
 35.87     487.91      22.09
 35.97     540.44      23.25
 36.07     531.00      23.04
 36.17     527.61      22.97
 36.27     515.00      22.69
 36.37     549.76      23.45
 36.47     541.39      23.27
 36.57     536.00      23.15
 36.67     493.00      22.20
 36.77     528.00      22.98
 36.87     479.84      21.91
 36.97     543.00      23.30
 37.07     527.00      22.96
 37.17     505.65      22.49
 37.27     552.00      23.49
 37.37     515.00      22.69
 37.47     484.00      22.00
 37.57     508.00      22.54
 37.67     569.72      23.87
 37.77     560.00      23.66
 37.87     492.00      22.18
 37.97     537.00      23.17
 38.07     510.00      22.58
 38.17     506.00      22.49
 38.27     549.00      23.43
 38.37     499.74      22.35
 38.47     513.00      22.65
 38.57     513.00      22.65
 38.67     519.00      22.78
 38.77     492.00      22.18
 38.87     546.00      23.37
 38.97     519.69      22.80
 39.07     480.00      21.91
 39.17     497.00      22.29
 39.27     532.00      23.07
 39.37     514.81      22.69
 39.47     496.00      22.27
 39.57     464.00      21.54
 39.67     523.00      22.87
 39.77     474.55      21.78
 39.87     498.00      22.32
 39.97     512.00      22.63
 40.07     492.70      22.20
 40.17     512.00      22.63
 40.27     522.00      22.85
 40.37     522.55      22.86
 40.47     514.00      22.67
 40.57     523.41      22.88
 40.67     532.89      23.08
 40.77     503.00      22.43
 40.87     531.00      23.04
 40.97     498.00      22.32
 41.07     534.00      23.11
 41.17     502.00      22.41
 41.27     500.00      22.36
 41.37     509.00      22.56
 41.47     511.00      22.61
 41.57     513.00      22.65
 41.67     482.00      21.95
 41.77     494.00      22.23
 41.87     481.00      21.93
 41.97     553.00      23.52
 42.07     472.00      21.73
 42.17     506.00      22.49
 42.27     524.00      22.89
 42.37     491.00      22.16
 42.47     564.00      23.75
 42.57     644.00      25.38
 42.67     611.32      24.72
 42.77     600.94      24.51
 42.87     569.00      23.85
 42.97     625.10      25.00
 43.07     539.00      23.22
 43.17     562.90      23.73
 43.27     452.00      21.26
 43.37     559.42      23.65
 43.47     475.00      21.79
 43.57     489.00      22.11
 43.67     564.00      23.75
 43.77     510.00      22.58
 43.87     479.05      21.89
 43.97     503.00      22.43
 44.07     523.00      22.87
 44.17     521.84      22.84
 44.27     480.39      21.92
 44.37     527.43      22.97
 44.47     496.00      22.27
 44.57     578.00      24.04
 44.67     501.00      22.38
 44.77     551.00      23.47
 44.87     508.00      22.54
 44.97     536.00      23.15
 45.07     480.83      21.93
 45.17     543.30      23.31
 45.27     489.38      22.12
 45.37     603.00      24.56
 45.47     489.00      22.11
 45.57     494.00      22.23
 45.67     475.00      21.79
 45.77     531.92      23.06
 45.87     472.85      21.75
 45.97     521.00      22.83
 46.07     535.57      23.14
 46.17     533.00      23.09
 46.27     506.00      22.49
 46.37     500.00      22.36
 46.47     486.76      22.06
 46.57     529.00      23.00
 46.67     537.00      23.17
 46.77     501.00      22.38
 46.87     457.00      21.38
 46.97     527.00      22.96
 47.07     544.28      23.33
 47.17     542.00      23.28
 47.27     515.00      22.69
 47.37     531.10      23.05
 47.47     535.00      23.13
 47.57     561.00      23.69
 47.67     554.00      23.54
 47.77     613.00      24.76
 47.87     591.00      24.31
 47.97     598.00      24.45
 48.07     567.00      23.81
 48.17     575.00      23.98
 48.27     519.67      22.80
 48.37     536.00      23.15
 48.47     523.00      22.87
 48.57     553.00      23.52
 48.67     525.38      22.92
 48.77     534.00      23.11
 48.87     547.00      23.39
 48.97     585.00      24.19
 49.07     609.59      24.69
 49.17     545.05      23.35
 49.27     632.72      25.15
 49.37     643.87      25.37
 49.47     668.00      25.85
 49.57     786.52      28.04
 49.67     935.00      30.58
 49.77    1080.56      32.87
 49.87    1406.19      37.50
 49.97    1841.00      42.91
 50.07    2251.00      47.44
 50.17    2476.00      49.76
 50.27    2515.34      50.15
 50.37    2222.00      47.14
 50.47    1922.36      43.84
 50.57    1486.17      38.55
 50.67    1101.00      33.18
 50.77     820.00      28.64
 50.87     702.00      26.50
 50.97     691.61      26.30
 51.07     604.00      24.58
 51.17     640.00      25.30
 51.27     655.00      25.59
 51.37     567.35      23.82
 51.47     577.00      24.02
 51.57     602.00      24.54
 51.67     567.00      23.81
 51.77     555.70      23.57
 51.87     574.00      23.96
 51.97     545.00      23.35
 52.07     560.49      23.67
 52.17     546.00      23.37
 52.27     543.00      23.30
 52.37     511.04      22.61
 52.47     578.00      24.04
 52.57     570.41      23.88
 52.67     622.00      24.94
 52.77     587.87      24.25
 52.87     636.00      25.22
 52.97     747.83      27.35
 53.07     783.00      27.98
 53.17     879.00      29.65
 53.27    1019.00      31.92
 53.37    1143.00      33.81
 53.47    1179.00      34.34
 53.57    1147.08      33.87
 53.67    1122.00      33.50
 53.77    1059.25      32.55
 53.87     850.00      29.15
 53.97     822.64      28.68
 54.07     681.00      26.10
 54.17     621.00      24.92
 54.27     580.68      24.10
 54.37     542.00      23.28
 54.47     553.21      23.52
 54.57     541.36      23.27
 54.67     516.02      22.72
 54.77     589.99      24.29
 54.87     576.86      24.02
 54.97     592.80      24.35
 55.07     594.00      24.37
 55.17     571.07      23.90
 55.27     605.00      24.60
 55.37     585.11      24.19
 55.47     564.00      23.75
 55.57     588.00      24.25
 55.67     613.91      24.78
 55.77     617.62      24.85
 55.87     558.32      23.63
 55.97     588.00      24.25
 56.07     675.00      25.98
 56.17     721.00      26.85
 56.27     910.00      30.17
 56.37    1180.00      34.35
 56.47    1397.09      37.38
 56.57    1802.52      42.46
 56.67    2140.14      46.26
 56.77    2420.65      49.20
 56.87    2584.00      50.83
 56.97    2624.00      51.22
 57.07    2381.87      48.80
 57.17    2063.00      45.42
 57.27    1606.00      40.07
 57.37    1247.61      35.32
 57.47    1034.50      32.16
 57.57     888.00      29.80
 57.67     773.00      27.80
 57.77     711.00      26.66
 57.87     676.00      26.00
 57.97     640.96      25.32
 58.07     648.00      25.46
 58.17     699.11      26.44
 58.27     760.00      27.57
 58.37     796.39      28.22
 58.47     980.11      31.31
 58.57    1027.00      32.05
 58.67    1165.00      34.13
 58.77    1271.86      35.66
 58.87    1413.00      37.59
 58.97    1450.00      38.08
 59.07    1520.00      38.99
 59.17    1451.11      38.09
 59.27    1474.00      38.39
 59.37    1315.00      36.26
 59.47    1221.00      34.94
 59.57    1153.78      33.97
 59.67    1052.98      32.45
 59.77    1135.00      33.69
 59.87    1256.00      35.44
 59.97    1321.97      36.36
 60.07    1461.00      38.22
 60.17    1559.00      39.48
 60.27    1480.08      38.47
 60.37    1512.70      38.89
 60.47    1344.98      36.67
 60.57    1279.79      35.77
 60.67    1088.00      32.98
 60.77     934.25      30.57
 60.87     848.40      29.13
 60.97     750.11      27.39
 61.07     668.00      25.85
 61.17     667.00      25.83
 61.27     669.36      25.87
 61.37     654.00      25.57
 61.47     705.00      26.55
 61.57     740.94      27.22
 61.67     847.00      29.10
 61.77     963.79      31.04
 61.87    1124.00      33.53
 61.97    1256.75      35.45
 62.07    1274.00      35.69
 62.17    1451.43      38.10
 62.27    1388.00      37.26
 62.37    1399.24      37.41
 62.47    1169.00      34.19
 62.57    1079.00      32.85
 62.67     847.00      29.10
 62.77     761.00      27.59
 62.87     710.32      26.65
 62.97     659.00      25.67
 63.07     575.00      23.98
 63.17     560.00      23.66
 63.27     600.05      24.50
 63.37     595.00      24.39
 63.47     562.01      23.71
 63.57     575.00      23.98
 63.67     629.00      25.08
 63.77     589.42      24.28
 63.87     633.17      25.16
 63.97     687.24      26.22
 64.07     683.73      26.15
 64.17     782.00      27.96
 64.27     822.00      28.67
 64.37     914.00      30.23
 64.47    1007.00      31.73
 64.57    1046.41      32.35
 64.67    1054.00      32.47
 64.77     960.70      31.00
 64.87    1019.00      31.92
 64.97     866.15      29.43
 65.07     894.00      29.90
 65.17     791.00      28.12
 65.27     674.00      25.96
 65.37     662.17      25.73
 65.47     609.00      24.68
 65.57     616.00      24.82
 65.67     653.00      25.55
 65.77     570.00      23.87
 65.87     590.00      24.29
 65.97     577.00      24.02
 66.07     591.54      24.32
 66.17     547.00      23.39
 66.27     535.28      23.14
 66.37     594.00      24.37
 66.47     554.00      23.54
 66.57     571.43      23.90
 66.67     612.05      24.74
 66.77     584.00      24.17
 66.87     585.00      24.19
 66.97     564.00      23.75
 67.07     614.28      24.78
 67.17     709.57      26.64
 67.27     818.08      28.60
 67.37     876.00      29.60
 67.47    1044.96      32.33
 67.57    1269.54      35.63
 67.67    1543.00      39.28
 67.77    1811.00      42.56
 67.87    2108.00      45.91
 67.97    2275.19      47.70
 68.07    2456.20      49.56
 68.17    2418.00      49.17
 68.27    2215.00      47.06
 68.37    2103.00      45.86
 68.47    1793.38      42.35
 68.57    1521.00      39.00
 68.67    1321.00      36.35
 68.77    1057.00      32.51
 68.87     861.00      29.34
 68.97     775.06      27.84
 69.07     710.00      26.65
 69.17     689.00      26.25
 69.27     646.00      25.42
 69.37     603.00      24.56
 69.47     611.46      24.73
 69.57     526.00      22.93
 69.67     567.00      23.81
 69.77     554.00      23.54
 69.87     557.34      23.61
 69.97     521.07      22.83
 70.07     572.00      23.92
 70.17     554.00      23.54
 70.27     518.00      22.76
 70.37     555.00      23.56
 70.47     554.00      23.54
 70.57     548.00      23.41
 70.67     603.00      24.56
 70.77     599.00      24.47
 70.87     652.00      25.53
 70.97     643.63      25.37
 71.07     673.00      25.94
 71.17     770.00      27.75
 71.27     810.00      28.46
 71.37     903.17      30.05
 71.47    1129.00      33.60
 71.57    1313.08      36.24
 71.67    1458.95      38.20
 71.77    1656.00      40.69
 71.87    1822.00      42.68
 71.97    1907.83      43.68
 72.07    1825.00      42.72
 72.17    1903.56      43.63
 72.27    1834.00      42.83
 72.37    1624.71      40.31
 72.47    1454.00      38.13
 72.57    1290.89      35.93
 72.67    1094.00      33.08
 72.77    1027.00      32.05
 72.87     923.00      30.38
 72.97     851.00      29.17
 73.07     763.00      27.62
 73.17     731.00      27.04
 73.27     753.83      27.46
 73.37     655.00      25.59
 73.47     661.00      25.71
 73.57     594.90      24.39
 73.67     638.11      25.26
 73.77     592.00      24.33
 73.87     602.00      24.54
 73.97     560.79      23.68
 74.07     601.63      24.53
 74.17     627.00      25.04
 74.27     636.00      25.22
 74.37     611.00      24.72
 74.47     598.94      24.47
 74.57     662.00      25.73
 74.67     624.00      24.98
 74.77     588.00      24.25
 74.87     533.20      23.09
 74.97     600.55      24.51
 75.07     603.00      24.56
 75.17     593.00      24.35
 75.27     560.00      23.66
 75.37     566.00      23.79
 75.47     591.00      24.31
 75.57     559.34      23.65
 75.67     598.16      24.46
 75.77     590.98      24.31
 75.87     591.00      24.31
 75.97     628.00      25.06
 76.07     606.47      24.63
 76.17     653.00      25.55
 76.27     644.82      25.39
 76.37     661.00      25.71
 76.47     769.00      27.73
 76.57     688.57      26.24
 76.67     675.00      25.98
 76.77     696.37      26.39
 76.87     635.95      25.22
 76.97     629.00      25.08
 77.07     609.52      24.69
 77.17     572.84      23.93
 77.27     576.90      24.02
 77.37     482.00      21.95
 77.47     507.00      22.52
 77.57     552.73      23.51
 77.67     535.00      23.13
 77.77     557.05      23.60
 77.87     571.33      23.90
 77.97     495.14      22.25
 78.07     525.57      22.93
 78.17     528.32      22.99
 78.27     521.00      22.83
 78.37     524.54      22.90
 78.47     528.00      22.98
 78.57     506.25      22.50
 78.67     469.00      21.66
 78.77     494.00      22.23
 78.87     503.00      22.43
 78.97     497.00      22.29
 79.07     515.13      22.70
 79.17     572.30      23.92
 79.27     535.00      23.13
 79.37     513.00      22.65
 79.47     539.00      23.22
 79.57     529.00      23.00
 79.67     498.00      22.32
 79.77     505.00      22.47
 79.87     583.70      24.16
 79.97     549.99      23.45
 80.07     559.00      23.64
 80.17     583.00      24.15
 80.27     598.86      24.47
 80.37     560.00      23.66
 80.47     590.00      24.29
 80.57     610.27      24.70
 80.67     594.00      24.37
 80.77     662.62      25.74
 80.87     685.00      26.17
 80.97     680.00      26.08
 81.07     721.00      26.85
 81.17     743.00      27.26
 81.27     704.79      26.55
 81.37     785.34      28.02
 81.47     731.00      27.04
 81.57     754.62      27.47
 81.67     743.78      27.27
 81.77     740.00      27.20
 81.87     721.00      26.85
 81.97     701.00      26.48
 82.07     696.55      26.39
 82.17     668.00      25.85
 82.27     663.00      25.75
 82.37     636.00      25.22
 82.47     598.00      24.45
 82.57     566.54      23.80
 82.67     574.62      23.97
 82.77     545.00      23.35
 82.87     570.00      23.87
 82.97     572.00      23.92
 83.07     595.00      24.39
 83.17     587.53      24.24
 83.27     536.00      23.15
 83.37     501.00      22.38
 83.47     519.59      22.79
 83.57     554.00      23.54
 83.67     546.00      23.37
 83.77     572.00      23.92
 83.87     546.00      23.37
 83.97     576.00      24.00
 84.07     545.34      23.35
 84.17     565.00      23.77
 84.27     584.00      24.17
 84.37     611.78      24.73
 84.47     605.76      24.61
 84.57     581.00      24.10
 84.67     573.62      23.95
 84.77     571.39      23.90
 84.87     567.00      23.81
 84.97     548.00      23.41
 85.07     538.33      23.20
 85.17     524.02      22.89
 85.27     551.00      23.47
 85.37     536.00      23.15
 85.47     541.49      23.27
 85.57     502.73      22.42
 85.67     528.00      22.98
 85.77     519.14      22.78
 85.87     510.52      22.59
 85.97     500.00      22.36
 86.07     512.00      22.63
 86.17     518.37      22.77
 86.27     506.06      22.50
 86.37     567.12      23.81
 86.47     541.00      23.26
 86.57     598.00      24.45
 86.67     554.74      23.55
 86.77     557.91      23.62
 86.87     539.47      23.23
 86.97     608.00      24.66
 87.07     617.00      24.84
 87.17     635.44      25.21
 87.27     665.77      25.80
 87.37     657.95      25.65
 87.47     624.72      24.99
 87.57     668.00      25.85
 87.67     652.00      25.53
 87.77     622.00      24.94
 87.87     624.00      24.98
 87.97     633.00      25.16
 88.07     640.00      25.30
 88.17     603.00      24.56
 88.27     584.00      24.17
 88.37     558.00      23.62
 88.47     596.23      24.42
 88.57     582.00      24.12
 88.67     571.00      23.90
 88.77     543.52      23.31
 88.87     625.00      25.00
 88.97     574.71      23.97
 89.07     611.19      24.72
 89.17     609.56      24.69
 89.27     589.00      24.27
 89.37     583.37      24.15
 89.47     604.21      24.58
 89.57     593.00      24.35
 89.67     581.74      24.12
 89.77     571.00      23.90
 89.87     599.43      24.48
 89.97     557.11      23.60
 90.07     541.12      23.26
 90.17     530.00      23.02
 90.27     577.44      24.03
 90.37     549.00      23.43
 90.47     516.00      22.72
 90.57     511.00      22.61
 90.67     565.23      23.77
 90.77     503.00      22.43
 90.87     495.00      22.25
 90.97     556.81      23.60
 91.07     524.71      22.91
 91.17     524.00      22.89
 91.27     511.00      22.61
 91.37     496.31      22.28
 91.47     508.00      22.54
 91.57     532.00      23.07
 91.67     514.13      22.67
 91.77     555.28      23.56
 91.87     504.82      22.47
 91.97     556.00      23.58
 92.07     606.96      24.64
 92.17     545.00      23.35
 92.27     619.00      24.88
 92.37     609.00      24.68
 92.47     636.00      25.22
 92.57     610.00      24.70
 92.67     638.00      25.26
 92.77     737.00      27.15
 92.87     724.79      26.92
 92.97     767.00      27.69
 93.07     720.38      26.84
 93.17     786.81      28.05
 93.27     778.00      27.89
 93.37     840.85      29.00
 93.47     840.00      28.98
 93.57     804.70      28.37
 93.67     841.00      29.00
 93.77     814.98      28.55
 93.87     892.00      29.87
 93.97     848.00      29.12
 94.07     845.00      29.07
 94.17     820.33      28.64
 94.27     924.00      30.40
 94.37     879.00      29.65
 94.47     896.00      29.93
 94.57     875.00      29.58
 94.67     944.00      30.72
 94.77     827.49      28.77
 94.87     911.00      30.18
 94.97     885.62      29.76
 95.07     947.00      30.77
 95.17     837.13      28.93
 95.27     801.00      28.30
 95.37     811.00      28.48
 95.47     818.00      28.60
 95.57     770.75      27.76
 95.67     727.00      26.96
 95.77     714.00      26.72
 95.87     735.00      27.11
 95.97     723.60      26.90
 96.07     734.00      27.09
 96.17     728.72      26.99
 96.27     689.54      26.26
 96.37     766.00      27.68
 96.47     834.00      28.88
 96.57     909.42      30.16
 96.67     920.00      30.33
 96.77     983.00      31.35
 96.87    1066.00      32.65
 96.97    1091.00      33.03
 97.07    1199.00      34.63
 97.17    1272.00      35.67
 97.27    1388.00      37.26
 97.37    1414.00      37.60
 97.47    1411.00      37.56
 97.57    1469.00      38.33
 97.67    1497.00      38.69
 97.77    1413.00      37.59
 97.87    1401.00      37.43
 97.97    1297.97      36.03
 98.07    1180.00      34.35
 98.17    1151.00      33.93
 98.27    1154.00      33.97
 98.37     988.40      31.44
 98.47     973.46      31.20
 98.57     959.00      30.97
 98.67     846.00      29.09
 98.77     861.00      29.34
 98.87     778.43      27.90
 98.97     810.00      28.46
 99.07     807.10      28.41
 99.17     847.00      29.10
 99.27     890.15      29.84
 99.37     963.00      31.03
 99.47     973.00      31.19
 99.57    1165.00      34.13
 99.67    1223.96      34.99
 99.77    1314.00      36.25
 99.87    1430.00      37.82
 99.97    1512.00      38.88
100.07    1624.64      40.31
100.17    1717.00      41.44
100.27    1773.00      42.11
100.37    1982.00      44.52
100.47    2005.99      44.79
100.57    2110.00      45.93
100.67    2130.00      46.15
100.77    1989.00      44.60
100.87    2017.00      44.91
100.97    2025.00      45.00
101.07    1927.00      43.90
101.17    1911.00      43.71
101.27    1743.00      41.75
101.37    1646.88      40.58
101.47    1649.00      40.61
101.57    1558.83      39.48
101.67    1373.00      37.05
101.77    1383.20      37.19
101.87    1264.00      35.55
101.97    1229.00      35.06
102.07    1202.00      34.67
102.17    1159.00      34.04
102.27    1157.00      34.01
102.37    1160.13      34.06
102.47    1052.00      32.43
102.57    1090.00      33.02
102.67    1045.00      32.33
102.77     995.00      31.54
102.87    1027.96      32.06
102.97     891.00      29.85
103.07     922.40      30.37
103.17     879.77      29.66
103.27     805.00      28.37
103.37     878.00      29.63
103.47     821.00      28.65
103.57     747.00      27.33
103.67     717.24      26.78
103.77     658.00      25.65
103.87     606.44      24.63
103.97     611.00      24.72
104.07     604.00      24.58
104.17     574.00      23.96
104.27     548.00      23.41
104.37     558.00      23.62
104.47     535.68      23.14
104.57     570.00      23.87
104.67     571.00      23.90
104.77     554.00      23.54
104.87     535.00      23.13
104.97     544.00      23.32
105.07     530.39      23.03
105.17     496.88      22.29
105.27     578.00      24.04
105.37     524.00      22.89
105.47     537.21      23.18
105.57     523.19      22.87
105.67     554.00      23.54
105.77     590.00      24.29
105.87     552.16      23.50
105.97     546.00      23.37
106.07     589.00      24.27
106.17     591.00      24.31
106.27     549.00      23.43
106.37     658.00      25.65
106.47     612.98      24.76
106.57     645.00      25.40
106.67     648.65      25.47
106.77     620.84      24.92
106.87     688.79      26.24
106.97     725.91      26.94
107.07     684.00      26.15
107.17     659.00      25.67
107.27     696.00      26.38
107.37     722.37      26.88
107.47     744.87      27.29
107.57     711.00      26.66
107.67     729.53      27.01
107.77     694.41      26.35
107.87     650.00      25.50
107.97     645.00      25.40
108.07     700.00      26.46
108.17     660.00      25.69
108.27     707.77      26.60
108.37     671.00      25.90
108.47     648.00      25.46
108.57     715.88      26.76
108.67     700.00      26.46
108.77     673.12      25.94
108.87     660.06      25.69
108.97     665.00      25.79
109.07     726.00      26.94
109.17     674.00      25.96
109.27     695.08      26.36
109.37     643.00      25.36
109.47     661.00      25.71
109.57     657.00      25.63
109.67     577.00      24.02
109.77     616.00      24.82
109.87     620.00      24.90
109.97     624.00      24.98
110.07     558.88      23.64
110.17     593.31      24.36
110.27     526.39      22.94
110.37     561.00      23.69
110.47     571.00      23.90
110.57     552.00      23.49
110.67     591.00      24.31
110.77     566.58      23.80
110.87     570.15      23.88
110.97     570.97      23.89
111.07     525.00      22.91
111.17     554.48      23.55
111.27     569.00      23.85
111.37     536.00      23.15
111.47     566.00      23.79
111.57     510.09      22.59
111.67     561.00      23.69
111.77     574.00      23.96
111.87     600.50      24.51
111.97     594.39      24.38
112.07     577.00      24.02
112.17     575.00      23.98
112.27     590.62      24.30
112.37     560.04      23.67
112.47     562.42      23.72
112.57     559.00      23.64
112.67     569.00      23.85
112.77     600.10      24.50
112.87     647.00      25.44
112.97     630.50      25.11
113.07     635.23      25.20
113.17     655.00      25.59
113.27     680.77      26.09
113.37     727.00      26.96
113.47     746.00      27.31
113.57     759.00      27.55
113.67     827.36      28.76
113.77     840.00      28.98
113.87     883.00      29.72
113.97     965.00      31.06
114.07     971.00      31.16
114.17    1111.00      33.33
114.27    1095.77      33.10
114.37    1213.51      34.84
114.47    1253.00      35.40
114.57    1400.00      37.42
114.67    1500.00      38.73
114.77    1719.08      41.46
114.87    1911.00      43.71
114.97    2120.00      46.04
115.07    2355.00      48.53
115.17    2607.00      51.06
115.27    2799.17      52.91
115.37    3077.86      55.48
115.47    3441.00      58.66
115.57    3821.00      61.81
115.67    4182.00      64.67
115.77    4441.00      66.64
115.87    4816.00      69.40
115.97    5242.59      72.41
116.07    5625.04      75.00
116.17    5965.00      77.23
116.27    6464.00      80.40
116.37    6593.00      81.20
116.47    6570.29      81.06
116.57    6901.00      83.07
116.67    6998.00      83.65
116.77    7039.00      83.90
116.87    6838.00      82.69
116.97    6492.00      80.57
117.07    6433.00      80.21
117.17    6116.60      78.21
117.27    5652.34      75.18
117.37    5447.64      73.81
117.47    4993.46      70.66
117.57    4627.00      68.02
117.67    4215.00      64.92
117.77    3867.00      62.19
117.87    3563.00      59.69
117.97    3219.00      56.74
118.07    2887.36      53.73
118.17    2550.00      50.50
118.27    2260.28      47.54
118.37    2020.76      44.95
118.47    1712.00      41.38
118.57    1611.00      40.14
118.67    1485.68      38.54
118.77    1273.00      35.68
118.87    1133.00      33.66
118.97    1064.00      32.62
119.07     993.00      31.51
119.17     916.00      30.27
119.27     846.00      29.09
119.37     823.47      28.70
119.47     719.02      26.81
119.57     760.60      27.58
119.67     707.06      26.59
119.77     674.00      25.96
119.87     670.22      25.89
119.97     642.00      25.34
120.07     625.48      25.01
120.17     624.00      24.98
120.27     572.88      23.93
120.37     565.00      23.77
120.47     574.00      23.96
120.57     558.00      23.62
120.67     618.89      24.88
120.77     592.00      24.33
120.87     572.00      23.92
120.97     577.00      24.02
121.07     605.63      24.61
121.17     582.46      24.13
121.27     618.01      24.86
121.37     593.00      24.35
121.47     619.63      24.89
121.57     576.00      24.00
121.67     551.00      23.47
121.77     622.00      24.94
121.87     611.00      24.72
121.97     628.00      25.06
122.07     627.00      25.04
122.17     656.21      25.62
122.27     610.00      24.70
122.37     586.44      24.22
122.47     651.00      25.51
122.57     656.00      25.61
122.67     680.00      26.08
122.77     617.00      24.84
122.87     644.00      25.38
122.97     699.00      26.44
123.07     648.61      25.47
123.17     671.00      25.90
123.27     647.00      25.44
123.37     679.00      26.06
123.47     644.00      25.38
123.57     640.00      25.30
123.67     636.00      25.22
123.77     645.45      25.41
123.87     640.00      25.30
123.97     591.00      24.31
124.07     582.72      24.14
124.17     586.00      24.21
124.27     600.00      24.49
124.37     589.00      24.27
124.47     623.68      24.97
124.57     629.00      25.08
124.67     579.00      24.06
124.77     598.00      24.45
124.87     562.00      23.71
124.97     584.94      24.19
