  9.97     583.00      24.15
 10.07     524.74      22.91
 10.17     624.00      24.98
 10.27     597.00      24.43
 10.37     590.00      24.29
 10.47     652.00      25.53
 10.57     562.00      23.71
 10.67     602.00      24.54
 10.77     550.00      23.45
 10.87     584.00      24.17
 10.97     555.00      23.56
 11.07     565.00      23.77
 11.17     529.00      23.00
 11.27     552.00      23.49
 11.37     596.00      24.41
 11.47     588.48      24.26
 11.57     570.00      23.87
 11.67     565.00      23.77
 11.77     596.00      24.41
 11.87     630.00      25.10
 11.97     568.57      23.84
 12.07     645.00      25.40
 12.17     690.00      26.27
 12.27     706.91      26.59
 12.37     638.81      25.27
 12.47     647.27      25.44
 12.57     547.00      23.39
 12.67     603.00      24.56
 12.77     551.00      23.47
 12.87     597.86      24.45
 12.97     533.90      23.11
 13.07     541.00      23.26
 13.17     577.10      24.02
 13.27     537.86      23.19
 13.37     537.00      23.17
 13.47     515.00      22.69
 13.57     528.00      22.98
 13.67     597.13      24.44
 13.77     571.00      23.90
 13.87     607.00      24.64
 13.97     544.00      23.32
 14.07     526.00      22.93
 14.17     576.00      24.00
 14.27     584.99      24.19
 14.37     562.00      23.71
 14.47     517.00      22.74
 14.57     544.00      23.32
 14.67     519.37      22.79
 14.77     527.00      22.96
 14.87     586.00      24.21
 14.97     512.00      22.63
 15.07     582.08      24.13
 15.17     557.00      23.60
 15.27     520.00      22.80
 15.37     548.00      23.41
 15.47     540.00      23.24
 15.57     552.44      23.50
 15.67     573.00      23.94
 15.77     529.34      23.01
 15.87     549.00      23.43
 15.97     571.00      23.90
 16.07     556.58      23.59
 16.17     517.57      22.75
 16.27     559.00      23.64
 16.37     534.00      23.11
 16.47     592.78      24.35
 16.57     568.73      23.85
 16.67     593.84      24.37
 16.77     516.00      22.72
 16.87     596.00      24.41
 16.97     560.04      23.67
 17.07     506.00      22.49
 17.17     568.00      23.83
 17.27     577.50      24.03
 17.37     571.00      23.90
 17.47     593.42      24.36
 17.57     543.00      23.30
 17.67     525.30      22.92
 17.77     596.92      24.43
 17.87     529.00      23.00
 17.97     559.00      23.64
 18.07     540.44      23.25
 18.17     532.00      23.07
 18.27     602.57      24.55
 18.37     572.00      23.92
 18.47     512.00      22.63
 18.57     588.91      24.27
 18.67     566.00      23.79
 18.77     580.79      24.10
 18.87     511.00      22.61
 18.97     534.07      23.11
 19.07     554.00      23.54
 19.17     571.27      23.90
 19.27     569.00      23.85
 19.37     546.62      23.38
 19.47     524.04      22.89
 19.57     526.81      22.95
 19.67     522.00      22.85
 19.77     555.83      23.58
 19.87     544.73      23.34
 19.97     545.00      23.35
 20.07     546.25      23.37
 20.17     586.00      24.21
 20.27     582.53      24.14
 20.37     579.00      24.06
 20.47     563.00      23.73
 20.57     560.66      23.68
 20.67     582.80      24.14
 20.77     547.00      23.39
 20.87     521.63      22.84
 20.97     595.12      24.40
 21.07     561.00      23.69
 21.17     581.00      24.10
 21.27     530.00      23.02
 21.37     557.00      23.60
 21.47     564.00      23.75
 21.57     545.00      23.35
 21.67     551.67      23.49
 21.77     540.00      23.24
 21.87     519.00      22.78
 21.97     537.00      23.17
 22.07     516.68      22.73
 22.17     507.74      22.53
 22.27     549.36      23.44
 22.37     544.00      23.32
 22.47     506.00      22.49
 22.57     506.81      22.51
 22.67     541.00      23.26
 22.77     522.00      22.85
 22.87     563.05      23.73
 22.97     509.00      22.56
 23.07     595.00      24.39
 23.17     535.00      23.13
 23.27     544.44      23.33
 23.37     566.00      23.79
 23.47     538.00      23.19
 23.57     532.00      23.07
 23.67     545.44      23.35
 23.77     560.00      23.66
 23.87     557.69      23.62
 23.97     521.00      22.83
 24.07     570.00      23.87
 24.17     586.64      24.22
 24.27     605.00      24.60
 24.37     580.00      24.08
 24.47     590.00      24.29
 24.57     596.11      24.42
 24.67     610.27      24.70
 24.77     618.00      24.86
 24.87     639.00      25.28
 24.97     599.00      24.47
 25.07     603.00      24.56
 25.17     598.00      24.45
 25.27     608.10      24.66
 25.37     613.00      24.76
 25.47     561.00      23.69
 25.57     570.00      23.87
 25.67     600.00      24.49
 25.77     585.00      24.19
 25.87     559.00      23.64
 25.97     518.60      22.77
 26.07     546.30      23.37
 26.17     531.26      23.05
 26.27     505.49      22.48
 26.37     565.00      23.77
 26.47     515.52      22.70
 26.57     572.62      23.93
 26.67     521.27      22.83
 26.77     546.00      23.37
 26.87     527.68      22.97
 26.97     524.37      22.90
 27.07     607.00      24.64
 27.17     529.00      23.00
 27.27     586.00      24.21
 27.37     598.00      24.45
 27.47     522.74      22.86
 27.57     569.00      23.85
 27.67     547.69      23.40
 27.77     521.22      22.83
 27.87     576.00      24.00
 27.97     669.50      25.87
 28.07     706.85      26.59
 28.17     893.00      29.88
 28.27     880.29      29.67
 28.37     912.62      30.21
 28.47     811.00      28.48
 28.57     790.00      28.11
 28.67     733.00      27.07
 28.77     761.64      27.60
 28.87     743.00      27.26
 28.97     832.00      28.84
 29.07     788.51      28.08
 29.17     717.22      26.78
 29.27     709.00      26.63
 29.37     666.00      25.81
 29.47     604.09      24.58
 29.57     565.36      23.78
 29.67     586.65      24.22
 29.77     626.00      25.02
 29.87     557.83      23.62
 29.97     504.12      22.45
 30.07     597.00      24.43
 30.17     530.00      23.02
 30.27     504.46      22.46
 30.37     565.12      23.77
 30.47     559.00      23.64
 30.57     592.00      24.33
 30.67     558.00      23.62
 30.77     646.00      25.42
 30.87     557.32      23.61
 30.97     584.96      24.19
 31.07     651.00      25.51
 31.17     629.00      25.08
 31.27     610.00      24.70
 31.37     573.00      23.94
 31.47     532.00      23.07
 31.57     602.00      24.54
 31.67     595.00      24.39
 31.77     572.88      23.93
 31.87     573.00      23.94
 31.97     500.02      22.36
 32.07     558.00      23.62
 32.17     531.00      23.04
 32.27     547.00      23.39
 32.37     579.00      24.06
 32.47     558.00      23.62
 32.57     556.00      23.58
 32.67     505.00      22.47
 32.77     526.92      22.95
 32.87     577.00      24.02
 32.97     567.00      23.81
 33.07     563.03      23.73
 33.17     550.00      23.45
 33.27     541.59      23.27
 33.37     594.00      24.37
 33.47     575.90      24.00
 33.57     564.00      23.75
 33.67     578.65      24.06
 33.77     700.00      26.46
 33.87     785.00      28.02
 33.97     933.43      30.55
 34.07     950.00      30.82
 34.17    1025.00      32.02
 34.27     967.00      31.10
 34.37     836.00      28.91
 34.47     689.00      26.25
 34.57     641.00      25.32
 34.67     594.00      24.37
 34.77     557.56      23.61
 34.87     566.00      23.79
 34.97     565.00      23.77
 35.07     508.00      22.54
 35.17     485.00      22.02
 35.27     541.29      23.27
 35.37     513.56      22.66
 35.47     558.29      23.63
 35.57     504.00      22.45
 35.67     477.00      21.84
 35.77     517.00      22.74
 35.87     513.00      22.65
 35.97     490.19      22.14
 36.07     491.00      22.16
 36.17     475.70      21.81
 36.27     503.63      22.44
 36.37     502.00      22.41
 36.47     514.00      22.67
 36.57     513.00      22.65
 36.67     514.01      22.67
 36.77     505.51      22.48
 36.87     474.00      21.77
 36.97     514.74      22.69
 37.07     448.00      21.17
 37.17     491.00      22.16
 37.27     464.00      21.54
 37.37     475.00      21.79
 37.47     542.00      23.28
 37.57     489.00      22.11
 37.67     547.00      23.39
 37.77     532.02      23.07
 37.87     546.00      23.37
 37.97     502.00      22.41
 38.07     472.84      21.74
 38.17     501.00      22.38
 38.27     516.00      22.72
 38.37     498.06      22.32
 38.47     463.58      21.53
 38.57     528.00      22.98
 38.67     457.00      21.38
 38.77     481.00      21.93
 38.87     507.00      22.52
 38.97     450.00      21.21
 39.07     493.00      22.20
 39.17     470.00      21.68
 39.27     482.00      21.95
 39.37     499.00      22.34
 39.47     467.66      21.63
 39.57     496.00      22.27
 39.67     448.00      21.17
 39.77     501.00      22.38
 39.87     466.06      21.59
 39.97     473.00      21.75
 40.07     465.44      21.57
 40.17     488.00      22.09
 40.27     442.00      21.02
 40.37     475.00      21.79
 40.47     491.00      22.16
 40.57     506.00      22.49
 40.67     466.07      21.59
 40.77     478.00      21.86
 40.87     460.49      21.46
 40.97     492.04      22.18
 41.07     456.00      21.35
 41.17     501.96      22.40
 41.27     476.94      21.84
 41.37     512.91      22.65
 41.47     485.41      22.03
 41.57     485.00      22.02
 41.67     483.00      21.98
 41.77     520.54      22.82
 41.87     470.00      21.68
 41.97     484.00      22.00
 42.07     461.00      21.47
 42.17     470.00      21.68
 42.27     543.00      23.30
 42.37     594.00      24.37
 42.47     545.00      23.35
 42.57     540.00      23.24
 42.67     585.00      24.19
 42.77     581.00      24.10
 42.87     573.00      23.94
 42.97     592.00      24.33
 43.07     534.00      23.11
 43.17     552.67      23.51
 43.27     495.00      22.25
 43.37     461.00      21.47
 43.47     527.72      22.97
 43.57     494.00      22.23
 43.67     511.00      22.61
 43.77     472.71      21.74
 43.87     486.29      22.05
 43.97     506.00      22.49
 44.07     500.56      22.37
 44.17     485.00      22.02
 44.27     451.41      21.25
 44.37     487.00      22.07
 44.47     533.29      23.09
 44.57     476.82      21.84
 44.67     503.00      22.43
 44.77     505.00      22.47
 44.87     459.68      21.44
 44.97     463.00      21.52
 45.07     491.00      22.16
 45.17     495.00      22.25
 45.27     510.00      22.58
 45.37     519.00      22.78
 45.47     507.00      22.52
 45.57     484.00      22.00
 45.67     543.00      23.30
 45.77     446.08      21.12
 45.87     490.00      22.14
 45.97     501.60      22.40
 46.07     456.10      21.36
 46.17     496.00      22.27
 46.27     513.29      22.66
 46.37     510.00      22.58
 46.47     531.38      23.05
 46.57     453.18      21.29
 46.67     499.00      22.34
 46.77     460.82      21.47
 46.87     507.00      22.52
 46.97     456.80      21.37
 47.07     481.00      21.93
 47.17     531.66      23.06
 47.27     466.32      21.59
 47.37     550.12      23.45
 47.47     539.09      23.22
 47.57     545.52      23.36
 47.67     560.82      23.68
 47.77     562.00      23.71
 47.87     587.00      24.23
 47.97     611.00      24.72
 48.07     586.00      24.21
 48.17     553.26      23.52
 48.27     554.00      23.54
 48.37     538.00      23.19
 48.47     560.00      23.66
 48.57     492.00      22.18
 48.67     547.25      23.39
 48.77     493.42      22.21
 48.87     552.00      23.49
 48.97     568.53      23.84
 49.07     539.00      23.22
 49.17     540.00      23.24
 49.27     602.07      24.54
 49.37     541.88      23.28
 49.47     572.80      23.93
 49.57     657.00      25.63
 49.67     711.00      26.66
 49.77     870.87      29.51
 49.87    1139.00      33.75
 49.97    1452.00      38.11
 50.07    1719.00      41.46
 50.17    2127.00      46.12
 50.27    2232.00      47.24
 50.37    2328.00      48.25
 50.47    2140.00      46.26
 50.57    1836.85      42.86
 50.67    1392.00      37.31
 50.77    1085.00      32.94
 50.87     880.84      29.68
 50.97     787.00      28.05
 51.07     736.00      27.13
 51.17     645.00      25.40
 51.27     640.00      25.30
 51.37     626.00      25.02
 51.47     581.00      24.10
 51.57     601.00      24.52
 51.67     600.00      24.49
 51.77     544.92      23.34
 51.87     522.09      22.85
 51.97     586.00      24.21
 52.07     495.85      22.27
 52.17     573.00      23.94
 52.27     564.67      23.76
 52.37     573.00      23.94
 52.47     528.00      22.98
 52.57     562.89      23.73
 52.67     584.70      24.18
 52.77     590.00      24.29
 52.87     546.00      23.37
 52.97     619.62      24.89
 53.07     715.89      26.76
 53.17     797.95      28.25
 53.27     931.00      30.51
 53.37    1036.46      32.19
 53.47    1132.24      33.65
 53.57    1161.00      34.07
 53.67    1241.00      35.23
 53.77    1049.00      32.39
 53.87    1014.78      31.86
 53.97     892.86      29.88
 54.07     835.43      28.90
 54.17     696.32      26.39
 54.27     722.00      26.87
 54.37     590.03      24.29
 54.47     625.00      25.00
 54.57     571.00      23.90
 54.67     549.89      23.45
 54.77     558.00      23.62
 54.87     566.00      23.79
 54.97     532.85      23.08
 55.07     563.00      23.73
 55.17     590.00      24.29
 55.27     574.00      23.96
 55.37     561.90      23.70
 55.47     556.35      23.59
 55.57     551.00      23.47
 55.67     571.00      23.90
 55.77     530.00      23.02
 55.87     586.00      24.21
 55.97     687.00      26.21
 56.07     682.00      26.12
 56.17     707.00      26.59
 56.27     812.91      28.51
 56.37     967.00      31.10
 56.47    1188.82      34.48
 56.57    1454.00      38.13
 56.67    1704.29      41.28
 56.77    2110.05      45.94
 56.87    2384.67      48.83
 56.97    2569.14      50.69
 57.07    2527.00      50.27
 57.17    2282.84      47.78
 57.27    2111.09      45.95
 57.37    1716.00      41.42
 57.47    1433.70      37.86
 57.57    1126.00      33.56
 57.67     949.04      30.81
 57.77     839.00      28.97
 57.87     732.81      27.07
 57.97     739.00      27.18
 58.07     727.95      26.98
 58.17     760.00      27.57
 58.27     734.00      27.09
 58.37     726.00      26.94
 58.47     775.00      27.84
 58.57     870.00      29.50
 58.67     885.00      29.75
 58.77    1032.18      32.13
 58.87    1124.00      33.53
 58.97    1164.97      34.13
 59.07    1309.00      36.18
 59.17    1302.00      36.08
 59.27    1363.00      36.92
 59.37    1291.00      35.93
 59.47    1277.00      35.74
 59.57    1282.00      35.81
 59.67    1161.25      34.08
 59.77    1143.68      33.82
 59.87    1148.00      33.88
 59.97    1256.00      35.44
 60.07    1327.00      36.43
 60.17    1461.66      38.23
 60.27    1530.00      39.12
 60.37    1536.00      39.19
 60.47    1547.44      39.34
 60.57    1418.19      37.66
 60.67    1327.71      36.44
 60.77    1053.63      32.46
 60.87     991.00      31.48
 60.97     881.36      29.69
 61.07     794.00      28.18
 61.17     689.98      26.27
 61.27     657.26      25.64
 61.37     673.00      25.94
 61.47     670.00      25.88
 61.57     693.00      26.32
 61.67     745.97      27.31
 61.77     811.14      28.48
 61.87     953.00      30.87
 61.97    1007.00      31.73
 62.07    1164.00      34.12
 62.17    1258.00      35.47
 62.27    1361.16      36.89
 62.37    1314.23      36.25
 62.47    1324.91      36.40
 62.57    1151.11      33.93
 62.67     977.00      31.26
 62.77     921.00      30.35
 62.87     755.00      27.48
 62.97     743.76      27.27
 63.07     681.00      26.10
 63.17     592.83      24.35
 63.27     586.00      24.21
 63.37     576.00      24.00
 63.47     580.00      24.08
 63.57     601.90      24.53
 63.67     585.00      24.19
 63.77     594.00      24.37
 63.87     589.00      24.27
 63.97     615.00      24.80
 64.07     628.77      25.08
 64.17     689.00      26.25
 64.27     780.57      27.94
 64.37     787.00      28.05
 64.47     890.00      29.83
 64.57     896.32      29.94
 64.67     972.00      31.18
 64.77    1032.66      32.13
 64.87    1007.00      31.73
 64.97     943.66      30.72
 65.07     933.00      30.55
 65.17     815.00      28.55
 65.27     837.00      28.93
 65.37     728.81      27.00
 65.47     721.00      26.85
 65.57     680.00      26.08
 65.67     638.00      25.26
 65.77     626.00      25.02
 65.87     611.44      24.73
 65.97     593.31      24.36
 66.07     622.57      24.95
 66.17     580.41      24.09
 66.27     575.00      23.98
 66.37     512.00      22.63
 66.47     604.00      24.58
 66.57     565.00      23.77
 66.67     545.94      23.37
 66.77     542.06      23.28
 66.87     601.09      24.52
 66.97     562.62      23.72
 67.07     593.00      24.35
 67.17     701.00      26.48
 67.27     637.00      25.24
 67.37     787.00      28.05
 67.47     848.00      29.12
 67.57    1014.00      31.84
 67.67    1179.00      34.34
 67.77    1428.00      37.79
 67.87    1671.00      40.88
 67.97    1962.00      44.29
 68.07    2155.00      46.42
 68.17    2354.00      48.52
 68.27    2481.00      49.81
 68.37    2269.13      47.64
 68.47    2262.00      47.56
 68.57    1905.07      43.65
 68.67    1700.00      41.23
 68.77    1369.11      37.00
 68.87    1222.54      34.96
 68.97    1046.00      32.34
 69.07     827.00      28.76
 69.17     791.00      28.12
 69.27     733.00      27.07
 69.37     695.00      26.36
 69.47     601.30      24.52
 69.57     625.65      25.01
 69.67     629.12      25.08
 69.77     589.00      24.27
 69.87     570.00      23.87
 69.97     554.00      23.54
 70.07     557.00      23.60
 70.17     596.00      24.41
 70.27     529.00      23.00
 70.37     598.20      24.46
 70.47     570.00      23.87
 70.57     589.00      24.27
 70.67     578.00      24.04
 70.77     588.00      24.25
 70.87     630.81      25.12
 70.97     636.59      25.23
 71.07     617.00      24.84
 71.17     700.09      26.46
 71.27     692.43      26.31
 71.37     787.43      28.06
 71.47     950.44      30.83
 71.57    1006.00      31.72
 71.67    1170.44      34.21
 71.77    1386.00      37.23
 71.87    1539.14      39.23
 71.97    1749.00      41.82
 72.07    1745.00      41.77
 72.17    1867.00      43.21
 72.27    1891.57      43.49
 72.37    1850.88      43.02
 72.47    1689.00      41.10
 72.57    1527.00      39.08
 72.67    1411.49      37.57
 72.77    1203.17      34.69
 72.87    1046.00      32.34
 72.97     994.25      31.53
 73.07     828.00      28.77
 73.17     823.00      28.69
 73.27     733.54      27.08
 73.37     716.00      26.76
 73.47     653.00      25.55
 73.57     640.00      25.30
 73.67     597.00      24.43
 73.77     591.48      24.32
 73.87     601.46      24.52
 73.97     543.00      23.30
 74.07     599.00      24.47
 74.17     569.03      23.85
 74.27     556.00      23.58
 74.37     586.00      24.21
 74.47     578.00      24.04
 74.57     631.00      25.12
 74.67     586.00      24.21
 74.77     573.03      23.94
 74.87     620.00      24.90
 74.97     564.88      23.77
 75.07     665.00      25.79
 75.17     587.00      24.23
 75.27     572.00      23.92
 75.37     535.12      23.13
 75.47     559.37      23.65
 75.57     561.01      23.69
 75.67     504.00      22.45
 75.77     561.00      23.69
 75.87     554.55      23.55
 75.97     591.06      24.31
 76.07     604.00      24.58
 76.17     590.00      24.29
 76.27     633.88      25.18
 76.37     684.79      26.17
 76.47     679.00      26.06
 76.57     670.00      25.88
 76.67     639.24      25.28
 76.77     683.12      26.14
 76.87     709.00      26.63
 76.97     715.00      26.74
 77.07     688.70      26.24
 77.17     597.12      24.44
 77.27     612.00      24.74
 77.37     581.00      24.10
 77.47     565.00      23.77
 77.57     593.08      24.35
 77.67     493.00      22.20
 77.77     531.00      23.04
 77.87     509.00      22.56
 77.97     537.00      23.17
 78.07     501.00      22.38
 78.17     527.00      22.96
 78.27     515.08      22.70
 78.37     513.00      22.65
 78.47     517.00      22.74
 78.57     505.00      22.47
 78.67     502.00      22.41
 78.77     507.00      22.52
 78.87     524.32      22.90
 78.97     539.00      23.22
 79.07     491.00      22.16
 79.17     495.00      22.25
 79.27     515.00      22.69
 79.37     467.00      21.61
 79.47     473.64      21.76
 79.57     544.00      23.32
 79.67     551.51      23.48
 79.77     506.00      22.49
 79.87     509.52      22.57
 79.97     528.00      22.98
 80.07     506.81      22.51
 80.17     529.00      23.00
 80.27     555.28      23.56
 80.37     536.00      23.15
 80.47     551.00      23.47
 80.57     589.00      24.27
 80.67     547.00      23.39
 80.77     568.31      23.84
 80.87     621.00      24.92
 80.97     656.41      25.62
 81.07     689.79      26.26
 81.17     610.00      24.70
 81.27     758.00      27.53
 81.37     751.00      27.40
 81.47     724.00      26.91
 81.57     724.00      26.91
 81.67     783.52      27.99
 81.77     672.00      25.92
 81.87     750.00      27.39
 81.97     731.86      27.05
 82.07     653.47      25.56
 82.17     678.00      26.04
 82.27     623.18      24.96
 82.37     633.00      25.16
 82.47     660.32      25.70
 82.57     613.00      24.76
 82.67     601.00      24.52
 82.77     592.00      24.33
 82.87     516.00      22.72
 82.97     573.00      23.94
 83.07     546.00      23.37
 83.17     551.00      23.47
 83.27     542.00      23.28
 83.37     559.00      23.64
 83.47     502.00      22.41
 83.57     520.71      22.82
 83.67     534.00      23.11
 83.77     503.00      22.43
 83.87     565.00      23.77
 83.97     594.16      24.38
 84.07     590.00      24.29
 84.17     540.00      23.24
 84.27     524.46      22.90
 84.37     514.09      22.67
 84.47     558.58      23.63
 84.57     555.66      23.57
 84.67     562.00      23.71
 84.77     581.00      24.10
 84.87     535.00      23.13
 84.97     539.00      23.22
 85.07     540.36      23.25
 85.17     547.70      23.40
 85.27     481.18      21.94
 85.37     500.00      22.36
 85.47     491.69      22.17
 85.57     538.00      23.19
 85.67     526.26      22.94
 85.77     482.00      21.95
 85.87     524.19      22.90
 85.97     527.00      22.96
 86.07     524.00      22.89
 86.17     476.42      21.83
 86.27     509.94      22.58
 86.37     529.00      23.00
 86.47     543.49      23.31
 86.57     513.00      22.65
 86.67     555.00      23.56
 86.77     527.00      22.96
 86.87     581.00      24.10
 86.97     519.25      22.79
 87.07     598.00      24.45
 87.17     601.00      24.52
 87.27     568.74      23.85
 87.37     604.00      24.58
 87.47     595.00      24.39
 87.57     646.00      25.42
 87.67     637.00      25.24
 87.77     635.00      25.20
 87.87     606.00      24.62
 87.97     575.59      23.99
 88.07     601.00      24.52
 88.17     542.36      23.29
 88.27     576.15      24.00
 88.37     556.42      23.59
 88.47     591.00      24.31
 88.57     562.00      23.71
 88.67     570.00      23.87
 88.77     608.00      24.66
 88.87     582.00      24.12
 88.97     520.38      22.81
 89.07     565.00      23.77
 89.17     571.00      23.90
 89.27     587.00      24.23
 89.37     612.57      24.75
 89.47     572.00      23.92
 89.57     591.00      24.31
 89.67     587.00      24.23
 89.77     559.06      23.64
 89.87     573.59      23.95
 89.97     569.29      23.86
 90.07     529.00      23.00
 90.17     530.00      23.02
 90.27     540.00      23.24
 90.37     498.32      22.32
 90.47     565.31      23.78
 90.57     512.00      22.63
 90.67     522.00      22.85
 90.77     506.00      22.49
 90.87     518.00      22.76
 90.97     481.00      21.93
 91.07     491.60      22.17
 91.17     496.00      22.27
 91.27     519.91      22.80
 91.37     477.27      21.85
 91.47     493.00      22.20
 91.57     553.72      23.53
 91.67     499.00      22.34
 91.77     497.31      22.30
 91.87     497.00      22.29
 91.97     558.00      23.62
 92.07     487.00      22.07
 92.17     584.00      24.17
 92.27     564.64      23.76
 92.37     570.16      23.88
 92.47     562.63      23.72
 92.57     568.00      23.83
 92.67     553.00      23.52
 92.77     601.00      24.52
 92.87     597.00      24.43
 92.97     672.74      25.94
 93.07     645.00      25.40
 93.17     693.59      26.34
 93.27     698.19      26.42
 93.37     706.00      26.57
 93.47     755.43      27.49
 93.57     671.00      25.90
 93.67     795.00      28.20
 93.77     817.47      28.59
 93.87     789.00      28.09
 93.97     797.00      28.23
 94.07     831.00      28.83
 94.17     848.00      29.12
 94.27     808.00      28.43
 94.37     780.77      27.94
 94.47     862.00      29.36
 94.57     870.78      29.51
 94.67     846.57      29.10
 94.77     912.68      30.21
 94.87     890.00      29.83
 94.97     871.00      29.51
 95.07     853.52      29.21
 95.17     863.83      29.39
 95.27     909.00      30.15
 95.37     863.00      29.38
 95.47     821.00      28.65
 95.57     793.00      28.16
 95.67     772.00      27.78
 95.77     808.00      28.43
 95.87     667.89      25.84
 95.97     745.00      27.29
 96.07     730.18      27.02
 96.17     705.00      26.55
 96.27     711.00      26.66
 96.37     705.00      26.55
 96.47     678.00      26.04
 96.57     799.00      28.27
 96.67     810.00      28.46
 96.77     865.00      29.41
 96.87     894.00      29.90
 96.97     909.00      30.15
 97.07    1066.00      32.65
 97.17    1086.00      32.95
 97.27    1208.00      34.76
 97.37    1288.36      35.89
 97.47    1263.85      35.55
 97.57    1401.00      37.43
 97.67    1468.04      38.31
 97.77    1351.00      36.76
 97.87    1438.78      37.93
 97.97    1382.00      37.18
 98.07    1298.75      36.04
 98.17    1326.00      36.41
 98.27    1243.00      35.26
 98.37    1245.06      35.29
 98.47    1201.17      34.66
 98.57    1121.81      33.49
 98.67    1084.08      32.93
 98.77     999.96      31.62
 98.87     915.00      30.25
 98.97     906.00      30.10
 99.07     883.00      29.72
 99.17     893.67      29.89
 99.27     872.82      29.54
 99.37     923.00      30.38
 99.47     898.00      29.97
 99.57     976.00      31.24
 99.67     994.00      31.53
 99.77    1056.50      32.50
 99.87    1128.17      33.59
 99.97    1262.00      35.52
100.07    1288.49      35.90
100.17    1400.00      37.42
100.27    1552.00      39.40
100.37    1582.88      39.79
100.47    1758.59      41.94
100.57    1801.00      42.44
100.67    1886.00      43.43
100.77    1943.00      44.08
100.87    2009.00      44.82
100.97    1928.94      43.92
101.07    1903.02      43.62
101.17    2021.00      44.96
101.27    1912.00      43.73
101.37    1913.16      43.74
101.47    1776.00      42.14
101.57    1746.99      41.80
101.67    1654.00      40.67
101.77    1620.10      40.25
101.87    1468.82      38.33
101.97    1505.00      38.79
102.07    1361.00      36.89
102.17    1332.00      36.50
102.27    1284.26      35.84
102.37    1311.73      36.22
102.47    1240.00      35.21
102.57    1156.00      34.00
102.67    1166.00      34.15
102.77    1197.37      34.60
102.87    1069.14      32.70
102.97    1097.32      33.13
103.07    1068.00      32.68
103.17    1040.35      32.25
103.27    1032.00      32.12
103.37     970.82      31.16
103.47     882.00      29.70
103.57     814.40      28.54
103.67     782.99      27.98
103.77     742.76      27.25
103.87     763.00      27.62
103.97     752.66      27.43
104.07     716.00      26.76
104.17     693.00      26.32
104.27     624.00      24.98
104.37     669.00      25.87
104.47     553.00      23.52
104.57     522.61      22.86
104.67     551.00      23.47
104.77     572.00      23.92
104.87     533.00      23.09
104.97     531.67      23.06
105.07     551.00      23.47
105.17     529.00      23.00
105.27     511.00      22.61
105.37     553.00      23.52
105.47     539.00      23.22
105.57     518.00      22.76
105.67     550.00      23.45
105.77     527.00      22.96
105.87     552.00      23.49
105.97     558.00      23.62
106.07     535.00      23.13
106.17     530.00      23.02
106.27     567.81      23.83
106.37     565.00      23.77
106.47     606.00      24.62
106.57     578.00      24.04
106.67     635.11      25.20
106.77     629.00      25.08
106.87     597.00      24.43
106.97     630.00      25.10
107.07     673.00      25.94
107.17     617.00      24.84
107.27     685.68      26.19
107.37     663.00      25.75
107.47     696.00      26.38
107.57     717.29      26.78
107.67     723.39      26.90
107.77     656.00      25.61
107.87     650.00      25.50
107.97     659.00      25.67
108.07     722.22      26.87
108.17     662.67      25.74
108.27     684.68      26.17
108.37     687.89      26.23
108.47     676.08      26.00
108.57     643.45      25.37
108.67     613.00      24.76
108.77     674.71      25.98
108.87     660.00      25.69
108.97     650.00      25.50
109.07     705.16      26.55
109.17     671.00      25.90
109.27     683.00      26.13
109.37     717.57      26.79
109.47     653.89      25.57
109.57     656.00      25.61
109.67     640.00      25.30
109.77     675.00      25.98
109.87     651.66      25.53
109.97     642.00      25.34
110.07     655.80      25.61
110.17     572.00      23.92
110.27     594.11      24.37
110.37     567.00      23.81
110.47     588.00      24.25
110.57     589.40      24.28
110.67     542.00      23.28
110.77     571.72      23.91
110.87     587.00      24.23
110.97     550.00      23.45
111.07     585.00      24.19
111.17     545.00      23.35
111.27     498.38      22.32
111.37     531.44      23.05
111.47     527.00      22.96
111.57     528.95      23.00
111.67     523.00      22.87
111.77     552.00      23.49
111.87     529.00      23.00
111.97     574.00      23.96
112.07     547.91      23.41
112.17     515.00      22.69
112.27     506.00      22.49
112.37     513.75      22.67
112.47     547.00      23.39
112.57     543.00      23.30
112.67     507.00      22.52
112.77     551.10      23.48
112.87     610.89      24.72
112.97     571.00      23.90
113.07     551.00      23.47
113.17     595.00      24.39
113.27     594.00      24.37
113.37     553.00      23.52
113.47     624.36      24.99
113.57     601.00      24.52
113.67     640.68      25.31
113.77     605.00      24.60
113.87     724.97      26.93
113.97     698.00      26.42
114.07     741.24      27.23
114.17     750.00      27.39
114.27     831.00      28.83
114.37     844.00      29.05
114.47     934.00      30.56
114.57     969.79      31.14
114.67    1126.00      33.56
114.77    1218.00      34.90
114.87    1245.00      35.28
114.97    1491.00      38.61
115.07    1579.78      39.75
115.17    1755.66      41.90
115.27    2051.00      45.29
115.37    2307.00      48.03
115.47    2633.00      51.31
115.57    2830.00      53.20
115.67    2979.94      54.59
115.77    3433.91      58.60
115.87    3767.00      61.38
115.97    4022.00      63.42
116.07    4441.00      66.64
116.17    4843.96      69.60
116.27    5309.00      72.86
116.37    5563.00      74.59
116.47    5850.00      76.49
116.57    6222.00      78.88
116.67    6575.00      81.09
116.77    6536.54      80.85
116.87    6719.53      81.97
116.97    6967.00      83.47
117.07    6943.00      83.32
117.17    6864.00      82.85
117.27    6679.00      81.73
117.37    6425.00      80.16
117.47    6269.00      79.18
117.57    5720.00      75.63
117.67    5421.00      73.63
117.77    5176.00      71.94
117.87    4968.30      70.49
117.97    4435.31      66.60
118.07    4174.33      64.61
118.17    3865.00      62.17
118.27    3398.88      58.30
118.37    3137.00      56.01
118.47    2879.00      53.66
118.57    2436.00      49.36
118.67    2167.34      46.55
118.77    2034.00      45.10
118.87    1783.00      42.23
118.97    1656.00      40.69
119.07    1507.97      38.83
119.17    1378.00      37.12
119.27    1230.67      35.08
119.37    1081.00      32.88
119.47     970.25      31.15
119.57     948.00      30.79
119.67     925.00      30.41
119.77     836.00      28.91
119.87     743.81      27.27
119.97     716.00      26.76
120.07     706.63      26.58
120.17     712.00      26.68
120.27     646.00      25.42
120.37     674.00      25.96
120.47     614.07      24.78
120.57     591.78      24.33
120.67     640.67      25.31
120.77     576.00      24.00
120.87     538.00      23.19
120.97     600.00      24.49
121.07     551.99      23.49
121.17     618.52      24.87
121.27     635.00      25.20
121.37     552.00      23.49
121.47     562.00      23.71
121.57     560.00      23.66
121.67     542.00      23.28
121.77     577.00      24.02
121.87     543.38      23.31
121.97     580.00      24.08
122.07     606.14      24.62
122.17     593.00      24.35
122.27     543.00      23.30
122.37     613.00      24.76
122.47     621.00      24.92
122.57     617.00      24.84
122.67     627.00      25.04
122.77     631.65      25.13
122.87     663.05      25.75
122.97     598.00      24.45
123.07     600.00      24.49
123.17     603.00      24.56
123.27     666.00      25.81
123.37     627.49      25.05
123.47     663.09      25.75
123.57     644.85      25.39
123.67     676.06      26.00
123.77     624.00      24.98
123.87     645.49      25.41
123.97     647.12      25.44
124.07     662.00      25.73
124.17     634.00      25.18
124.27     651.56      25.53
124.37     593.00      24.35
124.47     632.00      25.14
124.57     634.97      25.20
124.67     565.63      23.78
124.77     562.00      23.71
124.87     624.00      24.98
124.97     604.00      24.58
