  9.97     588.00      24.25
 10.07     591.00      24.31
 10.17     579.00      24.06
 10.27     648.00      25.46
 10.37     600.00      24.49
 10.47     625.00      25.00
 10.57     596.01      24.41
 10.67     562.00      23.71
 10.77     523.38      22.88
 10.87     643.00      25.36
 10.97     598.00      24.45
 11.07     621.00      24.92
 11.17     592.49      24.34
 11.27     613.59      24.77
 11.37     613.00      24.76
 11.47     584.00      24.17
 11.57     587.00      24.23
 11.67     640.00      25.30
 11.77     615.00      24.80
 11.87     669.00      25.87
 11.97     600.25      24.50
 12.07     620.31      24.91
 12.17     721.62      26.86
 12.27     672.00      25.92
 12.37     735.84      27.13
 12.47     617.63      24.85
 12.57     594.43      24.38
 12.67     586.00      24.21
 12.77     554.00      23.54
 12.87     600.86      24.51
 12.97     578.52      24.05
 13.07     586.00      24.21
 13.17     610.00      24.70
 13.27     586.60      24.22
 13.37     628.66      25.07
 13.47     614.27      24.78
 13.57     574.00      23.96
 13.67     551.74      23.49
 13.77     562.00      23.71
 13.87     584.73      24.18
 13.97     540.85      23.26
 14.07     548.00      23.41
 14.17     586.00      24.21
 14.27     571.60      23.91
 14.37     547.00      23.39
 14.47     550.00      23.45
 14.57     523.66      22.88
 14.67     549.00      23.43
 14.77     566.00      23.79
 14.87     548.00      23.41
 14.97     549.00      23.43
 15.07     573.00      23.94
 15.17     570.79      23.89
 15.27     551.49      23.48
 15.37     543.00      23.30
 15.47     541.46      23.27
 15.57     577.00      24.02
 15.67     555.48      23.57
 15.77     576.00      24.00
 15.87     571.70      23.91
 15.97     542.00      23.28
 16.07     599.36      24.48
 16.17     570.00      23.87
 16.27     620.64      24.91
 16.37     525.00      22.91
 16.47     543.00      23.30
 16.57     591.00      24.31
 16.67     560.31      23.67
 16.77     544.21      23.33
 16.87     556.00      23.58
 16.97     542.00      23.28
 17.07     565.26      23.78
 17.17     545.00      23.35
 17.27     578.78      24.06
 17.37     546.09      23.37
 17.47     595.00      24.39
 17.57     583.00      24.15
 17.67     544.00      23.32
 17.77     548.00      23.41
 17.87     568.00      23.83
 17.97     538.00      23.19
 18.07     567.00      23.81
 18.17     576.00      24.00
 18.27     557.08      23.60
 18.37     623.13      24.96
 18.47     551.00      23.47
 18.57     542.00      23.28
 18.67     613.00      24.76
 18.77     553.31      23.52
 18.87     534.98      23.13
 18.97     588.00      24.25
 19.07     546.00      23.37
 19.17     543.00      23.30
 19.27     563.00      23.73
 19.37     576.00      24.00
 19.47     581.00      24.10
 19.57     543.01      23.30
 19.67     584.00      24.17
 19.77     606.03      24.62
 19.87     615.47      24.81
 19.97     527.00      22.96
 20.07     600.00      24.49
 20.17     553.00      23.52
 20.27     535.00      23.13
 20.37     562.86      23.72
 20.47     547.39      23.40
 20.57     518.74      22.78
 20.67     551.00      23.47
 20.77     548.00      23.41
 20.87     574.91      23.98
 20.97     548.32      23.42
 21.07     547.00      23.39
 21.17     548.00      23.41
 21.27     559.00      23.64
 21.37     532.00      23.07
 21.47     588.35      24.26
 21.57     536.00      23.15
 21.67     565.37      23.78
 21.77     577.25      24.03
 21.87     601.36      24.52
 21.97     543.00      23.30
 22.07     573.00      23.94
 22.17     584.00      24.17
 22.27     577.00      24.02
 22.37     572.09      23.92
 22.47     543.00      23.30
 22.57     610.96      24.72
 22.67     575.57      23.99
 22.77     568.00      23.83
 22.87     556.00      23.58
 22.97     608.00      24.66
 23.07     596.00      24.41
 23.17     586.00      24.21
 23.27     566.00      23.79
 23.37     551.34      23.48
 23.47     531.00      23.04
 23.57     576.00      24.00
 23.67     538.79      23.21
 23.77     598.00      24.45
 23.87     519.00      22.78
 23.97     589.00      24.27
 24.07     552.48      23.50
 24.17     583.52      24.16
 24.27     546.00      23.37
 24.37     609.00      24.68
 24.47     596.70      24.43
 24.57     637.05      25.24
 24.67     668.70      25.86
 24.77     648.99      25.48
 24.87     647.00      25.44
 24.97     685.57      26.18
 25.07     647.00      25.44
 25.17     646.00      25.42
 25.27     576.00      24.00
 25.37     529.05      23.00
 25.47     595.00      24.39
 25.57     553.00      23.52
 25.67     601.00      24.52
 25.77     549.51      23.44
 25.87     609.00      24.68
 25.97     607.00      24.64
 26.07     581.00      24.10
 26.17     616.00      24.82
 26.27     565.00      23.77
 26.37     595.00      24.39
 26.47     598.00      24.45
 26.57     595.00      24.39
 26.67     606.88      24.63
 26.77     554.00      23.54
 26.87     524.36      22.90
 26.97     536.00      23.15
 27.07     525.21      22.92
 27.17     537.79      23.19
 27.27     645.00      25.40
 27.37     663.00      25.75
 27.47     621.00      24.92
 27.57     601.80      24.53
 27.67     613.00      24.76
 27.77     626.00      25.02
 27.87     596.33      24.42
 27.97     653.00      25.55
 28.07     670.25      25.89
 28.17     841.70      29.01
 28.27     838.52      28.96
 28.37     874.01      29.56
 28.47     917.00      30.28
 28.57     815.00      28.55
 28.67     744.00      27.28
 28.77     747.00      27.33
 28.87     773.94      27.82
 28.97     837.00      28.93
 29.07     814.00      28.53
 29.17     787.00      28.05
 29.27     758.00      27.53
 29.37     672.00      25.92
 29.47     665.00      25.79
 29.57     650.00      25.50
 29.67     599.00      24.47
 29.77     663.00      25.75
 29.87     596.38      24.42
 29.97     582.00      24.12
 30.07     601.00      24.52
 30.17     584.00      24.17
 30.27     615.00      24.80
 30.37     622.00      24.94
 30.47     555.00      23.56
 30.57     594.00      24.37
 30.67     633.00      25.16
 30.77     633.00      25.16
 30.87     642.00      25.34
 30.97     643.00      25.36
 31.07     683.00      26.13
 31.17     625.12      25.00
 31.27     616.00      24.82
 31.37     556.00      23.58
 31.47     587.00      24.23
 31.57     534.85      23.13
 31.67     562.00      23.71
 31.77     522.53      22.86
 31.87     559.00      23.64
 31.97     515.35      22.70
 32.07     589.00      24.27
 32.17     552.88      23.51
 32.27     569.39      23.86
 32.37     533.00      23.09
 32.47     559.00      23.64
 32.57     579.38      24.07
 32.67     559.53      23.65
 32.77     557.00      23.60
 32.87     541.22      23.26
 32.97     534.00      23.11
 33.07     588.00      24.25
 33.17     581.00      24.10
 33.27     581.97      24.12
 33.37     570.00      23.87
 33.47     566.00      23.79
 33.57     618.00      24.86
 33.67     637.00      25.24
 33.77     642.44      25.35
 33.87     735.00      27.11
 33.97     939.78      30.66
 34.07    1027.50      32.05
 34.17    1043.00      32.30
 34.27     953.00      30.87
 34.37     945.69      30.75
 34.47     793.52      28.17
 34.57     677.00      26.02
 34.67     596.90      24.43
 34.77     571.00      23.90
 34.87     600.36      24.50
 34.97     559.00      23.64
 35.07     597.26      24.44
 35.17     585.02      24.19
 35.27     584.38      24.17
 35.37     525.00      22.91
 35.47     543.00      23.30
 35.57     515.00      22.69
 35.67     510.00      22.58
 35.77     491.00      22.16
 35.87     503.00      22.43
 35.97     485.00      22.02
 36.07     485.00      22.02
 36.17     560.29      23.67
 36.27     550.31      23.46
 36.37     499.00      22.34
 36.47     565.88      23.79
 36.57     500.99      22.38
 36.67     564.99      23.77
 36.77     513.00      22.65
 36.87     504.00      22.45
 36.97     546.84      23.38
 37.07     538.00      23.19
 37.17     501.16      22.39
 37.27     475.00      21.79
 37.37     509.27      22.57
 37.47     469.81      21.68
 37.57     503.00      22.43
 37.67     559.00      23.64
 37.77     561.00      23.69
 37.87     535.00      23.13
 37.97     505.00      22.47
 38.07     501.00      22.38
 38.17     463.00      21.52
 38.27     521.06      22.83
 38.37     539.00      23.22
 38.47     537.63      23.19
 38.57     529.00      23.00
 38.67     501.47      22.39
 38.77     494.98      22.25
 38.87     499.00      22.34
 38.97     487.16      22.07
 39.07     475.00      21.79
 39.17     482.00      21.95
 39.27     469.91      21.68
 39.37     554.00      23.54
 39.47     548.00      23.41
 39.57     538.77      23.21
 39.67     553.14      23.52
 39.77     504.00      22.45
 39.87     476.42      21.83
 39.97     519.00      22.78
 40.07     517.00      22.74
 40.17     489.00      22.11
 40.27     549.00      23.43
 40.37     543.00      23.30
 40.47     487.00      22.07
 40.57     509.15      22.56
 40.67     487.00      22.07
 40.77     477.42      21.85
 40.87     483.00      21.98
 40.97     463.00      21.52
 41.07     505.00      22.47
 41.17     470.93      21.70
 41.27     502.08      22.41
 41.37     491.00      22.16
 41.47     466.00      21.59
 41.57     489.00      22.11
 41.67     472.19      21.73
 41.77     521.00      22.83
 41.87     482.00      21.95
 41.97     523.61      22.88
 42.07     534.00      23.11
 42.17     487.00      22.07
 42.27     494.00      22.23
 42.37     498.00      22.32
 42.47     574.68      23.97
 42.57     554.00      23.54
 42.67     570.00      23.87
 42.77     640.00      25.30
 42.87     569.00      23.85
 42.97     582.00      24.12
 43.07     630.84      25.12
 43.17     483.00      21.98
 43.27     522.00      22.85
 43.37     532.00      23.07
 43.47     480.00      21.91
 43.57     547.08      23.39
 43.67     507.00      22.52
 43.77     510.00      22.58
 43.87     500.00      22.36
 43.97     510.66      22.60
 44.07     491.00      22.16
 44.17     497.00      22.29
 44.27     517.00      22.74
 44.37     461.00      21.47
 44.47     528.00      22.98
 44.57     477.00      21.84
 44.67     527.50      22.97
 44.77     516.97      22.74
 44.87     497.00      22.29
 44.97     526.72      22.95
 45.07     492.00      22.18
 45.17     501.00      22.38
 45.27     484.81      22.02
 45.37     544.03      23.32
 45.47     500.00      22.36
 45.57     508.00      22.54
 45.67     536.17      23.16
 45.77     449.00      21.19
 45.87     537.27      23.18
 45.97     494.00      22.23
 46.07     494.00      22.23
 46.17     460.48      21.46
 46.27     535.92      23.15
 46.37     487.20      22.07
 46.47     437.00      20.90
 46.57     545.00      23.35
 46.67     512.00      22.63
 46.77     523.00      22.87
 46.87     500.04      22.36
 46.97     508.00      22.54
 47.07     476.00      21.82
 47.17     494.00      22.23
 47.27     534.00      23.11
 47.37     518.76      22.78
 47.47     539.00      23.22
 47.57     546.78      23.38
 47.67     572.00      23.92
 47.77     597.00      24.43
 47.87     560.02      23.66
 47.97     581.00      24.10
 48.07     608.41      24.67
 48.17     608.71      24.67
 48.27     547.51      23.40
 48.37     586.00      24.21
 48.47     546.00      23.37
 48.57     549.08      23.43
 48.67     510.62      22.60
 48.77     505.00      22.47
 48.87     553.00      23.52
 48.97     505.00      22.47
 49.07     513.00      22.65
 49.17     517.16      22.74
 49.27     561.00      23.69
 49.37     569.46      23.86
 49.47     576.00      24.00
 49.57     689.42      26.26
 49.67     679.00      26.06
 49.77     821.00      28.65
 49.87     992.80      31.51
 49.97    1361.00      36.89
 50.07    1695.00      41.17
 50.17    2019.51      44.94
 50.27    2372.00      48.70
 50.37    2401.56      49.01
 50.47    2187.00      46.77
 50.57    1999.00      44.71
 50.67    1539.00      39.23
 50.77    1251.00      35.37
 50.87     919.00      30.32
 50.97     863.52      29.39
 51.07     718.00      26.80
 51.17     651.00      25.51
 51.27     616.04      24.82
 51.37     610.00      24.70
 51.47     636.00      25.22
 51.57     609.21      24.68
 51.67     579.10      24.06
 51.77     611.00      24.72
 51.87     573.00      23.94
 51.97     541.00      23.26
 52.07     602.00      24.54
 52.17     555.00      23.56
 52.27     548.00      23.41
 52.37     616.00      24.82
 52.47     582.35      24.13
 52.57     572.00      23.92
 52.67     541.00      23.26
 52.77     569.95      23.87
 52.87     578.80      24.06
 52.97     607.00      24.64
 53.07     625.08      25.00
 53.17     721.76      26.87
 53.27     804.77      28.37
 53.37     906.32      30.11
 53.47    1097.67      33.13
 53.57    1099.00      33.15
 53.67    1220.77      34.94
 53.77    1173.00      34.25
 53.87    1151.00      33.93
 53.97    1029.85      32.09
 54.07     972.62      31.19
 54.17     774.00      27.82
 54.27     711.00      26.66
 54.37     666.00      25.81
 54.47     606.00      24.62
 54.57     585.38      24.19
 54.67     602.00      24.54
 54.77     606.91      24.64
 54.87     582.67      24.14
 54.97     558.00      23.62
 55.07     535.00      23.13
 55.17     574.00      23.96
 55.27     573.00      23.94
 55.37     598.00      24.45
 55.47     593.00      24.35
 55.57     586.00      24.21
 55.67     593.00      24.35
 55.77     590.00      24.29
 55.87     606.00      24.62
 55.97     653.48      25.56
 56.07     699.70      26.45
 56.17     771.49      27.78
 56.27     806.64      28.40
 56.37     917.00      30.28
 56.47    1048.69      32.38
 56.57    1287.00      35.87
 56.67    1566.00      39.57
 56.77    1781.00      42.20
 56.87    2194.00      46.84
 56.97    2418.00      49.17
 57.07    2447.00      49.47
 57.17    2510.00      50.10
 57.27    2188.00      46.78
 57.37    1975.00      44.44
 57.47    1628.00      40.35
 57.57    1355.80      36.82
 57.67    1168.75      34.19
 57.77     965.00      31.06
 57.87     807.37      28.41
 57.97     750.67      27.40
 58.07     707.16      26.59
 58.17     731.00      27.04
 58.27     720.73      26.85
 58.37     670.08      25.89
 58.47     817.03      28.58
 58.57     788.00      28.07
 58.67     897.00      29.95
 58.77     999.00      31.61
 58.87    1113.00      33.36
 58.97    1135.69      33.70
 59.07    1132.82      33.66
 59.17    1193.78      34.55
 59.27    1251.73      35.38
 59.37    1294.00      35.97
 59.47    1251.00      35.37
 59.57    1266.00      35.58
 59.67    1187.00      34.45
 59.77    1107.00      33.27
 59.87    1080.56      32.87
 59.97    1240.00      35.21
 60.07    1318.00      36.30
 60.17    1452.00      38.11
 60.27    1448.85      38.06
 60.37    1545.33      39.31
 60.47    1556.00      39.45
 60.57    1552.00      39.40
 60.67    1372.00      37.04
 60.77    1194.00      34.55
 60.87    1020.00      31.94
 60.97     911.00      30.18
 61.07     783.43      27.99
 61.17     762.75      27.62
 61.27     697.11      26.40
 61.37     699.00      26.44
 61.47     672.30      25.93
 61.57     719.00      26.81
 61.67     794.00      28.18
 61.77     807.06      28.41
 61.87     912.00      30.20
 61.97    1018.00      31.91
 62.07    1148.00      33.88
 62.17    1212.00      34.81
 62.27    1348.50      36.72
 62.37    1284.00      35.83
 62.47    1319.87      36.33
 62.57    1258.00      35.47
 62.67    1127.00      33.57
 62.77     974.00      31.21
 62.87     908.86      30.15
 62.97     736.00      27.13
 63.07     769.50      27.74
 63.17     633.00      25.16
 63.27     638.83      25.27
 63.37     619.82      24.90
 63.47     636.00      25.22
 63.57     613.33      24.77
 63.67     570.15      23.88
 63.77     624.62      24.99
 63.87     633.00      25.16
 63.97     573.89      23.96
 64.07     677.00      26.02
 64.17     687.13      26.21
 64.27     778.96      27.91
 64.37     796.00      28.21
 64.47     822.98      28.69
 64.57     921.00      30.35
 64.67     921.00      30.35
 64.77    1029.82      32.09
 64.87     999.00      31.61
 64.97    1007.00      31.73
 65.07     936.41      30.60
 65.17     933.00      30.55
 65.27     830.82      28.82
 65.37     774.00      27.82
 65.47     705.00      26.55
 65.57     726.00      26.94
 65.67     650.76      25.51
 65.77     678.00      26.04
 65.87     636.07      25.22
 65.97     614.00      24.78
 66.07     566.60      23.80
 66.17     608.00      24.66
 66.27     535.94      23.15
 66.37     543.00      23.30
 66.47     545.00      23.35
 66.57     581.55      24.12
 66.67     575.00      23.98
 66.77     543.00      23.30
 66.87     585.00      24.19
 66.97     584.00      24.17
 67.07     662.04      25.73
 67.17     715.22      26.74
 67.27     639.00      25.28
 67.37     751.48      27.41
 67.47     813.00      28.51
 67.57     896.00      29.93
 67.67    1074.00      32.77
 67.77    1302.47      36.09
 67.87    1462.00      38.24
 67.97    1713.00      41.39
 68.07    2001.00      44.73
 68.17    2109.71      45.93
 68.27    2253.00      47.47
 68.37    2374.00      48.72
 68.47    2294.29      47.90
 68.57    2121.00      46.05
 68.67    1917.57      43.79
 68.77    1743.00      41.75
 68.87    1325.65      36.41
 68.97    1168.00      34.18
 69.07     967.90      31.11
 69.17     853.00      29.21
 69.27     780.23      27.93
 69.37     767.91      27.71
 69.47     725.02      26.93
 69.57     637.00      25.24
 69.67     615.77      24.81
 69.77     612.54      24.75
 69.87     607.00      24.64
 69.97     646.00      25.42
 70.07     554.51      23.55
 70.17     621.00      24.92
 70.27     583.00      24.15
 70.37     600.00      24.49
 70.47     582.00      24.12
 70.57     573.00      23.94
 70.67     595.66      24.41
 70.77     608.00      24.66
 70.87     632.94      25.16
 70.97     606.00      24.62
 71.07     618.00      24.86
 71.17     653.00      25.55
 71.27     707.27      26.59
 71.37     767.00      27.69
 71.47     854.70      29.24
 71.57     932.00      30.53
 71.67    1011.00      31.80
 71.77    1309.91      36.19
 71.87    1352.00      36.77
 71.97    1538.00      39.22
 72.07    1766.42      42.03
 72.17    1854.25      43.06
 72.27    1831.00      42.79
 72.37    1794.71      42.36
 72.47    1705.05      41.29
 72.57    1655.00      40.68
 72.67    1472.00      38.37
 72.77    1197.45      34.60
 72.87    1236.00      35.16
 72.97    1052.00      32.43
 73.07     889.80      29.83
 73.17     836.00      28.91
 73.27     815.00      28.55
 73.37     723.99      26.91
 73.47     633.00      25.16
 73.57     686.00      26.19
 73.67     604.00      24.58
 73.77     611.98      24.74
 73.87     574.00      23.96
 73.97     587.79      24.24
 74.07     551.63      23.49
 74.17     584.93      24.19
 74.27     534.75      23.12
 74.37     617.00      24.84
 74.47     574.83      23.98
 74.57     599.00      24.47
 74.67     592.00      24.33
 74.77     628.00      25.06
 74.87     514.72      22.69
 74.97     639.00      25.28
 75.07     614.00      24.78
 75.17     634.00      25.18
 75.27     534.81      23.13
 75.37     580.00      24.08
 75.47     555.00      23.56
 75.57     506.50      22.51
 75.67     607.00      24.64
 75.77     571.00      23.90
 75.87     590.00      24.29
 75.97     587.00      24.23
 76.07     570.89      23.89
 76.17     581.00      24.10
 76.27     639.00      25.28
 76.37     625.00      25.00
 76.47     641.00      25.32
 76.57     710.36      26.65
 76.67     710.00      26.65
 76.77     690.00      26.27
 76.87     676.00      26.00
 76.97     689.00      26.25
 77.07     701.00      26.48
 77.17     634.00      25.18
 77.27     668.00      25.85
 77.37     651.00      25.51
 77.47     581.36      24.11
 77.57     582.00      24.12
 77.67     583.10      24.15
 77.77     557.00      23.60
 77.87     516.00      22.72
 77.97     493.12      22.21
 78.07     529.00      23.00
 78.17     516.00      22.72
 78.27     568.00      23.83
 78.37     479.08      21.89
 78.47     507.00      22.52
 78.57     558.41      23.63
 78.67     538.00      23.19
 78.77     550.38      23.46
 78.87     484.00      22.00
 78.97     535.00      23.13
 79.07     503.71      22.44
 79.17     447.00      21.14
 79.27     517.84      22.76
 79.37     502.00      22.41
 79.47     502.00      22.41
 79.57     493.00      22.20
 79.67     471.52      21.71
 79.77     526.29      22.94
 79.87     498.56      22.33
 79.97     558.00      23.62
 80.07     523.00      22.87
 80.17     585.08      24.19
 80.27     553.00      23.52
 80.37     591.45      24.32
 80.47     511.00      22.61
 80.57     571.15      23.90
 80.67     621.21      24.92
 80.77     646.14      25.42
 80.87     627.00      25.04
 80.97     615.00      24.80
 81.07     626.00      25.02
 81.17     687.00      26.21
 81.27     679.19      26.06
 81.37     714.05      26.72
 81.47     675.03      25.98
 81.57     716.00      26.76
 81.67     694.00      26.34
 81.77     761.14      27.59
 81.87     695.93      26.38
 81.97     740.91      27.22
 82.07     728.00      26.98
 82.17     705.00      26.55
 82.27     673.00      25.94
 82.37     713.57      26.71
 82.47     679.00      26.06
 82.57     681.96      26.11
 82.67     588.00      24.25
 82.77     579.00      24.06
 82.87     594.53      24.38
 82.97     617.51      24.85
 83.07     560.00      23.66
 83.17     575.00      23.98
 83.27     506.00      22.49
 83.37     542.00      23.28
 83.47     571.00      23.90
 83.57     503.38      22.44
 83.67     541.00      23.26
 83.77     552.58      23.51
 83.87     605.15      24.60
 83.97     512.27      22.63
 84.07     517.81      22.76
 84.17     480.00      21.91
 84.27     521.00      22.83
 84.37     520.00      22.80
 84.47     578.93      24.06
 84.57     529.00      23.00
 84.67     530.03      23.02
 84.77     602.00      24.54
 84.87     533.33      23.09
 84.97     523.00      22.87
 85.07     492.64      22.20
 85.17     514.20      22.68
 85.27     521.00      22.83
 85.37     551.00      23.47
 85.47     494.00      22.23
 85.57     512.00      22.63
 85.67     545.00      23.35
 85.77     495.00      22.25
 85.87     509.00      22.56
 85.97     488.00      22.09
 86.07     538.00      23.19
 86.17     561.00      23.69
 86.27     485.00      22.02
 86.37     525.00      22.91
 86.47     529.00      23.00
 86.57     557.00      23.60
 86.67     558.03      23.62
 86.77     544.00      23.32
 86.87     515.00      22.69
 86.97     596.29      24.42
 87.07     548.00      23.41
 87.17     561.00      23.69
 87.27     559.00      23.64
 87.37     590.00      24.29
 87.47     617.00      24.84
 87.57     641.00      25.32
 87.67     585.00      24.19
 87.77     634.00      25.18
 87.87     627.00      25.04
 87.97     604.38      24.58
 88.07     635.73      25.21
 88.17     644.00      25.38
 88.27     566.73      23.81
 88.37     587.00      24.23
 88.47     603.00      24.56
 88.57     551.00      23.47
 88.67     545.00      23.35
 88.77     596.79      24.43
 88.87     533.00      23.09
 88.97     573.00      23.94
 89.07     605.98      24.62
 89.17     579.00      24.06
 89.27     605.00      24.60
 89.37     591.00      24.31
 89.47     609.00      24.68
 89.57     569.99      23.87
 89.67     597.00      24.43
 89.77     640.00      25.30
 89.87     614.59      24.79
 89.97     543.00      23.30
 90.07     563.45      23.74
 90.17     592.00      24.33
 90.27     518.00      22.76
 90.37     518.61      22.77
 90.47     547.00      23.39
 90.57     523.00      22.87
 90.67     506.00      22.49
 90.77     561.13      23.69
 90.87     549.00      23.43
 90.97     499.66      22.35
 91.07     528.15      22.98
 91.17     523.70      22.88
 91.27     494.00      22.23
 91.37     510.00      22.58
 91.47     542.38      23.29
 91.57     540.00      23.24
 91.67     475.40      21.80
 91.77     507.00      22.52
 91.87     471.00      21.70
 91.97     520.00      22.80
 92.07     576.91      24.02
 92.17     538.00      23.19
 92.27     569.00      23.85
 92.37     545.00      23.35
 92.47     547.00      23.39
 92.57     597.91      24.45
 92.67     567.00      23.81
 92.77     617.00      24.84
 92.87     590.66      24.30
 92.97     628.00      25.06
 93.07     681.00      26.10
 93.17     658.00      25.65
 93.27     676.00      26.00
 93.37     706.00      26.57
 93.47     748.00      27.35
 93.57     734.00      27.09
 93.67     749.20      27.37
 93.77     788.00      28.07
 93.87     754.89      27.48
 93.97     735.66      27.12
 94.07     830.00      28.81
 94.17     875.00      29.58
 94.27     806.39      28.40
 94.37     862.00      29.36
 94.47     875.00      29.58
 94.57     814.41      28.54
 94.67     879.00      29.65
 94.77     858.00      29.29
 94.87     916.02      30.27
 94.97     879.00      29.65
 95.07     946.00      30.76
 95.17     862.00      29.36
 95.27     905.00      30.08
 95.37     887.00      29.78
 95.47     909.00      30.15
 95.57     818.00      28.60
 95.67     814.10      28.53
 95.77     769.00      27.73
 95.87     775.00      27.84
 95.97     714.00      26.72
 96.07     740.00      27.20
 96.17     711.60      26.68
 96.27     746.22      27.32
 96.37     685.00      26.17
 96.47     696.00      26.38
 96.57     745.00      27.29
 96.67     772.45      27.79
 96.77     863.00      29.38
 96.87     879.28      29.65
 96.97     919.62      30.33
 97.07    1017.00      31.89
 97.17    1117.23      33.43
 97.27    1088.00      32.98
 97.37    1267.95      35.61
 97.47    1248.00      35.33
 97.57    1368.00      36.99
 97.67    1403.00      37.46
 97.77    1419.00      37.67
 97.87    1440.28      37.95
 97.97    1492.68      38.64
 98.07    1422.00      37.71
 98.17    1408.36      37.53
 98.27    1418.00      37.66
 98.37    1266.00      35.58
 98.47    1169.00      34.19
 98.57    1215.00      34.86
 98.67    1142.00      33.79
 98.77    1072.00      32.74
 98.87     917.00      30.28
 98.97     936.00      30.59
 99.07     891.00      29.85
 99.17     891.00      29.85
 99.27     894.00      29.90
 99.37     880.00      29.66
 99.47     946.00      30.76
 99.57     925.00      30.41
 99.67     919.00      30.32
 99.77    1007.00      31.73
 99.87    1144.92      33.84
 99.97    1144.00      33.82
100.07    1316.17      36.28
100.17    1297.00      36.01
100.27    1407.15      37.51
100.37    1507.00      38.82
100.47    1692.00      41.13
100.57    1709.00      41.34
100.67    1855.74      43.08
100.77    1914.04      43.75
100.87    1976.71      44.46
100.97    1986.00      44.56
101.07    1962.00      44.29
101.17    1880.63      43.37
101.27    1994.00      44.65
101.37    1978.00      44.47
101.47    1889.00      43.46
101.57    1863.76      43.17
101.67    1819.00      42.65
101.77    1770.00      42.07
101.87    1691.11      41.12
101.97    1567.00      39.59
102.07    1445.00      38.01
102.17    1447.23      38.04
102.27    1359.66      36.87
102.37    1332.00      36.50
102.47    1247.53      35.32
102.57    1275.92      35.72
102.67    1205.00      34.71
102.77    1183.18      34.40
102.87    1217.13      34.89
102.97    1153.06      33.96
103.07    1039.00      32.23
103.17    1077.00      32.82
103.27    1105.83      33.25
103.37     978.70      31.28
103.47     924.00      30.40
103.57     954.42      30.89
103.67     916.59      30.28
103.77     822.00      28.67
103.87     800.00      28.28
103.97     722.29      26.88
104.07     751.67      27.42
104.17     697.00      26.40
104.27     733.00      27.07
104.37     685.92      26.19
104.47     608.00      24.66
104.57     574.99      23.98
104.67     591.68      24.32
104.77     542.00      23.28
104.87     522.66      22.86
104.97     570.00      23.87
105.07     518.55      22.77
105.17     592.00      24.33
105.27     537.00      23.17
105.37     530.00      23.02
105.47     551.05      23.47
105.57     532.37      23.07
105.67     509.00      22.56
105.77     551.00      23.47
105.87     536.00      23.15
105.97     546.11      23.37
106.07     575.00      23.98
106.17     511.00      22.61
106.27     542.00      23.28
106.37     539.18      23.22
106.47     559.00      23.64
106.57     580.00      24.08
106.67     565.00      23.77
106.77     566.00      23.79
106.87     616.00      24.82
106.97     591.91      24.33
107.07     642.00      25.34
107.17     599.69      24.49
107.27     630.00      25.10
107.37     690.88      26.28
107.47     685.31      26.18
107.57     682.31      26.12
107.67     647.93      25.45
107.77     651.00      25.51
107.87     737.00      27.15
107.97     680.03      26.08
108.07     741.94      27.24
108.17     679.13      26.06
108.27     635.00      25.20
108.37     706.00      26.57
108.47     693.00      26.32
108.57     680.18      26.08
108.67     664.71      25.78
108.77     718.53      26.81
108.87     689.00      26.25
108.97     690.00      26.27
109.07     645.14      25.40
109.17     646.70      25.43
109.27     717.29      26.78
109.37     709.00      26.63
109.47     679.51      26.07
109.57     690.00      26.27
109.67     653.84      25.57
109.77     701.00      26.48
109.87     717.25      26.78
109.97     644.00      25.38
110.07     684.93      26.17
110.17     585.00      24.19
110.27     608.00      24.66
110.37     640.00      25.30
110.47     621.00      24.92
110.57     624.45      24.99
110.67     560.00      23.66
110.77     539.60      23.23
110.87     545.00      23.35
110.97     556.00      23.58
111.07     575.15      23.98
111.17     577.00      24.02
111.27     583.00      24.15
111.37     545.78      23.36
111.47     546.54      23.38
111.57     547.00      23.39
111.67     547.00      23.39
111.77     575.00      23.98
111.87     486.93      22.07
111.97     550.00      23.45
112.07     518.07      22.76
112.17     540.00      23.24
112.27     576.42      24.01
112.37     558.00      23.62
112.47     558.00      23.62
112.57     563.00      23.73
112.67     520.00      22.80
112.77     556.00      23.58
112.87     558.00      23.62
112.97     597.00      24.43
113.07     584.00      24.17
113.17     587.62      24.24
113.27     550.00      23.45
113.37     522.00      22.85
113.47     595.10      24.39
113.57     601.00      24.52
113.67     627.00      25.04
113.77     615.00      24.80
113.87     586.85      24.23
113.97     681.00      26.10
114.07     631.01      25.12
114.17     736.49      27.14
114.27     799.00      28.27
114.37     720.08      26.83
114.47     855.05      29.24
114.57     914.00      30.23
114.67     954.00      30.89
114.77    1065.85      32.65
114.87    1078.85      32.85
114.97    1162.46      34.09
115.07    1495.00      38.67
115.17    1582.00      39.77
115.27    1803.16      42.46
115.37    1951.00      44.17
115.47    2341.00      48.38
115.57    2535.00      50.35
115.67    2768.22      52.61
115.77    3061.00      55.33
115.87    3420.00      58.48
115.97    3780.00      61.48
116.07    3937.48      62.75
116.17    4464.00      66.81
116.27    4752.00      68.93
116.37    5061.00      71.14
116.47    5507.35      74.21
116.57    5905.00      76.84
116.67    6390.00      79.94
116.77    6486.33      80.54
116.87    6587.00      81.16
116.97    6840.13      82.71
117.07    6996.00      83.64
117.17    6960.00      83.43
117.27    6720.68      81.98
117.37    6710.11      81.92
117.47    6469.00      80.43
117.57    6229.78      78.93
117.67    5969.00      77.26
117.77    5680.00      75.37
117.87    5298.00      72.79
117.97    5011.00      70.79
118.07    4616.00      67.94
118.17    4258.00      65.25
118.27    4118.19      64.17
118.37    3666.00      60.55
118.47    3467.31      58.88
118.57    3138.00      56.02
118.67    2702.00      51.98
118.77    2316.00      48.12
118.87    2192.97      46.83
118.97    1858.00      43.10
119.07    1788.00      42.28
119.17    1593.00      39.91
119.27    1511.51      38.88
119.37    1339.00      36.59
119.47    1263.00      35.54
119.57    1094.00      33.08
119.67    1060.00      32.56
119.77     935.78      30.59
119.87     965.66      31.08
119.97     855.00      29.24
120.07     829.00      28.79
120.17     810.39      28.47
120.27     764.38      27.65
120.37     757.97      27.53
120.47     649.60      25.49
120.57     682.00      26.12
120.67     672.86      25.94
120.77     641.00      25.32
120.87     647.00      25.44
120.97     618.00      24.86
121.07     578.00      24.04
121.17     607.00      24.64
121.27     584.56      24.18
121.37     576.00      24.00
121.47     584.00      24.17
121.57     647.68      25.45
121.67     589.00      24.27
121.77     570.00      23.87
121.87     579.00      24.06
121.97     575.00      23.98
122.07     570.00      23.87
122.17     559.00      23.64
122.27     614.00      24.78
122.37     597.00      24.43
122.47     607.00      24.64
122.57     578.00      24.04
122.67     624.43      24.99
122.77     655.00      25.59
122.87     607.89      24.66
122.97     650.00      25.50
123.07     658.00      25.65
123.17     649.00      25.48
123.27     664.00      25.77
123.37     614.00      24.78
123.47     643.49      25.37
123.57     658.00      25.65
123.67     574.04      23.96
123.77     672.14      25.93
123.87     614.59      24.79
123.97     586.58      24.22
124.07     653.00      25.55
124.17     614.33      24.79
124.27     591.00      24.31
124.37     613.00      24.76
124.47     595.00      24.39
124.57     616.00      24.82
124.67     548.52      23.42
124.77     610.73      24.71
124.87     561.40      23.69
124.97     533.91      23.11
