  9.97     542.27      23.29
 10.07     617.00      24.84
 10.17     545.00      23.35
 10.27     629.00      25.08
 10.37     525.38      22.92
 10.47     593.43      24.36
 10.57     584.53      24.18
 10.67     578.71      24.06
 10.77     551.86      23.49
 10.87     586.00      24.21
 10.97     616.13      24.82
 11.07     563.22      23.73
 11.17     607.00      24.64
 11.27     567.29      23.82
 11.37     578.00      24.04
 11.47     650.00      25.50
 11.57     583.00      24.15
 11.67     622.00      24.94
 11.77     624.00      24.98
 11.87     614.00      24.78
 11.97     614.00      24.78
 12.07     666.86      25.82
 12.17     669.26      25.87
 12.27     655.00      25.59
 12.37     654.00      25.57
 12.47     622.00      24.94
 12.57     598.10      24.46
 12.67     576.00      24.00
 12.77     595.00      24.39
 12.87     555.00      23.56
 12.97     581.85      24.12
 13.07     570.00      23.87
 13.17     571.00      23.90
 13.27     565.00      23.77
 13.37     617.00      24.84
 13.47     547.00      23.39
 13.57     620.00      24.90
 13.67     498.00      22.32
 13.77     536.13      23.15
 13.87     556.00      23.58
 13.97     559.22      23.65
 14.07     573.00      23.94
 14.17     591.00      24.31
 14.27     571.00      23.90
 14.37     608.30      24.66
 14.47     558.00      23.62
 14.57     525.85      22.93
 14.67     585.00      24.19
 14.77     564.00      23.75
 14.87     537.51      23.18
 14.97     563.70      23.74
 15.07     561.49      23.70
 15.17     602.23      24.54
 15.27     599.01      24.47
 15.37     535.00      23.13
 15.47     554.00      23.54
 15.57     570.71      23.89
 15.67     568.00      23.83
 15.77     537.74      23.19
 15.87     548.00      23.41
 15.97     530.00      23.02
 16.07     524.00      22.89
 16.17     565.00      23.77
 16.27     549.40      23.44
 16.37     569.00      23.85
 16.47     571.48      23.91
 16.57     566.30      23.80
 16.67     579.77      24.08
 16.77     582.00      24.12
 16.87     588.00      24.25
 16.97     551.00      23.47
 17.07     577.00      24.02
 17.17     534.00      23.11
 17.27     506.00      22.49
 17.37     563.50      23.74
 17.47     567.00      23.81
 17.57     569.00      23.85
 17.67     548.00      23.41
 17.77     505.00      22.47
 17.87     576.00      24.00
 17.97     604.00      24.58
 18.07     514.92      22.69
 18.17     532.18      23.07
 18.27     499.00      22.34
 18.37     577.87      24.04
 18.47     553.00      23.52
 18.57     596.00      24.41
 18.67     529.00      23.00
 18.77     578.00      24.04
 18.87     560.18      23.67
 18.97     553.76      23.53
 19.07     534.00      23.11
 19.17     598.33      24.46
 19.27     548.00      23.41
 19.37     574.74      23.97
 19.47     557.00      23.60
 19.57     571.00      23.90
 19.67     545.00      23.35
 19.77     594.84      24.39
 19.87     536.48      23.16
 19.97     563.12      23.73
 20.07     570.00      23.87
 20.17     566.10      23.79
 20.27     522.98      22.87
 20.37     592.13      24.33
 20.47     559.00      23.64
 20.57     593.86      24.37
 20.67     550.00      23.45
 20.77     518.00      22.76
 20.87     581.54      24.12
 20.97     518.55      22.77
 21.07     567.00      23.81
 21.17     591.40      24.32
 21.27     517.80      22.76
 21.37     557.00      23.60
 21.47     566.00      23.79
 21.57     534.00      23.11
 21.67     567.10      23.81
 21.77     562.38      23.71
 21.87     530.00      23.02
 21.97     547.00      23.39
 22.07     555.00      23.56
 22.17     602.00      24.54
 22.27     555.00      23.56
 22.37     544.00      23.32
 22.47     540.00      23.24
 22.57     567.00      23.81
 22.67     573.00      23.94
 22.77     506.00      22.49
 22.87     539.00      23.22
 22.97     548.00      23.41
 23.07     519.13      22.78
 23.17     550.00      23.45
 23.27     543.72      23.32
 23.37     541.00      23.26
 23.47     527.11      22.96
 23.57     594.00      24.37
 23.67     534.62      23.12
 23.77     531.11      23.05
 23.87     554.00      23.54
 23.97     582.59      24.14
 24.07     540.00      23.24
 24.17     552.27      23.50
 24.27     577.00      24.02
 24.37     597.00      24.43
 24.47     566.66      23.80
 24.57     558.59      23.63
 24.67     605.00      24.60
 24.77     633.00      25.16
 24.87     583.81      24.16
 24.97     610.00      24.70
 25.07     574.00      23.96
 25.17     572.00      23.92
 25.27     546.03      23.37
 25.37     546.00      23.37
 25.47     512.85      22.65
 25.57     570.55      23.89
 25.67     528.79      23.00
 25.77     566.00      23.79
 25.87     556.00      23.58
 25.97     573.00      23.94
 26.07     584.00      24.17
 26.17     574.00      23.96
 26.27     571.43      23.90
 26.37     576.00      24.00
 26.47     576.00      24.00
 26.57     572.00      23.92
 26.67     520.00      22.80
 26.77     526.00      22.93
 26.87     575.11      23.98
 26.97     541.00      23.26
 27.07     544.00      23.32
 27.17     572.00      23.92
 27.27     554.00      23.54
 27.37     533.00      23.09
 27.47     574.00      23.96
 27.57     569.02      23.85
 27.67     552.00      23.49
 27.77     591.00      24.31
 27.87     602.00      24.54
 27.97     665.00      25.79
 28.07     711.84      26.68
 28.17     864.00      29.39
 28.27     966.49      31.09
 28.37     906.00      30.10
 28.47     855.00      29.24
 28.57     743.00      27.26
 28.67     649.67      25.49
 28.77     716.00      26.76
 28.87     851.17      29.17
 28.97     814.00      28.53
 29.07     777.00      27.87
 29.17     722.00      26.87
 29.27     656.00      25.61
 29.37     639.00      25.28
 29.47     575.00      23.98
 29.57     564.36      23.76
 29.67     587.00      24.23
 29.77     547.93      23.41
 29.87     530.52      23.03
 29.97     558.00      23.62
 30.07     563.00      23.73
 30.17     563.00      23.73
 30.27     540.82      23.26
 30.37     583.33      24.15
 30.47     537.00      23.17
 30.57     588.00      24.25
 30.67     614.00      24.78
 30.77     608.52      24.67
 30.87     601.71      24.53
 30.97     571.00      23.90
 31.07     588.00      24.25
 31.17     545.80      23.36
 31.27     542.00      23.28
 31.37     553.00      23.52
 31.47     488.00      22.09
 31.57     505.00      22.47
 31.67     512.00      22.63
 31.77     511.13      22.61
 31.87     524.98      22.91
 31.97     484.94      22.02
 32.07     491.00      22.16
 32.17     506.85      22.51
 32.27     541.00      23.26
 32.37     533.00      23.09
 32.47     552.00      23.49
 32.57     532.00      23.07
 32.67     512.33      22.63
 32.77     533.00      23.09
 32.87     559.00      23.64
 32.97     518.00      22.76
 33.07     509.82      22.58
 33.17     498.16      22.32
 33.27     546.32      23.37
 33.37     584.00      24.17
 33.47     583.00      24.15
 33.57     559.00      23.64
 33.67     631.57      25.13
 33.77     739.00      27.18
 33.87     870.00      29.50
 33.97    1011.00      31.80
 34.07    1046.00      32.34
 34.17     972.00      31.18
 34.27     901.00      30.02
 34.37     777.00      27.87
 34.47     672.00      25.92
 34.57     575.00      23.98
 34.67     524.32      22.90
 34.77     570.00      23.87
 34.87     553.87      23.53
 34.97     545.97      23.37
 35.07     488.00      22.09
 35.17     489.00      22.11
 35.27     506.00      22.49
 35.37     494.00      22.23
 35.47     508.00      22.54
 35.57     520.00      22.80
 35.67     521.75      22.84
 35.77     493.00      22.20
 35.87     561.00      23.69
 35.97     480.00      21.91
 36.07     531.36      23.05
 36.17     512.00      22.63
 36.27     546.11      23.37
 36.37     471.89      21.72
 36.47     531.00      23.04
 36.57     549.33      23.44
 36.67     488.08      22.09
 36.77     523.00      22.87
 36.87     516.07      22.72
 36.97     528.00      22.98
 37.07     477.00      21.84
 37.17     497.00      22.29
 37.27     564.00      23.75
 37.37     474.19      21.78
 37.47     535.57      23.14
 37.57     551.00      23.47
 37.67     603.00      24.56
 37.77     525.00      22.91
 37.87     530.00      23.02
 37.97     528.56      22.99
 38.07     492.46      22.19
 38.17     486.00      22.05
 38.27     523.66      22.88
 38.37     498.00      22.32
 38.47     511.56      22.62
 38.57     494.37      22.23
 38.67     489.88      22.13
 38.77     480.95      21.93
 38.87     494.00      22.23
 38.97     524.51      22.90
 39.07     489.85      22.13
 39.17     510.00      22.58
 39.27     509.99      22.58
 39.37     509.73      22.58
 39.47     520.00      22.80
 39.57     501.00      22.38
 39.67     457.00      21.38
 39.77     502.00      22.41
 39.87     495.95      22.27
 39.97     478.00      21.86
 40.07     466.96      21.61
 40.17     497.00      22.29
 40.27     520.00      22.80
 40.37     495.00      22.25
 40.47     468.00      21.63
 40.57     492.66      22.20
 40.67     498.00      22.32
 40.77     511.44      22.62
 40.87     519.00      22.78
 40.97     537.58      23.19
 41.07     526.48      22.95
 41.17     495.00      22.25
 41.27     473.00      21.75
 41.37     495.00      22.25
 41.47     510.28      22.59
 41.57     491.00      22.16
 41.67     531.48      23.05
 41.77     469.00      21.66
 41.87     527.33      22.96
 41.97     520.13      22.81
 42.07     504.00      22.45
 42.17     499.00      22.34
 42.27     541.00      23.26
 42.37     486.00      22.05
 42.47     491.00      22.16
 42.57     619.00      24.88
 42.67     579.00      24.06
 42.77     603.00      24.56
 42.87     577.00      24.02
 42.97     568.00      23.83
 43.07     552.02      23.50
 43.17     544.00      23.32
 43.27     477.00      21.84
 43.37     504.00      22.45
 43.47     436.00      20.88
 43.57     446.00      21.12
 43.67     508.36      22.55
 43.77     504.00      22.45
 43.87     536.00      23.15
 43.97     467.85      21.63
 44.07     518.00      22.76
 44.17     476.32      21.82
 44.27     567.00      23.81
 44.37     502.00      22.41
 44.47     455.55      21.34
 44.57     482.77      21.97
 44.67     466.11      21.59
 44.77     494.48      22.24
 44.87     488.00      22.09
 44.97     461.00      21.47
 45.07     538.42      23.20
 45.17     512.00      22.63
 45.27     519.01      22.78
 45.37     501.00      22.38
 45.47     500.02      22.36
 45.57     489.00      22.11
 45.67     461.61      21.49
 45.77     494.00      22.23
 45.87     465.00      21.56
 45.97     509.00      22.56
 46.07     491.00      22.16
 46.17     504.49      22.46
 46.27     487.00      22.07
 46.37     472.10      21.73
 46.47     478.00      21.86
 46.57     474.00      21.77
 46.67     484.00      22.00
 46.77     518.00      22.76
 46.87     492.00      22.18
 46.97     476.00      21.82
 47.07     529.13      23.00
 47.17     546.00      23.37
 47.27     520.00      22.80
 47.37     481.11      21.93
 47.47     492.10      22.18
 47.57     563.00      23.73
 47.67     563.00      23.73
 47.77     586.82      24.22
 47.87     597.00      24.43
 47.97     594.00      24.37
 48.07     597.00      24.43
 48.17     583.00      24.15
 48.27     511.53      22.62
 48.37     511.40      22.61
 48.47     522.00      22.85
 48.57     576.00      24.00
 48.67     568.00      23.83
 48.77     513.00      22.65
 48.87     502.00      22.41
 48.97     514.00      22.67
 49.07     549.00      23.43
 49.17     524.00      22.89
 49.27     568.95      23.85
 49.37     583.00      24.15
 49.47     594.00      24.37
 49.57     687.00      26.21
 49.67     869.83      29.49
 49.77    1049.62      32.40
 49.87    1340.91      36.62
 49.97    1758.31      41.93
 50.07    2096.67      45.79
 50.17    2375.00      48.73
 50.27    2408.00      49.07
 50.37    2229.00      47.21
 50.47    2014.00      44.88
 50.57    1481.71      38.49
 50.67    1168.66      34.19
 50.77     900.00      30.00
 50.87     752.00      27.42
 50.97     705.00      26.55
 51.07     633.00      25.16
 51.17     613.00      24.76
 51.27     564.52      23.76
 51.37     555.10      23.56
 51.47     599.00      24.47
 51.57     608.00      24.66
 51.67     524.00      22.89
 51.77     497.97      22.32
 51.87     526.00      22.93
 51.97     589.00      24.27
 52.07     553.00      23.52
 52.17     556.00      23.58
 52.27     547.68      23.40
 52.37     555.00      23.56
 52.47     585.55      24.20
 52.57     544.08      23.33
 52.67     614.00      24.78
 52.77     622.15      24.94
 52.87     640.01      25.30
 52.97     701.00      26.48
 53.07     755.49      27.49
 53.17     874.00      29.56
 53.27     958.00      30.95
 53.37    1096.00      33.11
 53.47    1184.00      34.41
 53.57    1290.00      35.92
 53.67    1160.00      34.06
 53.77    1017.00      31.89
 53.87     922.00      30.36
 53.97     844.00      29.05
 54.07     718.00      26.80
 54.17     612.00      24.74
 54.27     656.00      25.61
 54.37     590.22      24.29
 54.47     578.21      24.05
 54.57     586.19      24.21
 54.67     562.00      23.71
 54.77     527.20      22.96
 54.87     565.00      23.77
 54.97     601.00      24.52
 55.07     571.00      23.90
 55.17     573.00      23.94
 55.27     610.00      24.70
 55.37     601.00      24.52
 55.47     513.79      22.67
 55.57     570.00      23.87
 55.67     591.00      24.31
 55.77     594.00      24.37
 55.87     594.34      24.38
 55.97     658.00      25.65
 56.07     695.00      26.36
 56.17     727.00      26.96
 56.27     906.00      30.10
 56.37    1096.00      33.11
 56.47    1380.00      37.15
 56.57    1642.00      40.52
 56.67    2093.00      45.75
 56.77    2373.00      48.71
 56.87    2445.00      49.45
 56.97    2585.00      50.84
 57.07    2431.74      49.31
 57.17    2074.81      45.55
 57.27    1865.00      43.19
 57.37    1426.00      37.76
 57.47    1200.34      34.65
 57.57     953.00      30.87
 57.67     845.00      29.07
 57.77     733.00      27.07
 57.87     739.00      27.18
 57.97     651.61      25.53
 58.07     737.28      27.15
 58.17     719.00      26.81
 58.27     735.00      27.11
 58.37     848.12      29.12
 58.47     862.00      29.36
 58.57     925.98      30.43
 58.67    1074.00      32.77
 58.77    1182.54      34.39
 58.87    1279.88      35.78
 58.97    1337.21      36.57
 59.07    1338.93      36.59
 59.17    1382.09      37.18
 59.27    1316.00      36.28
 59.37    1295.00      35.99
 59.47    1221.00      34.94
 59.57    1177.00      34.31
 59.67    1104.44      33.23
 59.77    1100.00      33.17
 59.87    1240.00      35.21
 59.97    1309.47      36.19
 60.07    1337.33      36.57
 60.17    1503.00      38.77
 60.27    1593.00      39.91
 60.37    1556.00      39.45
 60.47    1427.00      37.78
 60.57    1224.84      35.00
 60.67    1146.00      33.85
 60.77     938.00      30.63
 60.87     855.00      29.24
 60.97     769.76      27.74
 61.07     743.00      27.26
 61.17     640.00      25.30
 61.27     677.65      26.03
 61.37     626.00      25.02
 61.47     655.74      25.61
 61.57     747.00      27.33
 61.67     828.00      28.77
 61.77     928.81      30.48
 61.87    1014.00      31.84
 61.97    1170.96      34.22
 62.07    1384.33      37.21
 62.17    1366.00      36.96
 62.27    1344.39      36.67
 62.37    1328.00      36.44
 62.47    1208.00      34.76
 62.57    1102.85      33.21
 62.67     919.93      30.33
 62.77     824.00      28.71
 62.87     765.00      27.66
 62.97     696.00      26.38
 63.07     649.93      25.49
 63.17     599.00      24.47
 63.27     549.00      23.43
 63.37     565.00      23.77
 63.47     580.27      24.09
 63.57     551.83      23.49
 63.67     593.00      24.35
 63.77     613.00      24.76
 63.87     626.00      25.02
 63.97     647.00      25.44
 64.07     688.00      26.23
 64.17     744.32      27.28
 64.27     831.00      28.83
 64.37     871.12      29.51
 64.47     901.81      30.03
 64.57     962.89      31.03
 64.67     967.09      31.10
 64.77     942.53      30.70
 64.87     919.00      30.32
 64.97     900.59      30.01
 65.07     853.00      29.21
 65.17     825.28      28.73
 65.27     722.00      26.87
 65.37     733.00      27.07
 65.47     630.00      25.10
 65.57     627.00      25.04
 65.67     580.83      24.10
 65.77     588.55      24.26
 65.87     614.16      24.78
 65.97     585.00      24.19
 66.07     611.05      24.72
 66.17     557.00      23.60
 66.27     566.00      23.79
 66.37     603.15      24.56
 66.47     559.00      23.64
 66.57     543.00      23.30
 66.67     577.00      24.02
 66.77     572.00      23.92
 66.87     610.00      24.70
 66.97     646.00      25.42
 67.07     637.00      25.24
 67.17     742.39      27.25
 67.27     740.00      27.20
 67.37     906.00      30.10
 67.47     981.00      31.32
 67.57    1158.00      34.03
 67.67    1486.06      38.55
 67.77    1732.40      41.62
 67.87    1950.00      44.16
 67.97    2291.00      47.86
 68.07    2331.29      48.28
 68.17    2318.89      48.15
 68.27    2264.00      47.58
 68.37    2170.43      46.59
 68.47    1936.00      44.00
 68.57    1655.00      40.68
 68.67    1359.00      36.86
 68.77    1215.13      34.86
 68.87     981.00      31.32
 68.97     820.00      28.64
 69.07     698.50      26.43
 69.17     645.36      25.40
 69.27     660.00      25.69
 69.37     606.00      24.62
 69.47     635.00      25.20
 69.57     563.50      23.74
 69.67     619.57      24.89
 69.77     556.00      23.58
 69.87     575.39      23.99
 69.97     538.00      23.19
 70.07     539.29      23.22
 70.17     519.81      22.80
 70.27     586.00      24.21
 70.37     559.00      23.64
 70.47     564.00      23.75
 70.57     564.00      23.75
 70.67     607.00      24.64
 70.77     578.00      24.04
 70.87     598.00      24.45
 70.97     607.12      24.64
 71.07     669.12      25.87
 71.17     727.00      26.96
 71.27     770.30      27.75
 71.37     879.75      29.66
 71.47    1096.00      33.11
 71.57    1193.00      34.54
 71.67    1352.00      36.77
 71.77    1518.00      38.96
 71.87    1679.43      40.98
 71.97    1776.68      42.15
 72.07    1935.00      43.99
 72.17    1905.00      43.65
 72.27    1782.00      42.21
 72.37    1660.00      40.74
 72.47    1438.00      37.92
 72.57    1348.43      36.72
 72.67    1135.62      33.70
 72.77    1022.00      31.97
 72.87     878.00      29.63
 72.97     813.32      28.52
 73.07     725.41      26.93
 73.17     703.28      26.52
 73.27     651.59      25.53
 73.37     637.00      25.24
 73.47     686.94      26.21
 73.57     614.72      24.79
 73.67     623.88      24.98
 73.77     630.00      25.10
 73.87     604.10      24.58
 73.97     595.00      24.39
 74.07     568.00      23.83
 74.17     615.74      24.81
 74.27     608.00      24.66
 74.37     643.00      25.36
 74.47     597.00      24.43
 74.57     627.00      25.04
 74.67     596.82      24.43
 74.77     619.00      24.88
 74.87     548.79      23.43
 74.97     590.00      24.29
 75.07     638.00      25.26
 75.17     632.00      25.14
 75.27     600.00      24.49
 75.37     577.00      24.02
 75.47     544.00      23.32
 75.57     581.00      24.10
 75.67     550.00      23.45
 75.77     574.20      23.96
 75.87     546.00      23.37
 75.97     624.00      24.98
 76.07     651.10      25.52
 76.17     618.46      24.87
 76.27     670.00      25.88
 76.37     708.00      26.61
 76.47     645.00      25.40
 76.57     731.00      27.04
 76.67     744.94      27.29
 76.77     669.00      25.87
 76.87     671.15      25.91
 76.97     661.00      25.71
 77.07     638.00      25.26
 77.17     627.00      25.04
 77.27     591.00      24.31
 77.37     575.00      23.98
 77.47     590.21      24.29
 77.57     581.83      24.12
 77.67     510.00      22.58
 77.77     546.02      23.37
 77.87     509.65      22.58
 77.97     589.00      24.27
 78.07     523.00      22.87
 78.17     502.00      22.41
 78.27     488.00      22.09
 78.37     510.00      22.58
 78.47     496.69      22.29
 78.57     530.37      23.03
 78.67     483.84      22.00
 78.77     506.98      22.52
 78.87     516.68      22.73
 78.97     497.93      22.31
 79.07     529.27      23.01
 79.17     493.00      22.20
 79.27     482.55      21.97
 79.37     515.00      22.69
 79.47     560.00      23.66
 79.57     514.00      22.67
 79.67     503.59      22.44
 79.77     508.00      22.54
 79.87     572.00      23.92
 79.97     570.00      23.87
 80.07     561.00      23.69
 80.17     526.00      22.93
 80.27     562.00      23.71
 80.37     526.47      22.94
 80.47     553.00      23.52
 80.57     535.00      23.13
 80.67     591.00      24.31
 80.77     612.00      24.74
 80.87     677.00      26.02
 80.97     653.00      25.55
 81.07     677.00      26.02
 81.17     743.77      27.27
 81.27     777.50      27.88
 81.37     795.42      28.20
 81.47     785.61      28.03
 81.57     761.48      27.59
 81.67     791.00      28.12
 81.77     711.00      26.66
 81.87     737.83      27.16
 81.97     716.00      26.76
 82.07     663.39      25.76
 82.17     667.44      25.83
 82.27     631.00      25.12
 82.37     612.37      24.75
 82.47     637.11      25.24
 82.57     590.29      24.30
 82.67     559.42      23.65
 82.77     559.66      23.66
 82.87     548.34      23.42
 82.97     515.00      22.69
 83.07     584.80      24.18
 83.17     538.00      23.19
 83.27     538.08      23.20
 83.37     508.93      22.56
 83.47     589.00      24.27
 83.57     583.70      24.16
 83.67     525.42      22.92
 83.77     527.00      22.96
 83.87     567.00      23.81
 83.97     556.27      23.59
 84.07     540.00      23.24
 84.17     577.00      24.02
 84.27     550.89      23.47
 84.37     538.00      23.19
 84.47     551.00      23.47
 84.57     520.00      22.80
 84.67     518.00      22.76
 84.77     513.00      22.65
 84.87     554.85      23.56
 84.97     510.99      22.61
 85.07     506.00      22.49
 85.17     538.00      23.19
 85.27     523.00      22.87
 85.37     520.00      22.80
 85.47     494.81      22.24
 85.57     537.00      23.17
 85.67     545.00      23.35
 85.77     552.59      23.51
 85.87     505.00      22.47
 85.97     479.35      21.89
 86.07     538.00      23.19
 86.17     517.00      22.74
 86.27     508.00      22.54
 86.37     487.00      22.07
 86.47     548.00      23.41
 86.57     542.85      23.30
 86.67     574.23      23.96
 86.77     571.00      23.90
 86.87     598.05      24.46
 86.97     558.56      23.63
 87.07     632.00      25.14
 87.17     590.69      24.30
 87.27     595.51      24.40
 87.37     600.00      24.49
 87.47     608.58      24.67
 87.57     677.00      26.02
 87.67     580.25      24.09
 87.77     659.00      25.67
 87.87     618.00      24.86
 87.97     588.97      24.27
 88.07     616.00      24.82
 88.17     590.00      24.29
 88.27     567.00      23.81
 88.37     575.00      23.98
 88.47     570.00      23.87
 88.57     529.00      23.00
 88.67     554.72      23.55
 88.77     575.00      23.98
 88.87     571.00      23.90
 88.97     569.00      23.85
 89.07     595.00      24.39
 89.17     592.81      24.35
 89.27     625.53      25.01
 89.37     630.16      25.10
 89.47     603.00      24.56
 89.57     590.00      24.29
 89.67     591.00      24.31
 89.77     579.00      24.06
 89.87     595.00      24.39
 89.97     543.00      23.30
 90.07     546.00      23.37
 90.17     539.97      23.24
 90.27     548.00      23.41
 90.37     545.00      23.35
 90.47     529.56      23.01
 90.57     516.83      22.73
 90.67     506.00      22.49
 90.77     504.00      22.45
 90.87     556.05      23.58
 90.97     534.00      23.11
 91.07     505.00      22.47
 91.17     531.00      23.04
 91.27     531.00      23.04
 91.37     488.26      22.10
 91.47     554.00      23.54
 91.57     527.00      22.96
 91.67     545.47      23.36
 91.77     485.00      22.02
 91.87     497.00      22.29
 91.97     536.54      23.16
 92.07     562.00      23.71
 92.17     550.00      23.45
 92.27     572.00      23.92
 92.37     583.19      24.15
 92.47     599.00      24.47
 92.57     655.00      25.59
 92.67     668.17      25.85
 92.77     642.00      25.34
 92.87     669.00      25.87
 92.97     652.00      25.53
 93.07     734.00      27.09
 93.17     705.00      26.55
 93.27     762.91      27.62
 93.37     765.00      27.66
 93.47     786.00      28.04
 93.57     806.26      28.39
 93.67     750.00      27.39
 93.77     809.46      28.45
 93.87     780.47      27.94
 93.97     834.00      28.88
 94.07     865.00      29.41
 94.17     859.19      29.31
 94.27     849.00      29.14
 94.37     864.00      29.39
 94.47     929.00      30.48
 94.57     925.30      30.42
 94.67     907.35      30.12
 94.77     884.00      29.73
 94.87     921.00      30.35
 94.97     851.00      29.17
 95.07     937.00      30.61
 95.17     917.00      30.28
 95.27     853.00      29.21
 95.37     850.00      29.15
 95.47     792.00      28.14
 95.57     769.00      27.73
 95.67     760.00      27.57
 95.77     706.00      26.57
 95.87     695.00      26.36
 95.97     695.00      26.36
 96.07     683.00      26.13
 96.17     737.97      27.17
 96.27     732.81      27.07
 96.37     707.00      26.59
 96.47     839.71      28.98
 96.57     819.00      28.62
 96.67     854.47      29.23
 96.77     971.00      31.16
 96.87    1000.32      31.63
 96.97    1092.96      33.06
 97.07    1197.00      34.60
 97.17    1300.00      36.06
 97.27    1271.80      35.66
 97.37    1347.00      36.70
 97.47    1436.00      37.89
 97.57    1393.18      37.33
 97.67    1430.00      37.82
 97.77    1396.00      37.36
 97.87    1427.00      37.78
 97.97    1289.00      35.90
 98.07    1291.05      35.93
 98.17    1200.13      34.64
 98.27    1199.00      34.63
 98.37    1073.00      32.76
 98.47     990.00      31.46
 98.57     908.00      30.13
 98.67     931.00      30.51
 98.77     833.00      28.86
 98.87     822.00      28.67
 98.97     840.00      28.98
 99.07     806.89      28.41
 99.17     860.00      29.33
 99.27     872.62      29.54
 99.37     941.29      30.68
 99.47    1038.00      32.22
 99.57    1084.00      32.92
 99.67    1149.86      33.91
 99.77    1304.36      36.12
 99.87    1351.00      36.76
 99.97    1480.00      38.47
100.07    1591.00      39.89
100.17    1708.96      41.34
100.27    1683.00      41.02
100.37    1786.00      42.26
100.47    2003.00      44.75
100.57    1951.91      44.18
100.67    2080.73      45.62
100.77    1941.08      44.06
100.87    2025.00      45.00
100.97    2073.66      45.54
101.07    1981.00      44.51
101.17    1921.81      43.84
101.27    1887.00      43.44
101.37    1735.00      41.65
101.47    1595.16      39.94
101.57    1560.00      39.50
101.67    1488.00      38.57
101.77    1429.00      37.80
101.87    1316.00      36.28
101.97    1233.40      35.12
102.07    1200.00      34.64
102.17    1223.18      34.97
102.27    1214.00      34.84
102.37    1173.37      34.25
102.47    1133.00      33.66
102.57    1090.00      33.02
102.67    1139.48      33.76
102.77    1098.00      33.14
102.87    1090.90      33.03
102.97    1009.85      31.78
103.07     918.04      30.30
103.17     937.00      30.61
103.27     871.00      29.51
103.37     829.00      28.79
103.47     844.58      29.06
103.57     798.00      28.25
103.67     717.00      26.78
103.77     681.24      26.10
103.87     710.00      26.65
103.97     677.00      26.02
104.07     642.00      25.34
104.17     622.80      24.96
104.27     571.00      23.90
104.37     627.00      25.04
104.47     576.27      24.01
104.57     557.00      23.60
104.67     598.00      24.45
104.77     552.00      23.49
104.87     560.00      23.66
104.97     505.12      22.47
105.07     527.82      22.97
105.17     575.00      23.98
105.27     561.12      23.69
105.37     521.00      22.83
105.47     538.00      23.19
105.57     517.00      22.74
105.67     583.00      24.15
105.77     573.22      23.94
105.87     571.51      23.91
105.97     528.40      22.99
106.07     565.00      23.77
106.17     576.60      24.01
106.27     589.47      24.28
106.37     624.00      24.98
106.47     586.54      24.22
106.57     612.00      24.74
106.67     649.00      25.48
106.77     648.02      25.46
106.87     688.00      26.23
106.97     683.00      26.13
107.07     648.39      25.46
107.17     714.00      26.72
107.27     666.10      25.81
107.37     675.00      25.98
107.47     676.56      26.01
107.57     651.00      25.51
107.67     707.34      26.60
107.77     687.76      26.23
107.87     684.04      26.15
107.97     696.00      26.38
108.07     630.00      25.10
108.17     680.00      26.08
108.27     730.60      27.03
108.37     678.00      26.04
108.47     693.00      26.32
108.57     665.00      25.79
108.67     651.19      25.52
108.77     652.18      25.54
108.87     680.00      26.08
108.97     687.00      26.21
109.07     651.56      25.53
109.17     638.83      25.28
109.27     683.26      26.14
109.37     685.39      26.18
109.47     651.00      25.51
109.57     603.00      24.56
109.67     608.87      24.68
109.77     616.00      24.82
109.87     557.00      23.60
109.97     628.50      25.07
110.07     576.00      24.00
110.17     596.00      24.41
110.27     544.40      23.33
110.37     561.00      23.69
110.47     553.00      23.52
110.57     585.00      24.19
110.67     536.89      23.17
110.77     592.00      24.33
110.87     537.00      23.17
110.97     554.00      23.54
111.07     513.00      22.65
111.17     538.00      23.19
111.27     519.00      22.78
111.37     533.84      23.10
111.47     528.00      22.98
111.57     574.10      23.96
111.67     536.00      23.15
111.77     567.22      23.82
111.87     581.79      24.12
111.97     559.00      23.64
112.07     526.44      22.94
112.17     598.00      24.45
112.27     529.62      23.01
112.37     573.00      23.94
112.47     619.15      24.88
112.57     630.06      25.10
112.67     570.00      23.87
112.77     610.00      24.70
112.87     601.00      24.52
112.97     654.16      25.58
113.07     606.00      24.62
113.17     616.00      24.82
113.27     597.00      24.43
113.37     587.00      24.23
113.47     653.55      25.56
113.57     715.67      26.75
113.67     683.00      26.13
113.77     752.71      27.44
113.87     744.00      27.28
113.97     775.00      27.84
114.07     859.95      29.32
114.17     868.59      29.47
114.27    1019.34      31.93
114.37    1051.00      32.42
114.47    1073.46      32.76
114.57    1241.00      35.23
114.67    1359.00      36.86
114.77    1466.95      38.30
114.87    1657.35      40.71
114.97    1811.42      42.56
115.07    2076.92      45.57
115.17    2373.00      48.71
115.27    2592.74      50.92
115.37    2760.95      52.54
115.47    3162.00      56.23
115.57    3453.84      58.77
115.67    3871.00      62.22
115.77    4359.93      66.03
115.87    4542.00      67.39
115.97    4902.24      70.02
116.07    5362.00      73.23
116.17    5708.00      75.55
116.27    5994.00      77.42
116.37    6241.00      79.00
116.47    6537.00      80.85
116.57    6753.00      82.18
116.67    6747.00      82.14
116.77    6657.31      81.59
116.87    6757.00      82.20
116.97    6456.49      80.35
117.07    6495.00      80.59
117.17    6189.00      78.67
117.27    5864.00      76.58
117.37    5543.00      74.45
117.47    5108.00      71.47
117.57    4955.00      70.39
117.67    4577.00      67.65
117.77    4119.63      64.18
117.87    3719.01      60.98
117.97    3397.80      58.29
118.07    3106.90      55.74
118.17    2867.00      53.54
118.27    2570.00      50.70
118.37    2279.00      47.74
118.47    1939.00      44.03
118.57    1813.00      42.58
118.67    1630.00      40.37
118.77    1428.39      37.79
118.87    1228.00      35.04
118.97    1177.07      34.31
119.07    1096.51      33.11
119.17    1034.22      32.16
119.27     897.00      29.95
119.37     892.00      29.87
119.47     816.00      28.57
119.57     778.00      27.89
119.67     717.63      26.79
119.77     715.05      26.74
119.87     678.90      26.06
119.97     657.62      25.64
120.07     620.40      24.91
120.17     596.00      24.41
120.27     607.00      24.64
120.37     577.34      24.03
120.47     576.87      24.02
120.57     569.00      23.85
120.67     574.00      23.96
120.77     593.00      24.35
120.87     616.00      24.82
120.97     564.77      23.76
121.07     536.00      23.15
121.17     576.00      24.00
121.27     539.81      23.23
121.37     600.64      24.51
121.47     565.00      23.77
121.57     624.94      25.00
121.67     610.00      24.70
121.77     644.00      25.38
121.87     589.00      24.27
121.97     577.00      24.02
122.07     609.00      24.68
122.17     601.00      24.52
122.27     588.00      24.25
122.37     662.00      25.73
122.47     635.00      25.20
122.57     581.78      24.12
122.67     646.00      25.42
122.77     642.00      25.34
122.87     640.00      25.30
122.97     632.84      25.16
123.07     617.00      24.84
123.17     615.00      24.80
123.27     610.00      24.70
123.37     660.00      25.69
123.47     641.73      25.33
123.57     618.32      24.87
123.67     659.00      25.67
123.77     632.00      25.14
123.87     655.41      25.60
123.97     595.00      24.39
124.07     617.06      24.84
124.17     593.00      24.35
124.27     605.00      24.60
124.37     642.00      25.34
124.47     595.00      24.39
124.57     625.84      25.02
124.67     598.00      24.45
124.77     562.00      23.71
124.87     596.00      24.41
124.97     563.00      23.73
