  9.97     698.00      26.42
 10.07     700.00      26.46
 10.17     722.06      26.87
 10.27     697.00      26.40
 10.37     723.00      26.89
 10.47     717.00      26.78
 10.57     638.78      25.27
 10.67     634.29      25.19
 10.77     644.16      25.38
 10.87     666.00      25.81
 10.97     722.00      26.87
 11.07     714.00      26.72
 11.17     700.24      26.46
 11.27     745.00      27.29
 11.37     667.00      25.83
 11.47     700.30      26.46
 11.57     656.46      25.62
 11.67     731.00      27.04
 11.77     724.37      26.91
 11.87     757.00      27.51
 11.97     728.30      26.99
 12.07     823.00      28.69
 12.17     786.59      28.05
 12.27     807.00      28.41
 12.37     773.00      27.80
 12.47     772.95      27.80
 12.57     755.63      27.49
 12.67     740.00      27.20
 12.77     648.00      25.46
 12.87     675.00      25.98
 12.97     701.56      26.49
 13.07     626.00      25.02
 13.17     649.00      25.48
 13.27     594.00      24.37
 13.37     656.00      25.61
 13.47     653.00      25.55
 13.57     643.00      25.36
 13.67     622.00      24.94
 13.77     614.68      24.79
 13.87     654.67      25.59
 13.97     662.00      25.73
 14.07     693.00      26.32
 14.17     682.00      26.12
 14.27     625.64      25.01
 14.37     655.00      25.59
 14.47     659.00      25.67
 14.57     677.00      26.02
 14.67     660.00      25.69
 14.77     607.00      24.64
 14.87     648.00      25.46
 14.97     607.00      24.64
 15.07     585.00      24.19
 15.17     646.00      25.42
 15.27     610.00      24.70
 15.37     606.00      24.62
 15.47     613.40      24.77
 15.57     692.54      26.32
 15.67     679.51      26.07
 15.77     602.59      24.55
 15.87     674.19      25.97
 15.97     638.74      25.27
 16.07     669.49      25.87
 16.17     622.00      24.94
 16.27     653.00      25.55
 16.37     607.00      24.64
 16.47     658.61      25.66
 16.57     680.16      26.08
 16.67     629.00      25.08
 16.77     669.00      25.87
 16.87     639.00      25.28
 16.97     667.45      25.83
 17.07     606.00      24.62
 17.17     613.65      24.77
 17.27     629.00      25.08
 17.37     605.00      24.60
 17.47     644.99      25.40
 17.57     587.14      24.23
 17.67     620.00      24.90
 17.77     594.92      24.39
 17.87     625.00      25.00
 17.97     610.00      24.70
 18.07     633.00      25.16
 18.17     614.09      24.78
 18.27     581.00      24.10
 18.37     596.00      24.41
 18.47     602.00      24.54
 18.57     596.00      24.41
 18.67     649.01      25.48
 18.77     648.90      25.47
 18.87     608.00      24.66
 18.97     665.23      25.79
 19.07     614.00      24.78
 19.17     640.00      25.30
 19.27     662.89      25.75
 19.37     633.00      25.16
 19.47     647.10      25.44
 19.57     667.02      25.83
 19.67     658.65      25.66
 19.77     585.82      24.20
 19.87     588.27      24.25
 19.97     636.00      25.22
 20.07     613.00      24.76
 20.17     630.00      25.10
 20.27     626.00      25.02
 20.37     618.00      24.86
 20.47     588.39      24.26
 20.57     613.00      24.76
 20.67     640.12      25.30
 20.77     634.19      25.18
 20.87     614.00      24.78
 20.97     608.39      24.67
 21.07     585.57      24.20
 21.17     623.28      24.97
 21.27     624.00      24.98
 21.37     597.00      24.43
 21.47     620.35      24.91
 21.57     627.00      25.04
 21.67     638.99      25.28
 21.77     648.82      25.47
 21.87     613.00      24.76
 21.97     649.00      25.48
 22.07     611.65      24.73
 22.17     583.30      24.15
 22.27     604.00      24.58
 22.37     638.00      25.26
 22.47     614.00      24.78
 22.57     641.00      25.32
 22.67     653.00      25.55
 22.77     625.00      25.00
 22.87     643.57      25.37
 22.97     565.97      23.79
 23.07     641.05      25.32
 23.17     570.35      23.88
 23.27     586.00      24.21
 23.37     630.00      25.10
 23.47     583.28      24.15
 23.57     572.00      23.92
 23.67     630.86      25.12
 23.77     605.19      24.60
 23.87     652.64      25.55
 23.97     623.00      24.96
 24.07     606.00      24.62
 24.17     621.00      24.92
 24.27     645.00      25.40
 24.37     615.86      24.82
 24.47     709.00      26.63
 24.57     597.88      24.45
 24.67     663.52      25.76
 24.77     662.00      25.73
 24.87     680.00      26.08
 24.97     713.00      26.70
 25.07     714.38      26.73
 25.17     727.00      26.96
 25.27     636.00      25.22
 25.37     620.30      24.91
 25.47     655.00      25.59
 25.57     615.00      24.80
 25.67     663.00      25.75
 25.77     668.00      25.85
 25.87     662.57      25.74
 25.97     654.00      25.57
 26.07     632.00      25.14
 26.17     587.01      24.23
 26.27     659.00      25.67
 26.37     554.00      23.54
 26.47     601.00      24.52
 26.57     654.00      25.57
 26.67     685.00      26.17
 26.77     622.30      24.95
 26.87     644.00      25.38
 26.97     633.32      25.17
 27.07     656.44      25.62
 27.17     669.00      25.87
 27.27     668.00      25.85
 27.37     715.14      26.74
 27.47     762.14      27.61
 27.57     714.90      26.74
 27.67     776.00      27.86
 27.77     823.00      28.69
 27.87     922.90      30.38
 27.97    1260.00      35.50
 28.07    1925.00      43.87
 28.17    3043.00      55.16
 28.27    4533.00      67.33
 28.37    5767.54      75.94
 28.47    6137.00      78.34
 28.57    5435.00      73.72
 28.67    3993.00      63.19
 28.77    2985.66      54.64
 28.87    2661.00      51.58
 28.97    2932.00      54.15
 29.07    3341.69      57.81
 29.17    3582.00      59.85
 29.27    2998.00      54.75
 29.37    2236.00      47.29
 29.47    1639.15      40.49
 29.57    1138.00      33.73
 29.67     994.00      31.53
 29.77     820.58      28.65
 29.87     794.00      28.18
 29.97     680.01      26.08
 30.07     758.00      27.53
 30.17     680.00      26.08
 30.27     680.00      26.08
 30.37     702.00      26.50
 30.47     633.71      25.17
 30.57     678.00      26.04
 30.67     641.50      25.33
 30.77     614.94      24.80
 30.87     662.00      25.73
 30.97     679.76      26.07
 31.07     713.00      26.70
 31.17     741.00      27.22
 31.27     743.43      27.27
 31.37     700.00      26.46
 31.47     638.83      25.28
 31.57     640.00      25.30
 31.67     603.35      24.56
 31.77     662.00      25.73
 31.87     646.00      25.42
 31.97     584.00      24.17
 32.07     645.00      25.40
 32.17     593.47      24.36
 32.27     626.00      25.02
 32.37     587.00      24.23
 32.47     573.82      23.95
 32.57     600.85      24.51
 32.67     601.00      24.52
 32.77     558.39      23.63
 32.87     632.30      25.15
 32.97     575.04      23.98
 33.07     568.86      23.85
 33.17     615.00      24.80
 33.27     601.00      24.52
 33.37     609.00      24.68
 33.47     620.00      24.90
 33.57     691.00      26.29
 33.67     638.00      25.26
 33.77     679.00      26.06
 33.87     799.82      28.28
 33.97     817.00      28.58
 34.07     987.00      31.42
 34.17    1047.35      32.36
 34.27    1126.73      33.57
 34.37    1146.00      33.85
 34.47    1022.18      31.97
 34.57     869.00      29.48
 34.67     754.57      27.47
 34.77     692.27      26.31
 34.87     719.00      26.81
 34.97     651.30      25.52
 35.07     646.00      25.42
 35.17     563.63      23.74
 35.27     669.00      25.87
 35.37     615.73      24.81
 35.47     598.00      24.45
 35.57     565.74      23.79
 35.67     579.00      24.06
 35.77     540.00      23.24
 35.87     577.00      24.02
 35.97     595.00      24.39
 36.07     585.00      24.19
 36.17     584.31      24.17
 36.27     623.86      24.98
 36.37     608.39      24.67
 36.47     563.00      23.73
 36.57     608.00      24.66
 36.67     593.24      24.36
 36.77     574.00      23.96
 36.87     580.00      24.08
 36.97     503.00      22.43
 37.07     595.00      24.39
 37.17     613.38      24.77
 37.27     598.00      24.45
 37.37     605.00      24.60
 37.47     605.00      24.60
 37.57     594.36      24.38
 37.67     613.00      24.76
 37.77     584.00      24.17
 37.87     610.00      24.70
 37.97     614.00      24.78
 38.07     704.05      26.53
 38.17     687.00      26.21
 38.27     702.39      26.50
 38.37     713.39      26.71
 38.47     638.00      25.26
 38.57     657.00      25.63
 38.67     638.00      25.26
 38.77     573.00      23.94
 38.87     580.00      24.08
 38.97     560.00      23.66
 39.07     542.00      23.28
 39.17     565.41      23.78
 39.27     580.00      24.08
 39.37     543.79      23.32
 39.47     574.36      23.97
 39.57     594.86      24.39
 39.67     534.71      23.12
 39.77     559.81      23.66
 39.87     580.82      24.10
 39.97     541.00      23.26
 40.07     537.00      23.17
 40.17     578.00      24.04
 40.27     550.72      23.47
 40.37     564.00      23.75
 40.47     531.00      23.04
 40.57     542.31      23.29
 40.67     572.46      23.93
 40.77     604.95      24.60
 40.87     548.47      23.42
 40.97     550.53      23.46
 41.07     588.00      24.25
 41.17     540.00      23.24
 41.27     606.89      24.64
 41.37     585.00      24.19
 41.47     542.25      23.29
 41.57     542.94      23.30
 41.67     556.00      23.58
 41.77     549.00      23.43
 41.87     545.00      23.35
 41.97     532.42      23.07
 42.07     515.00      22.69
 42.17     574.34      23.97
 42.27     615.55      24.81
 42.37     611.44      24.73
 42.47     597.93      24.45
 42.57     595.00      24.39
 42.67     673.42      25.95
 42.77     659.64      25.68
 42.87     719.70      26.83
 42.97     699.70      26.45
 43.07     664.56      25.78
 43.17     603.00      24.56
 43.27     676.00      26.00
 43.37     643.00      25.36
 43.47     623.93      24.98
 43.57     595.00      24.39
 43.67     543.62      23.32
 43.77     613.28      24.76
 43.87     590.24      24.29
 43.97     585.00      24.19
 44.07     591.00      24.31
 44.17     589.52      24.28
 44.27     557.62      23.61
 44.37     597.00      24.43
 44.47     601.14      24.52
 44.57     583.00      24.15
 44.67     579.00      24.06
 44.77     565.00      23.77
 44.87     565.00      23.77
 44.97     607.99      24.66
 45.07     618.00      24.86
 45.17     548.55      23.42
 45.27     582.57      24.14
 45.37     574.57      23.97
 45.47     560.00      23.66
 45.57     598.65      24.47
 45.67     585.00      24.19
 45.77     563.00      23.73
 45.87     589.00      24.27
 45.97     603.05      24.56
 46.07     614.00      24.78
 46.17     597.00      24.43
 46.27     594.00      24.37
 46.37     594.00      24.37
 46.47     565.00      23.77
 46.57     572.00      23.92
 46.67     587.29      24.23
 46.77     574.00      23.96
 46.87     603.00      24.56
 46.97     589.00      24.27
 47.07     578.20      24.05
 47.17     544.82      23.34
 47.27     538.59      23.21
 47.37     584.00      24.17
 47.47     586.76      24.22
 47.57     611.02      24.72
 47.67     639.00      25.28
 47.77     598.00      24.45
 47.87     669.11      25.87
 47.97     663.87      25.77
 48.07     642.00      25.34
 48.17     669.00      25.87
 48.27     703.00      26.51
 48.37     659.00      25.67
 48.47     639.00      25.28
 48.57     620.00      24.90
 48.67     618.00      24.86
 48.77     614.00      24.78
 48.87     567.00      23.81
 48.97     587.44      24.24
 49.07     577.00      24.02
 49.17     526.00      22.93
 49.27     595.00      24.39
 49.37     608.79      24.67
 49.47     598.79      24.47
 49.57     703.98      26.53
 49.67     675.00      25.98
 49.77     717.00      26.78
 49.87     831.00      28.83
 49.97    1005.00      31.70
 50.07    1287.00      35.87
 50.17    1692.00      41.13
 50.27    2195.00      46.85
 50.37    2588.00      50.87
 50.47    2937.54      54.20
 50.57    2907.00      53.92
 50.67    2635.00      51.33
 50.77    2336.00      48.33
 50.87    1851.00      43.02
 50.97    1388.00      37.26
 51.07    1077.00      32.82
 51.17     967.00      31.10
 51.27     818.46      28.61
 51.37     790.00      28.11
 51.47     769.00      27.73
 51.57     717.00      26.78
 51.67     716.00      26.76
 51.77     721.08      26.85
 51.87     734.00      27.09
 51.97     693.00      26.32
 52.07     664.00      25.77
 52.17     612.11      24.74
 52.27     692.00      26.31
 52.37     686.00      26.19
 52.47     653.97      25.57
 52.57     669.00      25.87
 52.67     650.00      25.50
 52.77     677.00      26.02
 52.87     628.70      25.07
 52.97     677.00      26.02
 53.07     642.24      25.34
 53.17     741.00      27.22
 53.27     766.00      27.68
 53.37     837.52      28.94
 53.47     876.00      29.60
 53.57     938.00      30.63
 53.67    1168.00      34.18
 53.77    1244.00      35.27
 53.87    1234.00      35.13
 53.97    1262.65      35.53
 54.07    1232.00      35.10
 54.17    1137.17      33.72
 54.27    1014.00      31.84
 54.37     913.41      30.22
 54.47     865.69      29.42
 54.57     767.00      27.69
 54.67     688.00      26.23
 54.77     703.00      26.51
 54.87     696.96      26.40
 54.97     687.38      26.22
 55.07     603.50      24.57
 55.17     646.00      25.42
 55.27     607.21      24.64
 55.37     667.00      25.83
 55.47     634.00      25.18
 55.57     627.00      25.04
 55.67     632.00      25.14
 55.77     633.00      25.16
 55.87     665.00      25.79
 55.97     639.00      25.28
 56.07     653.29      25.56
 56.17     686.00      26.19
 56.27     721.00      26.85
 56.37     795.00      28.20
 56.47     841.00      29.00
 56.57    1024.10      32.00
 56.67    1141.00      33.78
 56.77    1393.00      37.32
 56.87    1682.00      41.01
 56.97    2040.75      45.17
 57.07    2346.00      48.44
 57.17    2492.00      49.92
 57.27    2718.00      52.13
 57.37    2555.00      50.55
 57.47    2311.00      48.07
 57.57    2114.64      45.99
 57.67    1740.01      41.71
 57.77    1423.00      37.72
 57.87    1117.00      33.42
 57.97     960.00      30.98
 58.07     864.00      29.39
 58.17     801.00      28.30
 58.27     745.00      27.29
 58.37     821.00      28.65
 58.47     763.00      27.62
 58.57     864.00      29.39
 58.67     876.00      29.60
 58.77     949.95      30.82
 58.87     986.00      31.40
 58.97    1035.03      32.17
 59.07    1100.00      33.17
 59.17    1269.00      35.62
 59.27    1275.00      35.71
 59.37    1367.00      36.97
 59.47    1350.30      36.75
 59.57    1310.00      36.19
 59.67    1263.20      35.54
 59.77    1254.00      35.41
 59.87    1112.11      33.35
 59.97    1234.00      35.13
 60.07    1218.00      34.90
 60.17    1316.00      36.28
 60.27    1332.74      36.51
 60.37    1357.00      36.84
 60.47    1491.27      38.62
 60.57    1560.33      39.50
 60.67    1559.94      39.50
 60.77    1567.15      39.59
 60.87    1382.12      37.18
 60.97    1315.93      36.28
 61.07    1154.77      33.98
 61.17     994.00      31.53
 61.27     894.00      29.90
 61.37     798.62      28.26
 61.47     800.00      28.28
 61.57     778.00      27.89
 61.67     796.00      28.21
 61.77     839.00      28.97
 61.87     900.59      30.01
 61.97     925.00      30.41
 62.07    1039.00      32.23
 62.17    1081.00      32.88
 62.27    1347.00      36.70
 62.37    1403.00      37.46
 62.47    1576.00      39.70
 62.57    1688.00      41.09
 62.67    1586.69      39.83
 62.77    1463.00      38.25
 62.87    1402.00      37.44
 62.97    1265.61      35.58
 63.07    1095.78      33.10
 63.17     943.00      30.71
 63.27     833.97      28.88
 63.37     775.87      27.85
 63.47     726.09      26.95
 63.57     683.00      26.13
 63.67     715.76      26.75
 63.77     714.00      26.72
 63.87     708.21      26.61
 63.97     677.00      26.02
 64.07     649.61      25.49
 64.17     753.00      27.44
 64.27     796.00      28.21
 64.37     760.00      27.57
 64.47     927.00      30.45
 64.57     952.68      30.87
 64.67     967.11      31.10
 64.77    1073.22      32.76
 64.87    1227.00      35.03
 64.97    1323.00      36.37
 65.07    1363.00      36.92
 65.17    1326.04      36.41
 65.27    1353.00      36.78
 65.37    1289.19      35.91
 65.47    1190.00      34.50
 65.57    1167.87      34.17
 65.67    1032.00      32.12
 65.77     958.00      30.95
 65.87     887.00      29.78
 65.97     812.00      28.50
 66.07     744.00      27.28
 66.17     748.00      27.35
 66.27     720.00      26.83
 66.37     689.96      26.27
 66.47     696.26      26.39
 66.57     651.00      25.51
 66.67     631.81      25.14
 66.77     659.00      25.67
 66.87     629.00      25.08
 66.97     623.00      24.96
 67.07     716.52      26.77
 67.17     677.00      26.02
 67.27     705.20      26.56
 67.37     770.21      27.75
 67.47     737.00      27.15
 67.57     797.00      28.23
 67.67     944.55      30.73
 67.77    1010.46      31.79
 67.87    1117.13      33.42
 67.97    1359.00      36.86
 68.07    1495.00      38.67
 68.17    1808.00      42.52
 68.27    2040.00      45.17
 68.37    2239.37      47.32
 68.47    2427.72      49.27
 68.57    2554.00      50.54
 68.67    2421.93      49.21
 68.77    2239.00      47.32
 68.87    2086.58      45.68
 68.97    1852.37      43.04
 69.07    1735.00      41.65
 69.17    1463.00      38.25
 69.27    1237.00      35.17
 69.37    1079.00      32.85
 69.47     956.00      30.92
 69.57     898.00      29.97
 69.67     873.00      29.55
 69.77     769.56      27.74
 69.87     747.00      27.33
 69.97     754.00      27.46
 70.07     745.00      27.29
 70.17     724.00      26.91
 70.27     695.00      26.36
 70.37     714.00      26.72
 70.47     686.00      26.19
 70.57     623.34      24.97
 70.67     722.00      26.87
 70.77     627.19      25.04
 70.87     702.00      26.50
 70.97     697.73      26.41
 71.07     657.77      25.65
 71.17     702.00      26.50
 71.27     647.20      25.44
 71.37     687.84      26.23
 71.47     755.00      27.48
 71.57     844.00      29.05
 71.67     928.00      30.46
 71.77     994.00      31.53
 71.87    1072.00      32.74
 71.97    1275.98      35.72
 72.07    1436.40      37.90
 72.17    1451.00      38.09
 72.27    1634.00      40.42
 72.37    1834.00      42.83
 72.47    1850.79      43.02
 72.57    1960.79      44.28
 72.67    1943.37      44.08
 72.77    1850.24      43.01
 72.87    1663.00      40.78
 72.97    1544.00      39.29
 73.07    1382.00      37.18
 73.17    1147.00      33.87
 73.27    1090.80      33.03
 73.37     924.13      30.40
 73.47     859.00      29.31
 73.57     747.00      27.33
 73.67     725.00      26.93
 73.77     747.01      27.33
 73.87     657.37      25.64
 73.97     639.00      25.28
 74.07     680.00      26.08
 74.17     668.00      25.85
 74.27     662.00      25.73
 74.37     657.00      25.63
 74.47     625.00      25.00
 74.57     677.88      26.04
 74.67     690.60      26.28
 74.77     627.00      25.04
 74.87     611.00      24.72
 74.97     690.16      26.27
 75.07     682.00      26.12
 75.17     714.00      26.72
 75.27     652.85      25.55
 75.37     705.00      26.55
 75.47     711.00      26.66
 75.57     685.52      26.18
 75.67     637.00      25.24
 75.77     643.00      25.36
 75.87     634.50      25.19
 75.97     667.00      25.83
 76.07     690.00      26.27
 76.17     696.18      26.39
 76.27     702.55      26.51
 76.37     655.00      25.59
 76.47     702.00      26.50
 76.57     723.00      26.89
 76.67     841.53      29.01
 76.77     818.48      28.61
 76.87     855.00      29.24
 76.97     898.58      29.98
 77.07     854.05      29.22
 77.17     879.00      29.65
 77.27    1002.00      31.65
 77.37     859.00      29.31
 77.47     840.00      28.98
 77.57     836.00      28.91
 77.67     735.64      27.12
 77.77     731.76      27.05
 77.87     683.00      26.13
 77.97     650.00      25.50
 78.07     694.57      26.35
 78.17     651.00      25.51
 78.27     605.00      24.60
 78.37     618.00      24.86
 78.47     583.62      24.16
 78.57     670.00      25.88
 78.67     601.86      24.53
 78.77     626.00      25.02
 78.87     591.00      24.31
 78.97     574.00      23.96
 79.07     577.00      24.02
 79.17     557.00      23.60
 79.27     577.81      24.04
 79.37     583.69      24.16
 79.47     609.00      24.68
 79.57     601.41      24.52
 79.67     598.00      24.45
 79.77     606.00      24.62
 79.87     584.00      24.17
 79.97     655.00      25.59
 80.07     583.00      24.15
 80.17     626.27      25.03
 80.27     652.75      25.55
 80.37     692.00      26.31
 80.47     676.00      26.00
 80.57     635.24      25.20
 80.67     715.00      26.74
 80.77     753.00      27.44
 80.87     809.00      28.44
 80.97     830.03      28.81
 81.07     926.29      30.43
 81.17    1010.00      31.78
 81.27    1028.00      32.06
 81.37    1101.00      33.18
 81.47    1236.00      35.16
 81.57    1194.00      34.55
 81.67    1226.00      35.01
 81.77    1250.03      35.36
 81.87    1232.64      35.11
 81.97    1148.35      33.89
 82.07    1178.00      34.32
 82.17    1111.00      33.33
 82.27    1006.01      31.72
 82.37     964.55      31.06
 82.47     959.00      30.97
 82.57     857.48      29.28
 82.67     874.00      29.56
 82.77     796.00      28.21
 82.87     674.00      25.96
 82.97     688.00      26.23
 83.07     680.00      26.08
 83.17     719.42      26.82
 83.27     654.00      25.57
 83.37     638.00      25.26
 83.47     607.00      24.64
 83.57     619.03      24.88
 83.67     670.56      25.90
 83.77     622.15      24.94
 83.87     601.00      24.52
 83.97     621.10      24.92
 84.07     594.01      24.37
 84.17     644.00      25.38
 84.27     643.00      25.36
 84.37     613.00      24.76
 84.47     640.62      25.31
 84.57     671.45      25.91
 84.67     678.90      26.06
 84.77     614.58      24.79
 84.87     605.00      24.60
 84.97     602.00      24.54
 85.07     599.72      24.49
 85.17     617.00      24.84
 85.27     607.42      24.65
 85.37     569.00      23.85
 85.47     565.00      23.77
 85.57     616.00      24.82
 85.67     592.00      24.33
 85.77     626.29      25.03
 85.87     586.00      24.21
 85.97     583.00      24.15
 86.07     609.51      24.69
 86.17     628.00      25.06
 86.27     584.00      24.17
 86.37     652.00      25.53
 86.47     588.00      24.25
 86.57     569.00      23.85
 86.67     594.00      24.37
 86.77     604.00      24.58
 86.87     577.38      24.03
 86.97     598.00      24.45
 87.07     672.00      25.92
 87.17     616.00      24.82
 87.27     678.00      26.04
 87.37     694.41      26.35
 87.47     696.00      26.38
 87.57     687.00      26.21
 87.67     693.00      26.32
 87.77     652.00      25.53
 87.87     709.00      26.63
 87.97     740.00      27.20
 88.07     720.00      26.83
 88.17     755.00      27.48
 88.27     725.00      26.93
 88.37     710.00      26.65
 88.47     741.00      27.22
 88.57     680.00      26.08
 88.67     683.00      26.13
 88.77     658.64      25.66
 88.87     643.00      25.36
 88.97     627.00      25.04
 89.07     623.00      24.96
 89.17     619.00      24.88
 89.27     652.35      25.54
 89.37     685.00      26.17
 89.47     633.07      25.16
 89.57     623.00      24.96
 89.67     601.00      24.52
 89.77     667.00      25.83
 89.87     681.00      26.10
 89.97     659.09      25.67
 90.07     658.00      25.65
 90.17     619.72      24.89
 90.27     649.00      25.48
 90.37     674.62      25.97
 90.47     618.02      24.86
 90.57     645.00      25.40
 90.67     600.14      24.50
 90.77     600.00      24.49
 90.87     617.36      24.85
 90.97     566.00      23.79
 91.07     618.03      24.86
 91.17     598.35      24.46
 91.27     632.53      25.15
 91.37     569.00      23.85
 91.47     590.00      24.29
 91.57     600.84      24.51
 91.67     525.00      22.91
 91.77     605.00      24.60
 91.87     564.00      23.75
 91.97     609.00      24.68
 92.07     554.23      23.54
 92.17     549.00      23.43
 92.27     650.00      25.50
 92.37     577.00      24.02
 92.47     623.03      24.96
 92.57     587.00      24.23
 92.67     580.00      24.08
 92.77     651.00      25.51
 92.87     633.00      25.16
 92.97     630.00      25.10
 93.07     628.00      25.06
 93.17     667.00      25.83
 93.27     650.00      25.50
 93.37     682.00      26.12
 93.47     712.00      26.68
 93.57     690.00      26.27
 93.67     746.26      27.32
 93.77     825.58      28.73
 93.87     785.00      28.02
 93.97     780.85      27.94
 94.07     859.00      29.31
 94.17     851.00      29.17
 94.27     798.00      28.25
 94.37     853.00      29.21
 94.47     878.00      29.63
 94.57     927.60      30.46
 94.67     910.00      30.17
 94.77     910.67      30.18
 94.87     921.00      30.35
 94.97     955.00      30.90
 95.07     944.00      30.72
 95.17     989.00      31.45
 95.27    1036.00      32.19
 95.37    1051.00      32.42
 95.47     985.99      31.40
 95.57     965.00      31.06
 95.67    1014.98      31.86
 95.77     992.00      31.50
 95.87     988.00      31.43
 95.97     967.00      31.10
 96.07     860.00      29.33
 96.17     815.64      28.56
 96.27     810.44      28.47
 96.37     830.00      28.81
 96.47     849.23      29.14
 96.57     732.53      27.07
 96.67     808.00      28.43
 96.77     786.00      28.04
 96.87     841.53      29.01
 96.97     788.00      28.07
 97.07     875.00      29.58
 97.17     881.55      29.69
 97.27     995.00      31.54
 97.37     991.32      31.49
 97.47    1001.74      31.65
 97.57    1151.00      33.93
 97.67    1152.66      33.95
 97.77    1343.00      36.65
 97.87    1380.00      37.15
 97.97    1453.34      38.12
 98.07    1576.00      39.70
 98.17    1572.00      39.65
 98.27    1484.74      38.53
 98.37    1507.00      38.82
 98.47    1618.00      40.22
 98.57    1443.24      37.99
 98.67    1484.00      38.52
 98.77    1407.00      37.51
 98.87    1311.00      36.21
 98.97    1323.00      36.37
 99.07    1196.00      34.58
 99.17    1138.06      33.74
 99.27    1117.00      33.42
 99.37    1066.00      32.65
 99.47    1037.21      32.21
 99.57     998.00      31.59
 99.67     916.00      30.27
 99.77     947.00      30.77
 99.87     948.00      30.79
 99.97     986.00      31.40
100.07     977.90      31.27
100.17    1054.72      32.48
100.27    1184.20      34.41
100.37    1173.80      34.26
100.47    1327.00      36.43
100.57    1415.00      37.62
100.67    1463.00      38.25
100.77    1578.44      39.73
100.87    1637.00      40.46
100.97    1722.00      41.50
101.07    1798.87      42.41
101.17    1817.11      42.63
101.27    1964.00      44.32
101.37    2064.00      45.43
101.47    2072.00      45.52
101.57    2107.00      45.90
101.67    2089.00      45.71
101.77    2130.00      46.15
101.87    2063.12      45.42
101.97    1955.48      44.22
102.07    1936.00      44.00
102.17    1731.00      41.61
102.27    1773.00      42.11
102.37    1709.00      41.34
102.47    1635.17      40.44
102.57    1591.50      39.89
102.67    1474.65      38.40
102.77    1426.00      37.76
102.87    1392.44      37.32
102.97    1321.00      36.35
103.07    1267.00      35.59
103.17    1261.00      35.51
103.27    1221.35      34.95
103.37    1228.83      35.05
103.47    1168.00      34.18
103.57    1164.00      34.12
103.67    1129.00      33.60
103.77    1174.67      34.27
103.87    1099.00      33.15
103.97     985.06      31.39
104.07     994.22      31.53
104.17     924.15      30.40
104.27     960.05      30.98
104.37     917.00      30.28
104.47     848.01      29.12
104.57     827.46      28.77
104.67     795.00      28.20
104.77     733.00      27.07
104.87     727.89      26.98
104.97     715.00      26.74
105.07     698.00      26.42
105.17     649.00      25.48
105.27     655.62      25.61
105.37     617.00      24.84
105.47     667.00      25.83
105.57     677.00      26.02
105.67     598.00      24.45
105.77     627.00      25.04
105.87     577.39      24.03
105.97     619.00      24.88
106.07     630.00      25.10
106.17     553.00      23.52
106.27     555.93      23.58
106.37     632.90      25.16
106.47     646.00      25.42
106.57     600.85      24.51
106.67     579.87      24.08
106.77     614.85      24.80
106.87     608.44      24.67
106.97     659.95      25.69
107.07     649.00      25.48
107.17     671.00      25.90
107.27     658.63      25.66
107.37     678.98      26.06
107.47     712.56      26.69
107.57     722.00      26.87
107.67     672.30      25.93
107.77     746.00      27.31
107.87     694.31      26.35
107.97     762.00      27.60
108.07     729.00      27.00
108.17     731.00      27.04
108.27     800.00      28.28
108.37     760.72      27.58
108.47     799.00      28.27
108.57     771.00      27.77
108.67     759.00      27.55
108.77     713.00      26.70
108.87     741.00      27.22
108.97     770.56      27.76
109.07     768.00      27.71
109.17     672.00      25.92
109.27     772.46      27.79
109.37     713.06      26.70
109.47     737.00      27.15
109.57     715.00      26.74
109.67     750.15      27.39
109.77     788.00      28.07
109.87     735.61      27.12
109.97     708.39      26.62
110.07     765.91      27.68
110.17     714.00      26.72
110.27     692.00      26.31
110.37     712.00      26.68
110.47     705.00      26.55
110.57     678.57      26.05
110.67     736.00      27.13
110.77     669.00      25.87
110.87     662.00      25.73
110.97     684.00      26.15
111.07     642.00      25.34
111.17     666.85      25.82
111.27     663.00      25.75
111.37     672.94      25.94
111.47     580.32      24.09
111.57     626.57      25.03
111.67     590.00      24.29
111.77     606.00      24.62
111.87     600.00      24.49
111.97     599.00      24.47
112.07     613.79      24.77
112.17     632.00      25.14
112.27     543.07      23.30
112.37     604.00      24.58
112.47     629.00      25.08
112.57     551.43      23.48
112.67     617.03      24.84
112.77     593.00      24.35
112.87     561.00      23.69
112.97     632.00      25.14
113.07     600.00      24.49
113.17     603.49      24.57
113.27     605.00      24.60
113.37     599.12      24.48
113.47     558.00      23.62
113.57     578.08      24.04
113.67     618.00      24.86
113.77     603.00      24.56
113.87     603.60      24.57
113.97     618.00      24.86
114.07     637.00      25.24
114.17     658.00      25.65
114.27     663.00      25.75
114.37     652.00      25.53
114.47     677.00      26.02
114.57     720.48      26.84
114.67     663.00      25.75
114.77     758.00      27.53
114.87     751.00      27.40
114.97     800.14      28.29
115.07     835.00      28.90
115.17     946.00      30.76
115.27    1096.27      33.11
115.37    1072.00      32.74
115.47    1188.00      34.47
115.57    1401.00      37.43
115.67    1593.86      39.92
115.77    1658.69      40.73
115.87    1883.00      43.39
115.97    2187.22      46.77
116.07    2444.00      49.44
116.17    2639.00      51.37
116.27    3022.31      54.98
116.37    3253.27      57.04
116.47    3748.62      61.23
116.57    3969.00      63.00
116.67    4368.00      66.09
116.77    4846.07      69.61
116.87    5054.00      71.09
116.97    5518.00      74.28
117.07    5859.00      76.54
117.17    6380.00      79.87
117.27    6575.00      81.09
117.37    6989.00      83.60
117.47    7233.00      85.05
117.57    7399.00      86.02
117.67    7481.00      86.49
117.77    7421.70      86.15
117.87    7444.00      86.28
117.97    7271.00      85.27
118.07    6994.00      83.63
118.17    6886.00      82.98
118.27    6675.38      81.70
118.37    6216.31      78.84
118.47    5830.00      76.35
118.57    5329.00      73.00
118.67    5228.00      72.30
118.77    4831.00      69.51
118.87    4437.00      66.61
118.97    4055.51      63.68
119.07    3554.84      59.62
119.17    3492.00      59.09
119.27    3011.00      54.87
119.37    2751.00      52.45
119.47    2367.07      48.65
119.57    2187.06      46.77
119.67    1961.64      44.29
119.77    1762.81      41.99
119.87    1706.00      41.30
119.97    1523.00      39.03
120.07    1397.07      37.38
120.17    1274.00      35.69
120.27    1195.00      34.57
120.37    1074.31      32.78
120.47    1014.06      31.84
120.57    1029.00      32.08
120.67     958.00      30.95
120.77     867.00      29.44
120.87     825.00      28.72
120.97     765.23      27.66
121.07     819.00      28.62
121.17     749.65      27.38
121.27     760.00      27.57
121.37     720.00      26.83
121.47     691.00      26.29
121.57     670.00      25.88
121.67     709.00      26.63
121.77     663.00      25.75
121.87     663.00      25.75
121.97     660.00      25.69
122.07     651.00      25.51
122.17     651.57      25.53
122.27     646.00      25.42
122.37     690.26      26.27
122.47     684.00      26.15
122.57     665.00      25.79
122.67     710.00      26.65
122.77     656.50      25.62
122.87     696.10      26.38
122.97     656.00      25.61
123.07     652.00      25.53
123.17     741.00      27.22
123.27     667.00      25.83
123.37     671.00      25.90
123.47     792.00      28.14
123.57     744.00      27.28
123.67     711.00      26.66
123.77     727.00      26.96
123.87     790.56      28.12
123.97     768.29      27.72
124.07     797.80      28.25
124.17     764.00      27.64
124.27     723.79      26.90
124.37     751.00      27.40
124.47     742.92      27.26
124.57     772.37      27.79
124.67     761.00      27.59
124.77     769.00      27.73
124.87     703.90      26.53
124.97     750.00      27.39
