  9.97     638.00      25.26
 10.07     578.00      24.04
 10.17     589.30      24.28
 10.27     608.00      24.66
 10.37     624.00      24.98
 10.47     539.58      23.23
 10.57     607.57      24.65
 10.67     623.98      24.98
 10.77     626.80      25.04
 10.87     554.37      23.54
 10.97     571.00      23.90
 11.07     571.00      23.90
 11.17     527.00      22.96
 11.27     630.00      25.10
 11.37     570.00      23.87
 11.47     559.00      23.64
 11.57     614.00      24.78
 11.67     624.00      24.98
 11.77     652.00      25.53
 11.87     597.38      24.44
 11.97     674.00      25.96
 12.07     714.00      26.72
 12.17     694.00      26.34
 12.27     683.00      26.13
 12.37     662.00      25.73
 12.47     662.00      25.73
 12.57     626.53      25.03
 12.67     591.00      24.31
 12.77     537.00      23.17
 12.87     570.00      23.87
 12.97     548.48      23.42
 13.07     566.45      23.80
 13.17     584.00      24.17
 13.27     574.00      23.96
 13.37     597.67      24.45
 13.47     581.00      24.10
 13.57     614.61      24.79
 13.67     567.00      23.81
 13.77     550.00      23.45
 13.87     579.00      24.06
 13.97     611.67      24.73
 14.07     562.00      23.71
 14.17     595.00      24.39
 14.27     565.00      23.77
 14.37     638.00      25.26
 14.47     567.00      23.81
 14.57     565.00      23.77
 14.67     551.00      23.47
 14.77     537.20      23.18
 14.87     582.00      24.12
 14.97     565.11      23.77
 15.07     585.00      24.19
 15.17     554.90      23.56
 15.27     576.32      24.01
 15.37     586.00      24.21
 15.47     537.11      23.18
 15.57     603.78      24.57
 15.67     563.00      23.73
 15.77     575.00      23.98
 15.87     555.22      23.56
 15.97     568.71      23.85
 16.07     564.78      23.77
 16.17     573.14      23.94
 16.27     600.00      24.49
 16.37     606.65      24.63
 16.47     535.28      23.14
 16.57     606.00      24.62
 16.67     592.64      24.34
 16.77     493.00      22.20
 16.87     543.00      23.30
 16.97     567.00      23.81
 17.07     604.46      24.59
 17.17     542.74      23.30
 17.27     595.00      24.39
 17.37     536.00      23.15
 17.47     549.00      23.43
 17.57     598.45      24.46
 17.67     574.00      23.96
 17.77     598.34      24.46
 17.87     554.00      23.54
 17.97     581.00      24.10
 18.07     547.00      23.39
 18.17     562.00      23.71
 18.27     551.00      23.47
 18.37     507.00      22.52
 18.47     564.00      23.75
 18.57     600.43      24.50
 18.67     527.69      22.97
 18.77     557.00      23.60
 18.87     579.42      24.07
 18.97     559.21      23.65
 19.07     603.39      24.56
 19.17     574.00      23.96
 19.27     557.54      23.61
 19.37     552.00      23.49
 19.47     571.00      23.90
 19.57     593.12      24.35
 19.67     530.31      23.03
 19.77     534.71      23.12
 19.87     577.62      24.03
 19.97     576.00      24.00
 20.07     579.00      24.06
 20.17     603.00      24.56
 20.27     549.00      23.43
 20.37     545.00      23.35
 20.47     556.36      23.59
 20.57     578.74      24.06
 20.67     551.00      23.47
 20.77     531.30      23.05
 20.87     563.88      23.75
 20.97     556.00      23.58
 21.07     530.00      23.02
 21.17     542.00      23.28
 21.27     549.00      23.43
 21.37     535.43      23.14
 21.47     558.41      23.63
 21.57     554.00      23.54
 21.67     572.00      23.92
 21.77     577.29      24.03
 21.87     515.44      22.70
 21.97     530.37      23.03
 22.07     565.00      23.77
 22.17     558.00      23.62
 22.27     577.00      24.02
 22.37     509.00      22.56
 22.47     513.52      22.66
 22.57     581.12      24.11
 22.67     529.60      23.01
 22.77     568.00      23.83
 22.87     550.00      23.45
 22.97     548.00      23.41
 23.07     538.00      23.19
 23.17     550.00      23.45
 23.27     567.00      23.81
 23.37     541.35      23.27
 23.47     551.00      23.47
 23.57     551.28      23.48
 23.67     537.00      23.17
 23.77     559.00      23.64
 23.87     556.00      23.58
 23.97     557.00      23.60
 24.07     535.00      23.13
 24.17     560.00      23.66
 24.27     616.00      24.82
 24.37     593.49      24.36
 24.47     620.81      24.92
 24.57     626.55      25.03
 24.67     612.00      24.74
 24.77     620.00      24.90
 24.87     660.53      25.70
 24.97     625.00      25.00
 25.07     549.50      23.44
 25.17     570.00      23.87
 25.27     571.92      23.91
 25.37     586.00      24.21
 25.47     527.00      22.96
 25.57     537.00      23.17
 25.67     551.38      23.48
 25.77     563.18      23.73
 25.87     559.00      23.64
 25.97     503.02      22.43
 26.07     585.00      24.19
 26.17     509.39      22.57
 26.27     606.00      24.62
 26.37     544.00      23.32
 26.47     572.00      23.92
 26.57     551.00      23.47
 26.67     525.00      22.91
 26.77     599.00      24.47
 26.87     536.00      23.15
 26.97     546.00      23.37
 27.07     517.00      22.74
 27.17     538.07      23.20
 27.27     559.44      23.65
 27.37     512.67      22.64
 27.47     571.00      23.90
 27.57     542.00      23.28
 27.67     587.89      24.25
 27.77     540.04      23.24
 27.87     605.00      24.60
 27.97     680.00      26.08
 28.07     762.00      27.60
 28.17     894.09      29.90
 28.27     925.00      30.41
 28.37     897.00      29.95
 28.47     811.00      28.48
 28.57     715.73      26.75
 28.67     715.49      26.75
 28.77     713.67      26.71
 28.87     778.00      27.89
 28.97     811.00      28.48
 29.07     765.17      27.66
 29.17     701.64      26.49
 29.27     616.00      24.82
 29.37     587.00      24.23
 29.47     584.16      24.17
 29.57     626.00      25.02
 29.67     649.00      25.48
 29.77     530.53      23.03
 29.87     631.00      25.12
 29.97     565.00      23.77
 30.07     531.00      23.04
 30.17     562.00      23.71
 30.27     612.00      24.74
 30.37     507.00      22.52
 30.47     546.00      23.37
 30.57     522.00      22.85
 30.67     603.00      24.56
 30.77     625.00      25.00
 30.87     652.00      25.53
 30.97     603.00      24.56
 31.07     581.45      24.11
 31.17     572.00      23.92
 31.27     575.72      23.99
 31.37     518.63      22.77
 31.47     574.33      23.97
 31.57     503.75      22.44
 31.67     519.95      22.80
 31.77     565.87      23.79
 31.87     529.00      23.00
 31.97     502.92      22.43
 32.07     506.99      22.52
 32.17     505.00      22.47
 32.27     485.58      22.04
 32.37     544.00      23.32
 32.47     578.00      24.04
 32.57     516.75      22.73
 32.67     531.00      23.04
 32.77     524.92      22.91
 32.87     560.00      23.66
 32.97     511.00      22.61
 33.07     554.00      23.54
 33.17     512.33      22.63
 33.27     593.00      24.35
 33.37     548.00      23.41
 33.47     531.11      23.05
 33.57     611.00      24.72
 33.67     647.00      25.44
 33.77     764.00      27.64
 33.87     877.00      29.61
 33.97    1024.00      32.00
 34.07    1063.03      32.60
 34.17     957.20      30.94
 34.27     930.00      30.50
 34.37     727.85      26.98
 34.47     622.39      24.95
 34.57     549.83      23.45
 34.67     565.00      23.77
 34.77     558.00      23.62
 34.87     527.00      22.96
 34.97     496.00      22.27
 35.07     557.00      23.60
 35.17     523.00      22.87
 35.27     500.52      22.37
 35.37     499.00      22.34
 35.47     499.74      22.35
 35.57     525.00      22.91
 35.67     535.72      23.15
 35.77     516.00      22.72
 35.87     549.00      23.43
 35.97     517.00      22.74
 36.07     513.00      22.65
 36.17     482.00      21.95
 36.27     525.00      22.91
 36.37     522.24      22.85
 36.47     476.52      21.83
 36.57     483.00      21.98
 36.67     531.00      23.04
 36.77     525.00      22.91
 36.87     514.15      22.67
 36.97     542.01      23.28
 37.07     528.33      22.99
 37.17     539.00      23.22
 37.27     524.00      22.89
 37.37     553.83      23.53
 37.47     505.00      22.47
 37.57     492.67      22.20
 37.67     511.00      22.61
 37.77     543.00      23.30
 37.87     466.00      21.59
 37.97     537.93      23.19
 38.07     494.00      22.23
 38.17     551.95      23.49
 38.27     534.13      23.11
 38.37     502.00      22.41
 38.47     496.00      22.27
 38.57     469.67      21.67
 38.67     490.00      22.14
 38.77     480.34      21.92
 38.87     477.00      21.84
 38.97     494.00      22.23
 39.07     467.35      21.62
 39.17     510.00      22.58
 39.27     530.37      23.03
 39.37     538.37      23.20
 39.47     525.99      22.93
 39.57     513.00      22.65
 39.67     492.00      22.18
 39.77     540.41      23.25
 39.87     473.24      21.75
 39.97     464.01      21.54
 40.07     431.00      20.76
 40.17     537.00      23.17
 40.27     516.34      22.72
 40.37     465.00      21.56
 40.47     520.99      22.83
 40.57     514.00      22.67
 40.67     513.00      22.65
 40.77     532.97      23.09
 40.87     534.74      23.12
 40.97     485.00      22.02
 41.07     505.00      22.47
 41.17     521.00      22.83
 41.27     516.00      22.72
 41.37     527.13      22.96
 41.47     537.12      23.18
 41.57     529.00      23.00
 41.67     492.00      22.18
 41.77     538.00      23.19
 41.87     521.00      22.83
 41.97     515.00      22.69
 42.07     491.00      22.16
 42.17     509.00      22.56
 42.27     512.00      22.63
 42.37     573.00      23.94
 42.47     501.00      22.38
 42.57     603.00      24.56
 42.67     582.00      24.12
 42.77     576.00      24.00
 42.87     606.19      24.62
 42.97     551.00      23.47
 43.07     546.35      23.37
 43.17     501.00      22.38
 43.27     535.32      23.14
 43.37     503.24      22.43
 43.47     430.00      20.74
 43.57     496.00      22.27
 43.67     528.00      22.98
 43.77     502.95      22.43
 43.87     470.26      21.69
 43.97     519.00      22.78
 44.07     525.11      22.92
 44.17     475.36      21.80
 44.27     517.00      22.74
 44.37     550.00      23.45
 44.47     532.45      23.07
 44.57     462.14      21.50
 44.67     494.00      22.23
 44.77     507.04      22.52
 44.87     488.54      22.10
 44.97     533.43      23.10
 45.07     510.00      22.58
 45.17     501.59      22.40
 45.27     495.90      22.27
 45.37     513.05      22.65
 45.47     526.00      22.93
 45.57     470.00      21.68
 45.67     480.24      21.91
 45.77     462.00      21.49
 45.87     535.75      23.15
 45.97     501.00      22.38
 46.07     511.00      22.61
 46.17     480.00      21.91
 46.27     513.00      22.65
 46.37     473.68      21.76
 46.47     475.00      21.79
 46.57     498.00      22.32
 46.67     516.00      22.72
 46.77     520.00      22.80
 46.87     468.00      21.63
 46.97     529.00      23.00
 47.07     503.00      22.43
 47.17     554.76      23.55
 47.27     503.00      22.43
 47.37     524.00      22.89
 47.47     519.00      22.78
 47.57     551.00      23.47
 47.67     564.00      23.75
 47.77     578.00      24.04
 47.87     603.00      24.56
 47.97     555.27      23.56
 48.07     583.00      24.15
 48.17     515.00      22.69
 48.27     546.00      23.37
 48.37     543.00      23.30
 48.47     538.72      23.21
 48.57     522.26      22.85
 48.67     504.30      22.46
 48.77     558.00      23.62
 48.87     509.09      22.56
 48.97     541.00      23.26
 49.07     539.00      23.22
 49.17     616.00      24.82
 49.27     593.00      24.35
 49.37     665.00      25.79
 49.47     719.32      26.82
 49.57     803.00      28.34
 49.67     886.00      29.77
 49.77    1172.00      34.23
 49.87    1444.00      38.00
 49.97    1810.00      42.54
 50.07    2240.05      47.33
 50.17    2499.00      49.99
 50.27    2508.03      50.08
 50.37    2357.00      48.55
 50.47    1912.00      43.73
 50.57    1386.22      37.23
 50.67    1039.00      32.23
 50.77     830.00      28.81
 50.87     692.00      26.31
 50.97     631.07      25.12
 51.07     631.00      25.12
 51.17     569.18      23.86
 51.27     603.00      24.56
 51.37     609.88      24.70
 51.47     613.00      24.76
 51.57     585.00      24.19
 51.67     566.43      23.80
 51.77     566.00      23.79
 51.87     529.00      23.00
 51.97     509.00      22.56
 52.07     583.00      24.15
 52.17     542.00      23.28
 52.27     608.00      24.66
 52.37     564.00      23.75
 52.47     604.00      24.58
 52.57     521.00      22.83
 52.67     601.00      24.52
 52.77     635.00      25.20
 52.87     592.15      24.33
 52.97     724.00      26.91
 53.07     804.00      28.35
 53.17     886.04      29.77
 53.27     995.00      31.54
 53.37    1102.00      33.20
 53.47    1198.00      34.61
 53.57    1168.00      34.18
 53.67    1175.90      34.29
 53.77    1018.00      31.91
 53.87     837.00      28.93
 53.97     752.00      27.42
 54.07     650.00      25.50
 54.17     630.00      25.10
 54.27     556.00      23.58
 54.37     525.47      22.92
 54.47     586.98      24.23
 54.57     566.00      23.79
 54.67     528.10      22.98
 54.77     534.00      23.11
 54.87     525.00      22.91
 54.97     583.45      24.15
 55.07     613.00      24.76
 55.17     581.00      24.10
 55.27     553.00      23.52
 55.37     589.40      24.28
 55.47     556.00      23.58
 55.57     562.00      23.71
 55.67     603.70      24.57
 55.77     544.04      23.32
 55.87     597.00      24.43
 55.97     600.59      24.51
 56.07     664.00      25.77
 56.17     792.36      28.15
 56.27     957.07      30.94
 56.37    1101.25      33.19
 56.47    1439.80      37.94
 56.57    1727.89      41.57
 56.67    2196.00      46.86
 56.77    2405.00      49.04
 56.87    2696.45      51.93
 56.97    2598.00      50.97
 57.07    2409.00      49.08
 57.17    2046.00      45.23
 57.27    1674.00      40.91
 57.37    1282.00      35.81
 57.47    1018.96      31.92
 57.57     869.00      29.48
 57.67     790.00      28.11
 57.77     730.00      27.02
 57.87     688.02      26.23
 57.97     662.00      25.73
 58.07     694.00      26.34
 58.17     749.43      27.38
 58.27     764.00      27.64
 58.37     865.00      29.41
 58.47     965.00      31.06
 58.57    1093.71      33.07
 58.67    1328.13      36.44
 58.77    1437.00      37.91
 58.87    1552.00      39.40
 58.97    1637.56      40.47
 59.07    1517.45      38.95
 59.17    1585.00      39.81
 59.27    1522.00      39.01
 59.37    1373.00      37.05
 59.47    1211.06      34.80
 59.57    1168.00      34.18
 59.67    1143.00      33.81
 59.77    1141.00      33.78
 59.87    1186.46      34.44
 59.97    1290.00      35.92
 60.07    1417.00      37.64
 60.17    1522.00      39.01
 60.27    1577.98      39.72
 60.37    1542.00      39.27
 60.47    1453.00      38.12
 60.57    1218.00      34.90
 60.67    1062.00      32.59
 60.77     874.36      29.57
 60.87     755.86      27.49
 60.97     686.00      26.19
 61.07     647.63      25.45
 61.17     624.00      24.98
 61.27     637.99      25.26
 61.37     673.00      25.94
 61.47     708.00      26.61
 61.57     798.02      28.25
 61.67     864.58      29.40
 61.77    1003.00      31.67
 61.87    1061.00      32.57
 61.97    1215.00      34.86
 62.07    1388.00      37.26
 62.17    1391.00      37.30
 62.27    1490.93      38.61
 62.37    1351.11      36.76
 62.47    1226.16      35.02
 62.57     963.00      31.03
 62.67     918.86      30.31
 62.77     765.00      27.66
 62.87     687.00      26.21
 62.97     644.22      25.38
 63.07     616.00      24.82
 63.17     541.00      23.26
 63.27     582.73      24.14
 63.37     525.80      22.93
 63.47     583.00      24.15
 63.57     567.00      23.81
 63.67     634.00      25.18
 63.77     591.70      24.32
 63.87     602.62      24.55
 63.97     631.00      25.12
 64.07     724.00      26.91
 64.17     752.00      27.42
 64.27     800.00      28.28
 64.37     917.13      30.28
 64.47     989.00      31.45
 64.57     977.00      31.26
 64.67    1047.01      32.36
 64.77    1053.00      32.45
 64.87    1012.01      31.81
 64.97     863.35      29.38
 65.07     889.00      29.82
 65.17     774.00      27.82
 65.27     758.58      27.54
 65.37     677.00      26.02
 65.47     694.40      26.35
 65.57     618.00      24.86
 65.67     606.30      24.62
 65.77     544.65      23.34
 65.87     545.28      23.35
 65.97     526.24      22.94
 66.07     558.00      23.62
 66.17     541.00      23.26
 66.27     558.00      23.62
 66.37     528.00      22.98
 66.47     575.31      23.99
 66.57     522.44      22.86
 66.67     525.48      22.92
 66.77     577.34      24.03
 66.87     613.00      24.76
 66.97     606.00      24.62
 67.07     618.00      24.86
 67.17     660.00      25.69
 67.27     726.62      26.96
 67.37     927.08      30.45
 67.47    1010.67      31.79
 67.57    1190.00      34.50
 67.67    1509.00      38.85
 67.77    1724.11      41.52
 67.87    1999.00      44.71
 67.97    2297.00      47.93
 68.07    2448.00      49.48
 68.17    2397.43      48.96
 68.27    2261.00      47.55
 68.37    2058.97      45.38
 68.47    1802.82      42.46
 68.57    1551.00      39.38
 68.67    1224.86      35.00
 68.77    1003.00      31.67
 68.87     901.00      30.02
 68.97     749.21      27.37
 69.07     666.17      25.81
 69.17     643.00      25.36
 69.27     651.00      25.51
 69.37     549.04      23.43
 69.47     584.00      24.17
 69.57     546.41      23.38
 69.67     587.13      24.23
 69.77     588.03      24.25
 69.87     657.00      25.63
 69.97     578.00      24.04
 70.07     576.00      24.00
 70.17     588.50      24.26
 70.27     598.00      24.45
 70.37     593.02      24.35
 70.47     576.00      24.00
 70.57     581.00      24.10
 70.67     598.75      24.47
 70.77     597.00      24.43
 70.87     574.00      23.96
 70.97     612.21      24.74
 71.07     615.00      24.80
 71.17     692.00      26.31
 71.27     823.27      28.69
 71.37     923.88      30.40
 71.47    1033.00      32.14
 71.57    1222.94      34.97
 71.67    1454.24      38.13
 71.77    1636.00      40.45
 71.87    1762.00      41.98
 71.97    1872.00      43.27
 72.07    1938.62      44.03
 72.17    1983.00      44.53
 72.27    1745.00      41.77
 72.37    1695.04      41.17
 72.47    1463.37      38.25
 72.57    1334.91      36.54
 72.67    1181.76      34.38
 72.77    1118.00      33.44
 72.87     965.06      31.07
 72.97     901.00      30.02
 73.07     880.00      29.66
 73.17     789.00      28.09
 73.27     739.00      27.18
 73.37     717.20      26.78
 73.47     655.00      25.59
 73.57     621.00      24.92
 73.67     598.00      24.45
 73.77     549.00      23.43
 73.87     578.00      24.04
 73.97     578.24      24.05
 74.07     622.85      24.96
 74.17     551.25      23.48
 74.27     601.00      24.52
 74.37     663.00      25.75
 74.47     623.00      24.96
 74.57     592.00      24.33
 74.67     659.00      25.67
 74.77     549.79      23.45
 74.87     627.00      25.04
 74.97     627.00      25.04
 75.07     567.58      23.82
 75.17     517.47      22.75
 75.27     508.36      22.55
 75.37     528.02      22.98
 75.47     551.03      23.47
 75.57     545.00      23.35
 75.67     552.00      23.49
 75.77     561.00      23.69
 75.87     609.00      24.68
 75.97     634.08      25.18
 76.07     588.67      24.26
 76.17     638.30      25.26
 76.27     666.00      25.81
 76.37     684.00      26.15
 76.47     694.00      26.34
 76.57     700.00      26.46
 76.67     727.00      26.96
 76.77     676.00      26.00
 76.87     639.18      25.28
 76.97     631.00      25.12
 77.07     638.00      25.26
 77.17     611.00      24.72
 77.27     583.00      24.15
 77.37     562.00      23.71
 77.47     546.00      23.37
 77.57     528.21      22.98
 77.67     574.00      23.96
 77.77     513.38      22.66
 77.87     520.00      22.80
 77.97     520.00      22.80
 78.07     517.69      22.75
 78.17     569.57      23.87
 78.27     550.00      23.45
 78.37     516.00      22.72
 78.47     551.24      23.48
 78.57     510.00      22.58
 78.67     516.50      22.73
 78.77     563.00      23.73
 78.87     509.22      22.57
 78.97     514.00      22.67
 79.07     548.62      23.42
 79.17     526.00      22.93
 79.27     530.00      23.02
 79.37     548.40      23.42
 79.47     528.14      22.98
 79.57     538.00      23.19
 79.67     543.00      23.30
 79.77     549.45      23.44
 79.87     536.64      23.17
 79.97     578.31      24.05
 80.07     566.00      23.79
 80.17     571.06      23.90
 80.27     606.17      24.62
 80.37     612.00      24.74
 80.47     589.00      24.27
 80.57     635.59      25.21
 80.67     640.00      25.30
 80.77     634.00      25.18
 80.87     661.00      25.71
 80.97     705.00      26.55
 81.07     692.00      26.31
 81.17     725.00      26.93
 81.27     775.00      27.84
 81.37     760.00      27.57
 81.47     740.01      27.20
 81.57     781.00      27.95
 81.67     757.00      27.51
 81.77     737.36      27.15
 81.87     661.17      25.71
 81.97     710.33      26.65
 82.07     711.00      26.66
 82.17     658.00      25.65
 82.27     613.00      24.76
 82.37     623.00      24.96
 82.47     646.37      25.42
 82.57     604.00      24.58
 82.67     562.00      23.71
 82.77     568.00      23.83
 82.87     602.00      24.54
 82.97     586.00      24.21
 83.07     575.96      24.00
 83.17     591.48      24.32
 83.27     511.00      22.61
 83.37     514.00      22.67
 83.47     576.34      24.01
 83.57     569.00      23.85
 83.67     529.00      23.00
 83.77     543.23      23.31
 83.87     619.00      24.88
 83.97     535.36      23.14
 84.07     566.00      23.79
 84.17     611.83      24.74
 84.27     569.78      23.87
 84.37     556.00      23.58
 84.47     508.00      22.54
 84.57     541.00      23.26
 84.67     536.00      23.15
 84.77     543.00      23.30
 84.87     541.83      23.28
 84.97     486.00      22.05
 85.07     533.00      23.09
 85.17     539.21      23.22
 85.27     513.00      22.65
 85.37     539.00      23.22
 85.47     544.00      23.32
 85.57     528.00      22.98
 85.67     500.00      22.36
 85.77     565.60      23.78
 85.87     515.00      22.69
 85.97     549.00      23.43
 86.07     532.00      23.07
 86.17     518.00      22.76
 86.27     556.93      23.60
 86.37     563.92      23.75
 86.47     552.80      23.51
 86.57     526.00      22.93
 86.67     586.00      24.21
 86.77     545.00      23.35
 86.87     584.83      24.18
 86.97     581.55      24.12
 87.07     571.41      23.90
 87.17     626.00      25.02
 87.27     600.00      24.49
 87.37     629.94      25.10
 87.47     618.00      24.86
 87.57     657.00      25.63
 87.67     702.00      26.50
 87.77     611.74      24.73
 87.87     638.00      25.26
 87.97     612.00      24.74
 88.07     642.00      25.34
 88.17     539.87      23.24
 88.27     622.00      24.94
 88.37     570.00      23.87
 88.47     573.00      23.94
 88.57     590.31      24.30
 88.67     580.81      24.10
 88.77     565.00      23.77
 88.87     583.34      24.15
 88.97     571.00      23.90
 89.07     615.00      24.80
 89.17     583.00      24.15
 89.27     606.00      24.62
 89.37     586.36      24.21
 89.47     624.54      24.99
 89.57     555.00      23.56
 89.67     600.00      24.49
 89.77     554.00      23.54
 89.87     564.00      23.75
 89.97     571.00      23.90
 90.07     591.00      24.31
 90.17     540.00      23.24
 90.27     575.03      23.98
 90.37     471.00      21.70
 90.47     513.00      22.65
 90.57     482.00      21.95
 90.67     518.00      22.76
 90.77     478.00      21.86
 90.87     523.00      22.87
 90.97     519.00      22.78
 91.07     512.00      22.63
 91.17     541.00      23.26
 91.27     532.00      23.07
 91.37     551.61      23.49
 91.47     521.09      22.83
 91.57     544.00      23.32
 91.67     524.00      22.89
 91.77     510.44      22.59
 91.87     539.00      23.22
 91.97     528.66      22.99
 92.07     529.00      23.00
 92.17     548.00      23.41
 92.27     593.00      24.35
 92.37     608.00      24.66
 92.47     590.06      24.29
 92.57     626.00      25.02
 92.67     691.00      26.29
 92.77     678.87      26.06
 92.87     708.00      26.61
 92.97     773.00      27.80
 93.07     727.00      26.96
 93.17     803.00      28.34
 93.27     760.50      27.58
 93.37     763.00      27.62
 93.47     794.74      28.19
 93.57     817.54      28.59
 93.67     820.00      28.64
 93.77     835.00      28.90
 93.87     882.00      29.70
 93.97     880.86      29.68
 94.07     861.00      29.34
 94.17     824.54      28.71
 94.27     864.93      29.41
 94.37     871.11      29.51
 94.47     864.00      29.39
 94.57     878.00      29.63
 94.67     935.75      30.59
 94.77     904.41      30.07
 94.87     918.00      30.30
 94.97     907.00      30.12
 95.07     903.00      30.05
 95.17     829.88      28.81
 95.27     863.20      29.38
 95.37     847.00      29.10
 95.47     755.00      27.48
 95.57     732.00      27.06
 95.67     719.00      26.81
 95.77     713.00      26.70
 95.87     721.76      26.87
 95.97     694.00      26.34
 96.07     740.00      27.20
 96.17     741.00      27.22
 96.27     753.00      27.44
 96.37     708.24      26.61
 96.47     818.00      28.60
 96.57     817.00      28.58
 96.67     913.00      30.22
 96.77     983.00      31.35
 96.87    1047.00      32.36
 96.97    1172.10      34.24
 97.07    1269.00      35.62
 97.17    1287.34      35.88
 97.27    1321.54      36.35
 97.37    1436.86      37.91
 97.47    1469.05      38.33
 97.57    1401.22      37.43
 97.67    1372.32      37.04
 97.77    1429.00      37.80
 97.87    1389.00      37.27
 97.97    1369.00      37.00
 98.07    1249.00      35.34
 98.17    1238.00      35.19
 98.27    1066.27      32.65
 98.37     995.25      31.55
 98.47     974.00      31.21
 98.57     857.01      29.27
 98.67     853.94      29.22
 98.77     793.00      28.16
 98.87     792.00      28.14
 98.97     764.00      27.64
 99.07     818.00      28.60
 99.17     883.03      29.72
 99.27     892.00      29.87
 99.37     930.00      30.50
 99.47     959.00      30.97
 99.57    1082.62      32.90
 99.67    1174.00      34.26
 99.77    1241.00      35.23
 99.87    1358.66      36.86
 99.97    1553.00      39.41
100.07    1721.00      41.48
100.17    1737.00      41.68
100.27    1831.00      42.79
100.37    1912.00      43.73
100.47    2017.00      44.91
100.57    2030.00      45.06
100.67    2196.00      46.86
100.77    2079.00      45.60
100.87    2052.50      45.30
100.97    2099.38      45.82
101.07    1907.54      43.68
101.17    1957.24      44.24
101.27    1822.00      42.68
101.37    1739.00      41.70
101.47    1652.02      40.65
101.57    1522.00      39.01
101.67    1435.00      37.88
101.77    1340.37      36.61
101.87    1362.44      36.91
101.97    1207.00      34.74
102.07    1167.00      34.16
102.17    1124.00      33.53
102.27    1172.00      34.23
102.37    1101.46      33.19
102.47    1045.13      32.33
102.57    1085.00      32.94
102.67    1069.00      32.70
102.77    1065.38      32.64
102.87     942.53      30.70
102.97     931.09      30.51
103.07     927.63      30.46
103.17     879.00      29.65
103.27     833.00      28.86
103.37     812.70      28.51
103.47     726.00      26.94
103.57     728.00      26.98
103.67     718.68      26.81
103.77     678.00      26.04
103.87     627.01      25.04
103.97     641.00      25.32
104.07     548.10      23.41
104.17     584.00      24.17
104.27     563.00      23.73
104.37     605.00      24.60
104.47     511.00      22.61
104.57     542.46      23.29
104.67     567.00      23.81
104.77     559.41      23.65
104.87     530.00      23.02
104.97     515.20      22.70
105.07     545.00      23.35
105.17     560.00      23.66
105.27     562.89      23.73
105.37     530.00      23.02
105.47     531.00      23.04
105.57     553.00      23.52
105.67     590.00      24.29
105.77     540.00      23.24
105.87     513.00      22.65
105.97     568.00      23.83
106.07     549.00      23.43
106.17     595.00      24.39
106.27     609.00      24.68
106.37     645.00      25.40
106.47     584.00      24.17
106.57     597.00      24.43
106.67     632.10      25.14
106.77     655.00      25.59
106.87     632.00      25.14
106.97     655.73      25.61
107.07     711.41      26.67
107.17     693.00      26.32
107.27     670.92      25.90
107.37     600.00      24.49
107.47     682.00      26.12
107.57     630.00      25.10
107.67     682.00      26.12
107.77     688.00      26.23
107.87     674.00      25.96
107.97     674.00      25.96
108.07     687.00      26.21
108.17     682.00      26.12
108.27     647.53      25.45
108.37     668.26      25.85
108.47     694.00      26.34
108.57     719.00      26.81
108.67     716.00      26.76
108.77     736.00      27.13
108.87     684.00      26.15
108.97     693.00      26.32
109.07     669.54      25.88
109.17     688.00      26.23
109.27     654.13      25.58
109.37     632.00      25.14
109.47     606.94      24.64
109.57     588.00      24.25
109.67     580.79      24.10
109.77     586.60      24.22
109.87     607.00      24.64
109.97     568.81      23.85
110.07     602.49      24.55
110.17     587.00      24.23
110.27     555.62      23.57
110.37     537.12      23.18
110.47     523.38      22.88
110.57     574.00      23.96
110.67     546.00      23.37
110.77     505.00      22.47
110.87     531.84      23.06
110.97     576.00      24.00
111.07     592.00      24.33
111.17     531.00      23.04
111.27     525.97      22.93
111.37     545.64      23.36
111.47     547.10      23.39
111.57     577.84      24.04
111.67     541.00      23.26
111.77     590.00      24.29
111.87     572.00      23.92
111.97     563.00      23.73
112.07     557.00      23.60
112.17     532.00      23.07
112.27     548.00      23.41
112.37     570.71      23.89
112.47     615.00      24.80
112.57     605.00      24.60
112.67     613.00      24.76
112.77     677.00      26.02
112.87     646.00      25.42
112.97     678.00      26.04
113.07     682.00      26.12
113.17     671.27      25.91
113.27     714.00      26.72
113.37     747.56      27.34
113.47     844.00      29.05
113.57     919.00      30.32
113.67     831.51      28.84
113.77     909.00      30.15
113.87    1000.00      31.62
113.97    1002.19      31.66
114.07    1032.00      32.12
114.17    1099.00      33.15
114.27    1253.59      35.41
114.37    1282.00      35.81
114.47    1314.00      36.25
114.57    1419.00      37.67
114.67    1606.00      40.07
114.77    1834.00      42.83
114.87    1901.00      43.60
114.97    2174.00      46.63
115.07    2358.00      48.56
115.17    2642.90      51.41
115.27    2850.00      53.39
115.37    3010.00      54.86
115.47    3367.00      58.03
115.57    3834.00      61.92
115.67    4069.00      63.79
115.77    4512.00      67.17
115.87    5027.02      70.90
115.97    5249.96      72.46
116.07    5547.00      74.48
116.17    5932.74      77.02
116.27    6253.00      79.08
116.37    6678.00      81.72
116.47    6825.00      82.61
116.57    6796.17      82.44
116.67    7006.00      83.70
116.77    6840.92      82.71
116.87    6967.00      83.47
116.97    6709.00      81.91
117.07    6306.00      79.41
117.17    6115.00      78.20
117.27    5674.00      75.33
117.37    5330.00      73.01
117.47    5034.00      70.95
117.57    4703.24      68.58
117.67    4192.84      64.75
117.77    4051.00      63.65
117.87    3474.22      58.94
117.97    3362.00      57.98
118.07    2923.00      54.06
118.17    2528.00      50.28
118.27    2255.00      47.49
118.37    1962.00      44.29
118.47    1777.78      42.16
118.57    1563.00      39.53
118.67    1444.99      38.01
118.77    1220.00      34.93
118.87    1139.15      33.75
118.97     986.00      31.40
119.07     905.00      30.08
119.17     869.08      29.48
119.27     817.00      28.58
119.37     749.00      27.37
119.47     717.00      26.78
119.57     678.00      26.04
119.67     691.57      26.30
119.77     667.15      25.83
119.87     585.00      24.19
119.97     619.00      24.88
120.07     589.00      24.27
120.17     567.00      23.81
120.27     594.00      24.37
120.37     579.00      24.06
120.47     607.15      24.64
120.57     531.00      23.04
120.67     579.00      24.06
120.77     602.86      24.55
120.87     573.00      23.94
120.97     581.00      24.10
121.07     600.00      24.49
121.17     580.64      24.10
121.27     584.00      24.17
121.37     583.00      24.15
121.47     590.66      24.30
121.57     584.00      24.17
121.67     563.21      23.73
121.77     581.00      24.10
121.87     595.00      24.39
121.97     593.00      24.35
122.07     647.42      25.44
122.17     630.00      25.10
122.27     651.86      25.53
122.37     592.99      24.35
122.47     597.11      24.44
122.57     660.84      25.71
122.67     641.85      25.33
122.77     609.75      24.69
122.87     667.58      25.84
122.97     640.14      25.30
123.07     614.63      24.79
123.17     672.00      25.92
123.27     642.77      25.35
123.37     682.67      26.13
123.47     668.00      25.85
123.57     670.56      25.90
123.67     648.92      25.47
123.77     609.00      24.68
123.87     647.00      25.44
123.97     627.00      25.04
124.07     601.00      24.52
124.17     651.48      25.52
124.27     612.32      24.75
124.37     638.88      25.28
124.47     577.07      24.02
124.57     633.00      25.16
124.67     608.19      24.66
124.77     565.20      23.77
124.87     641.00      25.32
124.97     594.00      24.37
