  9.97     640.00      25.30
 10.07     612.50      24.75
 10.17     550.00      23.45
 10.27     531.83      23.06
 10.37     566.00      23.79
 10.47     556.00      23.58
 10.57     565.12      23.77
 10.67     554.86      23.56
 10.77     586.00      24.21
 10.87     554.79      23.55
 10.97     618.00      24.86
 11.07     542.28      23.29
 11.17     580.00      24.08
 11.27     612.58      24.75
 11.37     580.00      24.08
 11.47     543.28      23.31
 11.57     587.00      24.23
 11.67     619.00      24.88
 11.77     609.00      24.68
 11.87     596.83      24.43
 11.97     601.93      24.53
 12.07     680.00      26.08
 12.17     696.00      26.38
 12.27     745.57      27.31
 12.37     595.00      24.39
 12.47     677.32      26.03
 12.57     609.00      24.68
 12.67     633.00      25.16
 12.77     563.00      23.73
 12.87     593.76      24.37
 12.97     565.00      23.77
 13.07     557.00      23.60
 13.17     571.00      23.90
 13.27     564.00      23.75
 13.37     563.00      23.73
 13.47     594.74      24.39
 13.57     598.15      24.46
 13.67     601.00      24.52
 13.77     575.00      23.98
 13.87     527.00      22.96
 13.97     529.00      23.00
 14.07     577.65      24.03
 14.17     539.00      23.22
 14.27     569.00      23.85
 14.37     574.00      23.96
 14.47     632.00      25.14
 14.57     584.00      24.17
 14.67     605.25      24.60
 14.77     512.00      22.63
 14.87     588.00      24.25
 14.97     558.00      23.62
 15.07     594.33      24.38
 15.17     538.00      23.19
 15.27     575.00      23.98
 15.37     556.00      23.58
 15.47     562.53      23.72
 15.57     529.52      23.01
 15.67     547.00      23.39
 15.77     538.85      23.21
 15.87     574.76      23.97
 15.97     606.53      24.63
 16.07     525.90      22.93
 16.17     583.00      24.15
 16.27     586.00      24.21
 16.37     521.61      22.84
 16.47     581.14      24.11
 16.57     560.00      23.66
 16.67     591.00      24.31
 16.77     609.81      24.69
 16.87     611.00      24.72
 16.97     560.35      23.67
 17.07     555.00      23.56
 17.17     560.00      23.66
 17.27     569.00      23.85
 17.37     564.00      23.75
 17.47     559.00      23.64
 17.57     608.43      24.67
 17.67     559.00      23.64
 17.77     580.00      24.08
 17.87     549.26      23.44
 17.97     537.00      23.17
 18.07     506.00      22.49
 18.17     543.00      23.30
 18.27     560.00      23.66
 18.37     588.00      24.25
 18.47     520.00      22.80
 18.57     562.34      23.71
 18.67     580.11      24.09
 18.77     533.00      23.09
 18.87     553.00      23.52
 18.97     548.00      23.41
 19.07     533.81      23.10
 19.17     581.00      24.10
 19.27     566.00      23.79
 19.37     601.00      24.52
 19.47     541.00      23.26
 19.57     555.74      23.57
 19.67     612.00      24.74
 19.77     523.00      22.87
 19.87     532.00      23.07
 19.97     577.00      24.02
 20.07     553.00      23.52
 20.17     599.00      24.47
 20.27     559.62      23.66
 20.37     596.15      24.42
 20.47     525.14      22.92
 20.57     548.00      23.41
 20.67     535.20      23.13
 20.77     543.37      23.31
 20.87     547.00      23.39
 20.97     583.00      24.15
 21.07     509.00      22.56
 21.17     558.81      23.64
 21.27     533.00      23.09
 21.37     551.00      23.47
 21.47     571.85      23.91
 21.57     531.72      23.06
 21.67     521.35      22.83
 21.77     519.00      22.78
 21.87     573.00      23.94
 21.97     592.00      24.33
 22.07     549.79      23.45
 22.17     535.00      23.13
 22.27     552.00      23.49
 22.37     577.64      24.03
 22.47     546.00      23.37
 22.57     517.00      22.74
 22.67     570.52      23.89
 22.77     581.08      24.11
 22.87     496.00      22.27
 22.97     532.00      23.07
 23.07     572.00      23.92
 23.17     587.00      24.23
 23.27     511.00      22.61
 23.37     516.72      22.73
 23.47     512.20      22.63
 23.57     580.04      24.08
 23.67     507.00      22.52
 23.77     543.00      23.30
 23.87     562.00      23.71
 23.97     580.00      24.08
 24.07     537.36      23.18
 24.17     568.89      23.85
 24.27     601.46      24.52
 24.37     568.00      23.83
 24.47     578.00      24.04
 24.57     602.00      24.54
 24.67     627.00      25.04
 24.77     650.00      25.50
 24.87     692.00      26.31
 24.97     636.00      25.22
 25.07     619.00      24.88
 25.17     531.00      23.04
 25.27     527.00      22.96
 25.37     562.00      23.71
 25.47     535.39      23.14
 25.57     526.00      22.93
 25.67     574.00      23.96
 25.77     581.00      24.10
 25.87     580.59      24.10
 25.97     558.13      23.62
 26.07     513.82      22.67
 26.17     589.00      24.27
 26.27     536.00      23.15
 26.37     523.49      22.88
 26.47     551.00      23.47
 26.57     513.97      22.67
 26.67     568.65      23.85
 26.77     502.85      22.42
 26.87     567.83      23.83
 26.97     549.00      23.43
 27.07     542.00      23.28
 27.17     544.00      23.32
 27.27     611.00      24.72
 27.37     606.00      24.62
 27.47     541.00      23.26
 27.57     503.63      22.44
 27.67     583.00      24.15
 27.77     545.00      23.35
 27.87     548.47      23.42
 27.97     676.78      26.02
 28.07     818.97      28.62
 28.17     941.00      30.68
 28.27     980.00      31.30
 28.37     891.15      29.85
 28.47     808.00      28.43
 28.57     762.00      27.60
 28.67     704.00      26.53
 28.77     716.92      26.78
 28.87     835.00      28.90
 28.97     803.00      28.34
 29.07     777.00      27.87
 29.17     719.00      26.81
 29.27     645.00      25.40
 29.37     561.90      23.70
 29.47     530.00      23.02
 29.57     611.44      24.73
 29.67     571.00      23.90
 29.77     539.84      23.23
 29.87     562.00      23.71
 29.97     567.00      23.81
 30.07     523.07      22.87
 30.17     581.00      24.10
 30.27     560.80      23.68
 30.37     527.85      22.97
 30.47     543.00      23.30
 30.57     533.00      23.09
 30.67     606.00      24.62
 30.77     608.00      24.66
 30.87     631.00      25.12
 30.97     623.00      24.96
 31.07     629.00      25.08
 31.17     572.00      23.92
 31.27     541.00      23.26
 31.37     572.07      23.92
 31.47     521.00      22.83
 31.57     606.00      24.62
 31.67     513.93      22.67
 31.77     555.37      23.57
 31.87     510.00      22.58
 31.97     509.00      22.56
 32.07     517.03      22.74
 32.17     537.00      23.17
 32.27     545.94      23.37
 32.37     501.31      22.39
 32.47     539.89      23.24
 32.57     553.80      23.53
 32.67     554.41      23.55
 32.77     543.00      23.30
 32.87     599.00      24.47
 32.97     490.00      22.14
 33.07     551.83      23.49
 33.17     533.00      23.09
 33.27     538.00      23.19
 33.37     555.00      23.56
 33.47     527.33      22.96
 33.57     608.00      24.66
 33.67     632.50      25.15
 33.77     783.00      27.98
 33.87     910.00      30.17
 33.97    1014.09      31.84
 34.07    1047.47      32.36
 34.17    1034.32      32.16
 34.27     907.18      30.12
 34.37     704.00      26.53
 34.47     620.34      24.91
 34.57     638.91      25.28
 34.67     526.00      22.93
 34.77     555.00      23.56
 34.87     515.00      22.69
 34.97     555.00      23.56
 35.07     493.05      22.20
 35.17     516.15      22.72
 35.27     489.00      22.11
 35.37     523.00      22.87
 35.47     553.00      23.52
 35.57     475.00      21.79
 35.67     511.00      22.61
 35.77     532.00      23.07
 35.87     495.00      22.25
 35.97     489.00      22.11
 36.07     552.00      23.49
 36.17     466.00      21.59
 36.27     532.00      23.07
 36.37     539.00      23.22
 36.47     513.57      22.66
 36.57     533.91      23.11
 36.67     549.50      23.44
 36.77     486.00      22.05
 36.87     481.00      21.93
 36.97     488.00      22.09
 37.07     493.00      22.20
 37.17     548.00      23.41
 37.27     489.00      22.11
 37.37     548.00      23.41
 37.47     524.72      22.91
 37.57     523.40      22.88
 37.67     521.00      22.83
 37.77     511.62      22.62
 37.87     518.00      22.76
 37.97     564.44      23.76
 38.07     547.00      23.39
 38.17     541.00      23.26
 38.27     530.00      23.02
 38.37     476.45      21.83
 38.47     516.08      22.72
 38.57     506.56      22.51
 38.67     493.00      22.20
 38.77     500.68      22.38
 38.87     471.00      21.70
 38.97     485.00      22.02
 39.07     480.03      21.91
 39.17     488.00      22.09
 39.27     537.00      23.17
 39.37     557.00      23.60
 39.47     496.62      22.29
 39.57     500.00      22.36
 39.67     469.00      21.66
 39.77     479.20      21.89
 39.87     509.62      22.57
 39.97     488.00      22.09
 40.07     540.34      23.25
 40.17     521.00      22.83
 40.27     548.87      23.43
 40.37     512.00      22.63
 40.47     496.00      22.27
 40.57     523.00      22.87
 40.67     497.00      22.29
 40.77     473.00      21.75
 40.87     523.00      22.87
 40.97     465.00      21.56
 41.07     500.00      22.36
 41.17     528.44      22.99
 41.27     500.00      22.36
 41.37     503.95      22.45
 41.47     476.00      21.82
 41.57     519.00      22.78
 41.67     455.00      21.33
 41.77     524.00      22.89
 41.87     498.00      22.32
 41.97     537.65      23.19
 42.07     527.00      22.96
 42.17     534.00      23.11
 42.27     539.00      23.22
 42.37     561.00      23.69
 42.47     526.00      22.93
 42.57     563.34      23.73
 42.67     617.00      24.84
 42.77     638.38      25.27
 42.87     616.05      24.82
 42.97     562.77      23.72
 43.07     587.49      24.24
 43.17     548.68      23.42
 43.27     483.88      22.00
 43.37     480.00      21.91
 43.47     534.00      23.11
 43.57     504.00      22.45
 43.67     524.00      22.89
 43.77     512.00      22.63
 43.87     499.00      22.34
 43.97     539.94      23.24
 44.07     468.26      21.64
 44.17     463.38      21.53
 44.27     460.79      21.47
 44.37     487.02      22.07
 44.47     489.48      22.12
 44.57     539.88      23.24
 44.67     501.00      22.38
 44.77     473.00      21.75
 44.87     487.00      22.07
 44.97     466.14      21.59
 45.07     482.00      21.95
 45.17     553.00      23.52
 45.27     524.44      22.90
 45.37     483.00      21.98
 45.47     536.24      23.16
 45.57     447.00      21.14
 45.67     515.71      22.71
 45.77     477.84      21.86
 45.87     503.00      22.43
 45.97     512.00      22.63
 46.07     509.00      22.56
 46.17     471.39      21.71
 46.27     533.18      23.09
 46.37     489.00      22.11
 46.47     511.00      22.61
 46.57     518.00      22.76
 46.67     501.13      22.39
 46.77     520.48      22.81
 46.87     518.00      22.76
 46.97     498.44      22.33
 47.07     495.00      22.25
 47.17     483.71      21.99
 47.27     497.00      22.29
 47.37     532.16      23.07
 47.47     578.00      24.04
 47.57     564.42      23.76
 47.67     600.92      24.51
 47.77     543.95      23.32
 47.87     569.00      23.85
 47.97     573.00      23.94
 48.07     587.07      24.23
 48.17     518.65      22.77
 48.27     530.00      23.02
 48.37     553.00      23.52
 48.47     539.00      23.22
 48.57     509.18      22.57
 48.67     549.00      23.43
 48.77     526.00      22.93
 48.87     535.00      23.13
 48.97     581.00      24.10
 49.07     552.03      23.50
 49.17     596.04      24.41
 49.27     591.00      24.31
 49.37     605.00      24.60
 49.47     711.00      26.66
 49.57     797.00      28.23
 49.67     898.00      29.97
 49.77    1154.00      33.97
 49.87    1449.25      38.07
 49.97    1855.90      43.08
 50.07    2232.00      47.24
 50.17    2519.00      50.19
 50.27    2541.66      50.41
 50.37    2226.00      47.18
 50.47    1772.00      42.10
 50.57    1444.00      38.00
 50.67    1060.03      32.56
 50.77     822.00      28.67
 50.87     772.00      27.78
 50.97     664.91      25.79
 51.07     611.00      24.72
 51.17     633.96      25.18
 51.27     572.80      23.93
 51.37     621.39      24.93
 51.47     588.00      24.25
 51.57     615.00      24.80
 51.67     559.00      23.64
 51.77     588.53      24.26
 51.87     574.00      23.96
 51.97     553.26      23.52
 52.07     565.00      23.77
 52.17     591.00      24.31
 52.27     556.00      23.58
 52.37     589.00      24.27
 52.47     545.00      23.35
 52.57     569.98      23.87
 52.67     590.00      24.29
 52.77     637.00      25.24
 52.87     702.00      26.50
 52.97     765.00      27.66
 53.07     852.00      29.19
 53.17     907.14      30.12
 53.27    1057.17      32.51
 53.37    1085.48      32.95
 53.47    1152.23      33.94
 53.57    1157.00      34.01
 53.67    1116.00      33.41
 53.77     946.44      30.76
 53.87     841.94      29.02
 53.97     747.30      27.34
 54.07     653.00      25.55
 54.17     619.00      24.88
 54.27     554.83      23.55
 54.37     612.90      24.76
 54.47     600.00      24.49
 54.57     547.89      23.41
 54.67     533.32      23.09
 54.77     600.00      24.49
 54.87     577.00      24.02
 54.97     526.00      22.93
 55.07     538.43      23.20
 55.17     545.00      23.35
 55.27     565.00      23.77
 55.37     567.00      23.81
 55.47     515.85      22.71
 55.57     594.00      24.37
 55.67     565.00      23.77
 55.77     588.00      24.25
 55.87     603.00      24.56
 55.97     620.00      24.90
 56.07     677.00      26.02
 56.17     800.66      28.30
 56.27     957.57      30.94
 56.37    1141.00      33.78
 56.47    1420.00      37.68
 56.57    1774.67      42.13
 56.67    2180.00      46.69
 56.77    2465.00      49.65
 56.87    2592.00      50.91
 56.97    2616.00      51.15
 57.07    2341.00      48.38
 57.17    2024.00      44.99
 57.27    1639.07      40.49
 57.37    1285.00      35.85
 57.47    1110.74      33.33
 57.57     858.00      29.29
 57.67     787.00      28.05
 57.77     649.54      25.49
 57.87     705.00      26.55
 57.97     702.00      26.50
 58.07     647.00      25.44
 58.17     682.06      26.12
 58.27     757.62      27.52
 58.37     840.00      28.98
 58.47     927.00      30.45
 58.57     994.00      31.53
 58.67    1101.00      33.18
 58.77    1343.00      36.65
 58.87    1369.00      37.00
 58.97    1360.00      36.88
 59.07    1495.00      38.67
 59.17    1484.00      38.52
 59.27    1404.00      37.47
 59.37    1320.86      36.34
 59.47    1244.00      35.27
 59.57    1227.00      35.03
 59.67    1174.00      34.26
 59.77    1082.71      32.90
 59.87    1285.00      35.85
 59.97    1292.00      35.94
 60.07    1384.36      37.21
 60.17    1511.00      38.87
 60.27    1606.58      40.08
 60.37    1553.66      39.42
 60.47    1423.21      37.73
 60.57    1225.00      35.00
 60.67    1115.90      33.41
 60.77     885.26      29.75
 60.87     746.09      27.31
 60.97     679.00      26.06
 61.07     658.00      25.65
 61.17     614.00      24.78
 61.27     601.93      24.53
 61.37     674.00      25.96
 61.47     704.62      26.54
 61.57     767.00      27.69
 61.67     844.00      29.05
 61.77    1039.34      32.24
 61.87    1145.39      33.84
 61.97    1276.73      35.73
 62.07    1321.00      36.35
 62.17    1363.00      36.92
 62.27    1371.00      37.03
 62.37    1288.00      35.89
 62.47    1261.04      35.51
 62.57     945.00      30.74
 62.67     884.00      29.73
 62.77     783.00      27.98
 62.87     677.92      26.04
 62.97     608.94      24.68
 63.07     605.54      24.61
 63.17     605.00      24.60
 63.27     570.00      23.87
 63.37     568.00      23.83
 63.47     593.01      24.35
 63.57     559.00      23.64
 63.67     603.42      24.56
 63.77     609.00      24.68
 63.87     593.00      24.35
 63.97     641.50      25.33
 64.07     675.74      26.00
 64.17     746.00      27.31
 64.27     875.00      29.58
 64.37     920.00      30.33
 64.47     947.00      30.77
 64.57    1063.00      32.60
 64.67    1007.00      31.73
 64.77     978.00      31.27
 64.87     947.00      30.77
 64.97     884.98      29.75
 65.07     881.00      29.68
 65.17     833.00      28.86
 65.27     715.18      26.74
 65.37     695.39      26.37
 65.47     677.78      26.03
 65.57     639.00      25.28
 65.67     607.00      24.64
 65.77     585.00      24.19
 65.87     626.38      25.03
 65.97     588.00      24.25
 66.07     509.00      22.56
 66.17     553.00      23.52
 66.27     505.00      22.47
 66.37     588.00      24.25
 66.47     546.00      23.37
 66.57     529.00      23.00
 66.67     553.22      23.52
 66.77     537.00      23.17
 66.87     614.00      24.78
 66.97     632.00      25.14
 67.07     636.00      25.22
 67.17     697.00      26.40
 67.27     784.00      28.00
 67.37     928.00      30.46
 67.47    1155.00      33.99
 67.57    1283.00      35.82
 67.67    1560.00      39.50
 67.77    1815.00      42.60
 67.87    2083.33      45.64
 67.97    2200.00      46.90
 68.07    2416.93      49.16
 68.17    2395.00      48.94
 68.27    2163.28      46.51
 68.37    2022.36      44.97
 68.47    1771.92      42.09
 68.57    1488.00      38.57
 68.67    1321.45      36.35
 68.77    1018.00      31.91
 68.87     908.19      30.14
 68.97     747.00      27.33
 69.07     713.00      26.70
 69.17     618.41      24.87
 69.27     630.00      25.10
 69.37     608.00      24.66
 69.47     587.00      24.23
 69.57     584.47      24.18
 69.67     614.34      24.79
 69.77     586.00      24.21
 69.87     554.00      23.54
 69.97     528.98      23.00
 70.07     611.00      24.72
 70.17     587.00      24.23
 70.27     562.00      23.71
 70.37     527.75      22.97
 70.47     599.00      24.47
 70.57     570.00      23.87
 70.67     561.00      23.69
 70.77     598.00      24.45
 70.87     582.00      24.12
 70.97     639.00      25.28
 71.07     709.00      26.63
 71.17     763.96      27.64
 71.27     829.00      28.79
 71.37     956.00      30.92
 71.47    1101.75      33.19
 71.57    1286.00      35.86
 71.67    1509.40      38.85
 71.77    1630.54      40.38
 71.87    1762.74      41.99
 71.97    1874.00      43.29
 72.07    1893.00      43.51
 72.17    1878.00      43.34
 72.27    1651.00      40.63
 72.37    1557.70      39.47
 72.47    1440.00      37.95
 72.57    1209.00      34.77
 72.67    1149.27      33.90
 72.77     925.00      30.41
 72.87     858.00      29.29
 72.97     812.00      28.50
 73.07     750.13      27.39
 73.17     736.00      27.13
 73.27     702.74      26.51
 73.37     642.00      25.34
 73.47     616.14      24.82
 73.57     618.00      24.86
 73.67     582.05      24.13
 73.77     654.00      25.57
 73.87     567.00      23.81
 73.97     579.00      24.06
 74.07     563.00      23.73
 74.17     593.00      24.35
 74.27     536.96      23.17
 74.37     620.00      24.90
 74.47     562.81      23.72
 74.57     525.69      22.93
 74.67     543.59      23.32
 74.77     627.00      25.04
 74.87     543.35      23.31
 74.97     591.00      24.31
 75.07     536.99      23.17
 75.17     571.00      23.90
 75.27     567.00      23.81
 75.37     552.15      23.50
 75.47     562.88      23.73
 75.57     609.00      24.68
 75.67     588.22      24.25
 75.77     605.00      24.60
 75.87     608.00      24.66
 75.97     633.00      25.16
 76.07     675.67      25.99
 76.17     640.64      25.31
 76.27     677.00      26.02
 76.37     672.77      25.94
 76.47     694.14      26.35
 76.57     706.00      26.57
 76.67     726.65      26.96
 76.77     716.02      26.76
 76.87     653.00      25.55
 76.97     692.66      26.32
 77.07     632.00      25.14
 77.17     568.35      23.84
 77.27     615.05      24.80
 77.37     539.00      23.22
 77.47     518.00      22.76
 77.57     508.00      22.54
 77.67     564.79      23.77
 77.77     534.63      23.12
 77.87     504.00      22.45
 77.97     510.89      22.60
 78.07     503.00      22.43
 78.17     497.88      22.31
 78.27     509.00      22.56
 78.37     540.00      23.24
 78.47     568.83      23.85
 78.57     551.00      23.47
 78.67     536.00      23.15
 78.77     544.00      23.32
 78.87     527.00      22.96
 78.97     502.00      22.41
 79.07     498.00      22.32
 79.17     566.09      23.79
 79.27     553.00      23.52
 79.37     510.72      22.60
 79.47     533.59      23.10
 79.57     547.00      23.39
 79.67     532.00      23.07
 79.77     514.00      22.67
 79.87     526.01      22.94
 79.97     546.00      23.37
 80.07     538.00      23.19
 80.17     523.00      22.87
 80.27     521.00      22.83
 80.37     571.00      23.90
 80.47     627.72      25.05
 80.57     636.00      25.22
 80.67     665.86      25.80
 80.77     591.00      24.31
 80.87     680.00      26.08
 80.97     708.00      26.61
 81.07     703.20      26.52
 81.17     730.00      27.02
 81.27     745.46      27.30
 81.37     719.00      26.81
 81.47     750.00      27.39
 81.57     735.00      27.11
 81.67     716.00      26.76
 81.77     727.00      26.96
 81.87     726.00      26.94
 81.97     732.00      27.06
 82.07     719.17      26.82
 82.17     652.83      25.55
 82.27     664.00      25.77
 82.37     630.00      25.10
 82.47     640.03      25.30
 82.57     574.00      23.96
 82.67     605.00      24.60
 82.77     597.00      24.43
 82.87     526.00      22.93
 82.97     508.00      22.54
 83.07     533.00      23.09
 83.17     536.96      23.17
 83.27     525.69      22.93
 83.37     558.00      23.62
 83.47     570.64      23.89
 83.57     542.00      23.28
 83.67     582.00      24.12
 83.77     555.00      23.56
 83.87     614.76      24.79
 83.97     542.70      23.30
 84.07     564.00      23.75
 84.17     570.49      23.88
 84.27     573.00      23.94
 84.37     536.00      23.15
 84.47     535.00      23.13
 84.57     530.00      23.02
 84.67     543.00      23.30
 84.77     527.00      22.96
 84.87     539.00      23.22
 84.97     564.56      23.76
 85.07     488.61      22.10
 85.17     530.00      23.02
 85.27     539.80      23.23
 85.37     511.00      22.61
 85.47     564.00      23.75
 85.57     571.00      23.90
 85.67     567.00      23.81
 85.77     495.00      22.25
 85.87     519.33      22.79
 85.97     572.76      23.93
 86.07     520.00      22.80
 86.17     513.26      22.66
 86.27     486.00      22.05
 86.37     516.86      22.73
 86.47     555.00      23.56
 86.57     568.82      23.85
 86.67     540.32      23.24
 86.77     592.31      24.34
 86.87     585.00      24.19
 86.97     559.34      23.65
 87.07     623.34      24.97
 87.17     632.00      25.14
 87.27     669.02      25.87
 87.37     649.03      25.48
 87.47     653.00      25.55
 87.57     655.00      25.59
 87.67     662.00      25.73
 87.77     593.00      24.35
 87.87     611.00      24.72
 87.97     620.66      24.91
 88.07     609.00      24.68
 88.17     576.00      24.00
 88.27     576.00      24.00
 88.37     575.00      23.98
 88.47     571.00      23.90
 88.57     557.00      23.60
 88.67     563.00      23.73
 88.77     589.00      24.27
 88.87     600.00      24.49
 88.97     585.70      24.20
 89.07     604.00      24.58
 89.17     562.00      23.71
 89.27     612.16      24.74
 89.37     569.87      23.87
 89.47     616.00      24.82
 89.57     599.00      24.47
 89.67     566.40      23.80
 89.77     556.00      23.58
 89.87     518.00      22.76
 89.97     525.00      22.91
 90.07     575.92      24.00
 90.17     542.00      23.28
 90.27     510.96      22.60
 90.37     523.00      22.87
 90.47     533.00      23.09
 90.57     507.70      22.53
 90.67     501.00      22.38
 90.77     550.51      23.46
 90.87     535.63      23.14
 90.97     489.39      22.12
 91.07     513.00      22.65
 91.17     523.68      22.88
 91.27     526.00      22.93
 91.37     543.00      23.30
 91.47     565.00      23.77
 91.57     542.00      23.28
 91.67     511.71      22.62
 91.77     543.00      23.30
 91.87     536.00      23.15
 91.97     548.14      23.41
 92.07     598.00      24.45
 92.17     597.00      24.43
 92.27     573.78      23.95
 92.37     634.07      25.18
 92.47     599.00      24.47
 92.57     631.00      25.12
 92.67     638.00      25.26
 92.77     698.00      26.42
 92.87     692.00      26.31
 92.97     671.38      25.91
 93.07     773.00      27.80
 93.17     789.00      28.09
 93.27     797.00      28.23
 93.37     838.00      28.95
 93.47     851.00      29.17
 93.57     804.00      28.35
 93.67     843.70      29.05
 93.77     895.00      29.92
 93.87     837.00      28.93
 93.97     860.00      29.33
 94.07     839.74      28.98
 94.17     888.00      29.80
 94.27     830.98      28.83
 94.37     854.00      29.22
 94.47     856.24      29.26
 94.57     857.08      29.28
 94.67     883.00      29.72
 94.77     918.00      30.30
 94.87     927.00      30.45
 94.97     871.00      29.51
 95.07     832.00      28.84
 95.17     812.69      28.51
 95.27     819.00      28.62
 95.37     801.00      28.30
 95.47     785.00      28.02
 95.57     753.00      27.44
 95.67     761.00      27.59
 95.77     681.00      26.10
 95.87     761.00      27.59
 95.97     670.00      25.88
 96.07     727.97      26.98
 96.17     702.00      26.50
 96.27     749.00      27.37
 96.37     769.00      27.73
 96.47     845.49      29.08
 96.57     867.00      29.44
 96.67     871.27      29.52
 96.77    1040.43      32.26
 96.87    1074.00      32.77
 96.97    1046.00      32.34
 97.07    1252.00      35.38
 97.17    1260.12      35.50
 97.27    1360.00      36.88
 97.37    1368.27      36.99
 97.47    1348.27      36.72
 97.57    1385.00      37.22
 97.67    1386.00      37.23
 97.77    1380.74      37.16
 97.87    1307.00      36.15
 97.97    1286.00      35.86
 98.07    1238.00      35.19
 98.17    1199.70      34.64
 98.27    1151.16      33.93
 98.37    1021.00      31.95
 98.47    1004.00      31.69
 98.57     858.00      29.29
 98.67     837.53      28.94
 98.77     789.00      28.09
 98.87     866.38      29.43
 98.97     823.00      28.69
 99.07     856.00      29.26
 99.17     874.00      29.56
 99.27     897.79      29.96
 99.37     991.00      31.48
 99.47    1077.00      32.82
 99.57    1134.46      33.68
 99.67    1203.00      34.68
 99.77    1296.00      36.00
 99.87    1363.41      36.92
 99.97    1531.00      39.13
100.07    1555.78      39.44
100.17    1770.00      42.07
100.27    1822.00      42.68
100.37    1877.00      43.32
100.47    1951.00      44.17
100.57    2057.69      45.36
100.67    2065.00      45.44
100.77    1985.99      44.56
100.87    2049.42      45.27
100.97    1996.00      44.68
101.07    1989.00      44.60
101.17    1839.00      42.88
101.27    1709.71      41.35
101.37    1708.00      41.33
101.47    1619.15      40.24
101.57    1578.87      39.74
101.67    1398.64      37.40
101.77    1337.00      36.57
101.87    1330.57      36.48
101.97    1227.00      35.03
102.07    1251.46      35.38
102.17    1151.00      33.93
102.27    1096.05      33.11
102.37    1097.04      33.12
102.47    1149.24      33.90
102.57    1066.00      32.65
102.67    1030.32      32.10
102.77     990.00      31.46
102.87    1000.00      31.62
102.97    1015.26      31.86
103.07     920.40      30.34
103.17     874.00      29.56
103.27     845.00      29.07
103.37     764.00      27.64
103.47     759.00      27.55
103.57     738.00      27.17
103.67     708.00      26.61
103.77     679.87      26.07
103.87     619.00      24.88
103.97     571.68      23.91
104.07     632.00      25.14
104.17     559.41      23.65
104.27     613.21      24.76
104.37     565.49      23.78
104.47     531.59      23.06
104.57     573.71      23.95
104.67     574.71      23.97
104.77     554.00      23.54
104.87     574.00      23.96
104.97     511.00      22.61
105.07     535.24      23.14
105.17     534.00      23.11
105.27     511.00      22.61
105.37     525.00      22.91
105.47     512.61      22.64
105.57     518.00      22.76
105.67     564.00      23.75
105.77     541.34      23.27
105.87     589.77      24.29
105.97     520.74      22.82
106.07     539.00      23.22
106.17     597.39      24.44
106.27     615.36      24.81
106.37     641.11      25.32
106.47     643.00      25.36
106.57     651.00      25.51
106.67     648.45      25.46
106.77     606.61      24.63
106.87     640.00      25.30
106.97     647.00      25.44
107.07     640.86      25.32
107.17     689.00      26.25
107.27     699.00      26.44
107.37     682.00      26.12
107.47     719.00      26.81
107.57     660.09      25.69
107.67     669.00      25.87
107.77     697.00      26.40
107.87     671.00      25.90
107.97     649.00      25.48
108.07     735.55      27.12
108.17     714.00      26.72
108.27     668.00      25.85
108.37     716.74      26.77
108.47     730.00      27.02
108.57     708.49      26.62
108.67     661.00      25.71
108.77     685.00      26.17
108.87     678.97      26.06
108.97     703.00      26.51
109.07     649.00      25.48
109.17     627.39      25.05
109.27     659.00      25.67
109.37     674.12      25.96
109.47     691.08      26.29
109.57     603.98      24.58
109.67     574.86      23.98
109.77     633.00      25.16
109.87     607.00      24.64
109.97     561.95      23.71
110.07     588.00      24.25
110.17     540.97      23.26
110.27     578.00      24.04
110.37     579.00      24.06
110.47     516.00      22.72
110.57     567.00      23.81
110.67     550.00      23.45
110.77     502.37      22.41
110.87     528.00      22.98
110.97     590.00      24.29
111.07     581.00      24.10
111.17     502.57      22.42
111.27     563.48      23.74
111.37     562.00      23.71
111.47     553.00      23.52
111.57     583.50      24.16
111.67     551.62      23.49
111.77     586.14      24.21
111.87     558.00      23.62
111.97     570.00      23.87
112.07     545.00      23.35
112.17     597.00      24.43
112.27     524.00      22.89
112.37     562.30      23.71
112.47     641.00      25.32
112.57     616.23      24.82
112.67     538.00      23.19
112.77     604.00      24.58
112.87     610.00      24.70
112.97     629.86      25.10
113.07     600.00      24.49
113.17     597.00      24.43
113.27     664.00      25.77
113.37     732.00      27.06
113.47     733.00      27.07
113.57     730.00      27.02
113.67     758.00      27.53
113.77     827.00      28.76
113.87     833.00      28.86
113.97     856.04      29.26
114.07     990.75      31.48
114.17     976.00      31.24
114.27    1052.00      32.43
114.37    1193.00      34.54
114.47    1228.00      35.04
114.57    1339.49      36.60
114.67    1499.00      38.72
114.77    1707.00      41.32
114.87    1873.00      43.28
114.97    2018.88      44.93
115.07    2372.00      48.70
115.17    2564.00      50.64
115.27    2981.00      54.60
115.37    3173.00      56.33
115.47    3602.00      60.02
115.57    3810.00      61.73
115.67    4165.64      64.54
115.77    4564.00      67.56
115.87    4759.81      68.99
115.97    5375.00      73.31
116.07    5569.81      74.63
116.17    5872.30      76.63
116.27    6305.00      79.40
116.37    6546.09      80.91
116.47    6608.96      81.30
116.57    6626.91      81.41
116.67    6839.23      82.70
116.77    6883.00      82.96
116.87    6520.85      80.75
116.97    6512.93      80.70
117.07    6123.00      78.25
117.17    5998.85      77.45
117.27    5611.00      74.91
117.37    5376.52      73.32
117.47    4866.00      69.76
117.57    4504.00      67.11
117.67    4256.58      65.24
117.77    3891.00      62.38
117.87    3618.00      60.15
117.97    3138.00      56.02
118.07    2945.00      54.27
118.17    2524.84      50.25
118.27    2321.29      48.18
118.37    2018.00      44.92
118.47    1735.00      41.65
118.57    1687.29      41.08
118.67    1352.00      36.77
118.77    1337.00      36.57
118.87    1116.00      33.41
118.97     997.00      31.58
119.07     980.17      31.31
119.17     939.27      30.65
119.27     818.00      28.60
119.37     825.00      28.72
119.47     737.08      27.15
119.57     709.32      26.63
119.67     730.96      27.04
119.77     626.00      25.02
119.87     645.00      25.40
119.97     618.08      24.86
120.07     595.00      24.39
120.17     580.00      24.08
120.27     617.00      24.84
120.37     611.00      24.72
120.47     551.00      23.47
120.57     598.03      24.45
120.67     538.31      23.20
120.77     556.00      23.58
120.87     547.00      23.39
120.97     517.00      22.74
121.07     528.66      22.99
121.17     592.00      24.33
121.27     571.18      23.90
121.37     589.00      24.27
121.47     560.00      23.66
121.57     623.99      24.98
121.67     535.00      23.13
121.77     570.66      23.89
121.87     627.00      25.04
121.97     621.00      24.92
122.07     671.00      25.90
122.17     624.00      24.98
122.27     595.00      24.39
122.37     652.23      25.54
122.47     613.00      24.76
122.57     664.49      25.78
122.67     590.09      24.29
122.77     630.00      25.10
122.87     637.00      25.24
122.97     678.00      26.04
123.07     650.00      25.50
123.17     606.76      24.63
123.27     656.00      25.61
123.37     658.00      25.65
123.47     643.88      25.37
123.57     675.00      25.98
123.67     589.00      24.27
123.77     580.00      24.08
123.87     571.71      23.91
123.97     637.86      25.26
124.07     620.00      24.90
124.17     613.90      24.78
124.27     626.00      25.02
124.37     600.00      24.49
124.47     591.56      24.32
124.57     549.00      23.43
124.67     595.95      24.41
124.77     569.00      23.85
124.87     585.00      24.19
124.97     558.00      23.62
