  9.97     628.00      25.06
 10.07     648.00      25.46
 10.17     654.00      25.57
 10.27     596.00      24.41
 10.37     599.03      24.48
 10.47     614.00      24.78
 10.57     627.00      25.04
 10.67     563.00      23.73
 10.77     590.00      24.29
 10.87     584.60      24.18
 10.97     533.77      23.10
 11.07     578.25      24.05
 11.17     589.00      24.27
 11.27     604.27      24.58
 11.37     636.00      25.22
 11.47     552.00      23.49
 11.57     653.00      25.55
 11.67     574.00      23.96
 11.77     649.00      25.48
 11.87     603.20      24.56
 11.97     655.00      25.59
 12.07     641.00      25.32
 12.17     680.00      26.08
 12.27     745.64      27.31
 12.37     632.00      25.14
 12.47     689.71      26.26
 12.57     612.00      24.74
 12.67     595.00      24.39
 12.77     599.00      24.47
 12.87     598.00      24.45
 12.97     580.00      24.08
 13.07     553.00      23.52
 13.17     594.58      24.38
 13.27     537.00      23.17
 13.37     548.11      23.41
 13.47     584.87      24.18
 13.57     534.00      23.11
 13.67     570.00      23.87
 13.77     552.00      23.49
 13.87     542.00      23.28
 13.97     583.34      24.15
 14.07     570.57      23.89
 14.17     578.10      24.04
 14.27     603.45      24.57
 14.37     578.00      24.04
 14.47     552.00      23.49
 14.57     603.18      24.56
 14.67     603.00      24.56
 14.77     604.00      24.58
 14.87     575.00      23.98
 14.97     613.05      24.76
 15.07     576.00      24.00
 15.17     573.65      23.95
 15.27     545.00      23.35
 15.37     565.00      23.77
 15.47     601.00      24.52
 15.57     563.00      23.73
 15.67     550.00      23.45
 15.77     585.00      24.19
 15.87     539.00      23.22
 15.97     561.00      23.69
 16.07     530.03      23.02
 16.17     580.00      24.08
 16.27     561.00      23.69
 16.37     550.00      23.45
 16.47     607.53      24.65
 16.57     567.00      23.81
 16.67     560.00      23.66
 16.77     599.00      24.47
 16.87     562.99      23.73
 16.97     605.92      24.62
 17.07     537.96      23.19
 17.17     529.00      23.00
 17.27     550.00      23.45
 17.37     531.00      23.04
 17.47     534.00      23.11
 17.57     573.00      23.94
 17.67     548.51      23.42
 17.77     550.00      23.45
 17.87     567.00      23.81
 17.97     587.00      24.23
 18.07     550.00      23.45
 18.17     547.00      23.39
 18.27     540.00      23.24
 18.37     537.00      23.17
 18.47     602.25      24.54
 18.57     552.00      23.49
 18.67     536.00      23.15
 18.77     570.00      23.87
 18.87     551.52      23.48
 18.97     565.00      23.77
 19.07     549.00      23.43
 19.17     516.00      22.72
 19.27     598.39      24.46
 19.37     591.00      24.31
 19.47     569.00      23.85
 19.57     568.00      23.83
 19.67     525.00      22.91
 19.77     508.00      22.54
 19.87     533.00      23.09
 19.97     581.00      24.10
 20.07     565.29      23.78
 20.17     593.63      24.36
 20.27     519.92      22.80
 20.37     511.80      22.62
 20.47     517.00      22.74
 20.57     595.76      24.41
 20.67     553.09      23.52
 20.77     502.00      22.41
 20.87     537.21      23.18
 20.97     556.00      23.58
 21.07     551.00      23.47
 21.17     563.00      23.73
 21.27     554.00      23.54
 21.37     598.00      24.45
 21.47     525.00      22.91
 21.57     591.00      24.31
 21.67     592.68      24.34
 21.77     544.00      23.32
 21.87     545.00      23.35
 21.97     571.00      23.90
 22.07     528.00      22.98
 22.17     534.24      23.11
 22.27     533.00      23.09
 22.37     585.12      24.19
 22.47     594.01      24.37
 22.57     545.68      23.36
 22.67     542.00      23.28
 22.77     565.00      23.77
 22.87     581.15      24.11
 22.97     569.88      23.87
 23.07     581.00      24.10
 23.17     557.00      23.60
 23.27     571.00      23.90
 23.37     527.00      22.96
 23.47     550.37      23.46
 23.57     567.17      23.82
 23.67     571.00      23.90
 23.77     510.63      22.60
 23.87     575.00      23.98
 23.97     538.29      23.20
 24.07     549.50      23.44
 24.17     547.00      23.39
 24.27     556.00      23.58
 24.37     570.00      23.87
 24.47     586.00      24.21
 24.57     578.00      24.04
 24.67     614.00      24.78
 24.77     629.00      25.08
 24.87     671.00      25.90
 24.97     597.32      24.44
 25.07     554.24      23.54
 25.17     576.00      24.00
 25.27     556.00      23.58
 25.37     499.00      22.34
 25.47     539.00      23.22
 25.57     554.00      23.54
 25.67     521.43      22.83
 25.77     542.00      23.28
 25.87     562.00      23.71
 25.97     569.00      23.85
 26.07     590.00      24.29
 26.17     543.38      23.31
 26.27     518.00      22.76
 26.37     565.64      23.78
 26.47     519.90      22.80
 26.57     549.47      23.44
 26.67     529.00      23.00
 26.77     539.00      23.22
 26.87     564.33      23.76
 26.97     550.17      23.46
 27.07     537.53      23.18
 27.17     584.28      24.17
 27.27     546.98      23.39
 27.37     584.15      24.17
 27.47     574.00      23.96
 27.57     582.00      24.12
 27.67     534.00      23.11
 27.77     564.00      23.75
 27.87     643.00      25.36
 27.97     691.00      26.29
 28.07     743.00      27.26
 28.17     869.59      29.49
 28.27    1013.00      31.83
 28.37     861.09      29.34
 28.47     740.12      27.21
 28.57     715.88      26.76
 28.67     634.70      25.19
 28.77     749.00      27.37
 28.87     848.00      29.12
 28.97     830.00      28.81
 29.07     764.00      27.64
 29.17     731.29      27.04
 29.27     616.00      24.82
 29.37     635.00      25.20
 29.47     601.00      24.52
 29.57     571.90      23.91
 29.67     615.28      24.80
 29.77     613.48      24.77
 29.87     598.00      24.45
 29.97     564.79      23.77
 30.07     567.00      23.81
 30.17     554.00      23.54
 30.27     575.00      23.98
 30.37     537.57      23.19
 30.47     534.22      23.11
 30.57     584.02      24.17
 30.67     565.63      23.78
 30.77     589.00      24.27
 30.87     565.96      23.79
 30.97     631.45      25.13
 31.07     623.00      24.96
 31.17     540.10      23.24
 31.27     574.00      23.96
 31.37     511.69      22.62
 31.47     494.04      22.23
 31.57     531.00      23.04
 31.67     510.52      22.59
 31.77     545.26      23.35
 31.87     585.00      24.19
 31.97     524.00      22.89
 32.07     500.00      22.36
 32.17     514.00      22.67
 32.27     492.00      22.18
 32.37     491.07      22.16
 32.47     567.49      23.82
 32.57     558.00      23.62
 32.67     542.00      23.28
 32.77     565.56      23.78
 32.87     565.00      23.77
 32.97     545.00      23.35
 33.07     511.00      22.61
 33.17     537.86      23.19
 33.27     574.60      23.97
 33.37     559.00      23.64
 33.47     512.00      22.63
 33.57     531.76      23.06
 33.67     613.09      24.76
 33.77     783.00      27.98
 33.87     880.00      29.66
 33.97     962.33      31.02
 34.07    1105.88      33.25
 34.17    1042.00      32.28
 34.27     876.00      29.60
 34.37     719.00      26.81
 34.47     661.00      25.71
 34.57     568.00      23.83
 34.67     595.00      24.39
 34.77     583.00      24.15
 34.87     565.40      23.78
 34.97     508.00      22.54
 35.07     565.33      23.78
 35.17     516.61      22.73
 35.27     499.60      22.35
 35.37     479.98      21.91
 35.47     532.00      23.07
 35.57     561.00      23.69
 35.67     544.06      23.33
 35.77     562.40      23.72
 35.87     529.00      23.00
 35.97     509.00      22.56
 36.07     479.00      21.89
 36.17     514.80      22.69
 36.27     493.00      22.20
 36.37     495.67      22.26
 36.47     506.00      22.49
 36.57     498.00      22.32
 36.67     515.00      22.69
 36.77     486.00      22.05
 36.87     548.00      23.41
 36.97     497.00      22.29
 37.07     516.40      22.72
 37.17     546.00      23.37
 37.27     544.09      23.33
 37.37     520.92      22.82
 37.47     519.23      22.79
 37.57     536.00      23.15
 37.67     494.00      22.23
 37.77     551.00      23.47
 37.87     529.00      23.00
 37.97     483.76      21.99
 38.07     506.09      22.50
 38.17     560.59      23.68
 38.27     517.18      22.74
 38.37     523.51      22.88
 38.47     513.00      22.65
 38.57     510.00      22.58
 38.67     515.00      22.69
 38.77     543.41      23.31
 38.87     496.00      22.27
 38.97     525.00      22.91
 39.07     489.94      22.13
 39.17     511.05      22.61
 39.27     478.90      21.88
 39.37     505.00      22.47
 39.47     534.96      23.13
 39.57     483.56      21.99
 39.67     542.80      23.30
 39.77     551.00      23.47
 39.87     501.00      22.38
 39.97     490.00      22.14
 40.07     483.00      21.98
 40.17     559.00      23.64
 40.27     528.00      22.98
 40.37     477.20      21.84
 40.47     502.74      22.42
 40.57     485.00      22.02
 40.67     480.00      21.91
 40.77     550.99      23.47
 40.87     523.00      22.87
 40.97     476.99      21.84
 41.07     505.84      22.49
 41.17     544.00      23.32
 41.27     596.00      24.41
 41.37     530.00      23.02
 41.47     506.29      22.50
 41.57     454.00      21.31
 41.67     482.00      21.95
 41.77     495.00      22.25
 41.87     500.57      22.37
 41.97     514.00      22.67
 42.07     499.00      22.34
 42.17     527.00      22.96
 42.27     517.31      22.74
 42.37     556.48      23.59
 42.47     571.00      23.90
 42.57     597.00      24.43
 42.67     629.00      25.08
 42.77     599.00      24.47
 42.87     608.00      24.66
 42.97     562.00      23.71
 43.07     568.48      23.84
 43.17     513.00      22.65
 43.27     562.33      23.71
 43.37     509.00      22.56
 43.47     528.00      22.98
 43.57     508.00      22.54
 43.67     525.00      22.91
 43.77     518.00      22.76
 43.87     523.00      22.87
 43.97     497.05      22.29
 44.07     505.00      22.47
 44.17     533.00      23.09
 44.27     499.00      22.34
 44.37     513.00      22.65
 44.47     467.00      21.61
 44.57     536.01      23.15
 44.67     526.00      22.93
 44.77     496.70      22.29
 44.87     484.60      22.01
 44.97     509.00      22.56
 45.07     501.00      22.38
 45.17     513.00      22.65
 45.27     504.00      22.45
 45.37     547.00      23.39
 45.47     548.85      23.43
 45.57     526.00      22.93
 45.67     538.88      23.21
 45.77     537.00      23.17
 45.87     484.88      22.02
 45.97     506.00      22.49
 46.07     525.00      22.91
 46.17     549.00      23.43
 46.27     526.00      22.93
 46.37     508.00      22.54
 46.47     526.00      22.93
 46.57     520.00      22.80
 46.67     522.00      22.85
 46.77     526.09      22.94
 46.87     504.00      22.45
 46.97     533.00      23.09
 47.07     500.81      22.38
 47.17     461.00      21.47
 47.27     509.00      22.56
 47.37     495.52      22.26
 47.47     548.00      23.41
 47.57     560.00      23.66
 47.67     589.00      24.27
 47.77     586.00      24.21
 47.87     561.00      23.69
 47.97     600.00      24.49
 48.07     601.00      24.52
 48.17     573.00      23.94
 48.27     568.33      23.84
 48.37     581.00      24.10
 48.47     570.78      23.89
 48.57     490.00      22.14
 48.67     578.00      24.04
 48.77     582.00      24.12
 48.87     549.00      23.43
 48.97     560.00      23.66
 49.07     605.74      24.61
 49.17     631.00      25.12
 49.27     669.00      25.87
 49.37     667.96      25.84
 49.47     755.00      27.48
 49.57     841.00      29.00
 49.67     966.00      31.08
 49.77    1152.73      33.95
 49.87    1425.00      37.75
 49.97    1786.81      42.27
 50.07    2197.75      46.88
 50.17    2512.00      50.12
 50.27    2517.44      50.17
 50.37    2406.11      49.05
 50.47    1947.99      44.14
 50.57    1448.05      38.05
 50.67    1157.37      34.02
 50.77     827.30      28.76
 50.87     730.00      27.02
 50.97     624.00      24.98
 51.07     594.00      24.37
 51.17     606.00      24.62
 51.27     628.25      25.06
 51.37     602.00      24.54
 51.47     559.00      23.64
 51.57     575.76      24.00
 51.67     595.00      24.39
 51.77     575.00      23.98
 51.87     572.00      23.92
 51.97     582.00      24.12
 52.07     552.00      23.49
 52.17     507.00      22.52
 52.27     558.00      23.62
 52.37     499.79      22.36
 52.47     573.00      23.94
 52.57     561.00      23.69
 52.67     555.35      23.57
 52.77     598.00      24.45
 52.87     571.96      23.92
 52.97     771.00      27.77
 53.07     746.00      27.31
 53.17     867.37      29.45
 53.27    1042.93      32.29
 53.37    1093.00      33.06
 53.47    1186.31      34.44
 53.57    1218.98      34.91
 53.67    1146.00      33.85
 53.77     961.00      31.00
 53.87     800.00      28.28
 53.97     832.50      28.85
 54.07     729.60      27.01
 54.17     632.83      25.16
 54.27     555.00      23.56
 54.37     537.00      23.17
 54.47     576.00      24.00
 54.57     544.00      23.32
 54.67     508.55      22.55
 54.77     500.01      22.36
 54.87     532.00      23.07
 54.97     507.18      22.52
 55.07     522.93      22.87
 55.17     516.00      22.72
 55.27     585.00      24.19
 55.37     552.00      23.49
 55.47     546.53      23.38
 55.57     579.57      24.07
 55.67     557.00      23.60
 55.77     582.00      24.12
 55.87     599.69      24.49
 55.97     641.38      25.33
 56.07     661.94      25.73
 56.17     778.31      27.90
 56.27     842.00      29.02
 56.37    1146.71      33.86
 56.47    1403.00      37.46
 56.57    1750.00      41.83
 56.67    2116.00      46.00
 56.77    2387.42      48.86
 56.87    2623.00      51.22
 56.97    2602.00      51.01
 57.07    2341.09      48.38
 57.17    2085.00      45.66
 57.27    1626.69      40.33
 57.37    1365.93      36.96
 57.47    1071.00      32.73
 57.57     842.00      29.02
 57.67     707.50      26.60
 57.77     692.72      26.32
 57.87     709.00      26.63
 57.97     657.00      25.63
 58.07     690.00      26.27
 58.17     678.88      26.06
 58.27     759.00      27.55
 58.37     912.91      30.21
 58.47     986.40      31.41
 58.57    1111.46      33.34
 58.67    1270.68      35.65
 58.77    1380.00      37.15
 58.87    1548.00      39.34
 58.97    1609.30      40.12
 59.07    1641.00      40.51
 59.17    1580.00      39.75
 59.27    1505.54      38.80
 59.37    1408.00      37.52
 59.47    1274.00      35.69
 59.57    1131.86      33.64
 59.67    1115.00      33.39
 59.77    1155.30      33.99
 59.87    1108.00      33.29
 59.97    1361.00      36.89
 60.07    1347.58      36.71
 60.17    1425.26      37.75
 60.27    1539.00      39.23
 60.37    1475.25      38.41
 60.47    1348.00      36.72
 60.57    1302.00      36.08
 60.67    1101.00      33.18
 60.77     918.00      30.30
 60.87     815.00      28.55
 60.97     656.97      25.63
 61.07     624.85      25.00
 61.17     659.00      25.67
 61.27     630.00      25.10
 61.37     631.23      25.12
 61.47     635.00      25.20
 61.57     761.95      27.60
 61.67     855.50      29.25
 61.77     903.00      30.05
 61.87    1070.00      32.71
 61.97    1248.06      35.33
 62.07    1357.00      36.84
 62.17    1443.00      37.99
 62.27    1397.76      37.39
 62.37    1274.00      35.69
 62.47    1277.53      35.74
 62.57    1087.35      32.97
 62.67     917.00      30.28
 62.77     756.00      27.50
 62.87     756.76      27.51
 62.97     599.43      24.48
 63.07     630.00      25.10
 63.17     578.00      24.04
 63.27     533.57      23.10
 63.37     568.21      23.84
 63.47     558.44      23.63
 63.57     552.38      23.50
 63.67     561.00      23.69
 63.77     571.00      23.90
 63.87     621.00      24.92
 63.97     660.00      25.69
 64.07     668.00      25.85
 64.17     787.76      28.07
 64.27     811.00      28.48
 64.37     912.00      30.20
 64.47     934.00      30.56
 64.57    1053.00      32.45
 64.67    1004.00      31.69
 64.77     953.65      30.88
 64.87     982.00      31.34
 64.97     916.00      30.27
 65.07     815.85      28.56
 65.17     831.84      28.84
 65.27     759.00      27.55
 65.37     771.00      27.77
 65.47     637.00      25.24
 65.57     660.00      25.69
 65.67     566.83      23.81
 65.77     610.15      24.70
 65.87     609.21      24.68
 65.97     534.21      23.11
 66.07     556.00      23.58
 66.17     530.00      23.02
 66.27     536.00      23.15
 66.37     593.60      24.36
 66.47     519.26      22.79
 66.57     504.00      22.45
 66.67     580.00      24.08
 66.77     557.00      23.60
 66.87     554.47      23.55
 66.97     583.00      24.15
 67.07     605.00      24.60
 67.17     684.00      26.15
 67.27     742.00      27.24
 67.37     867.00      29.44
 67.47    1061.00      32.57
 67.57    1212.00      34.81
 67.67    1461.97      38.24
 67.77    1744.00      41.76
 67.87    1985.18      44.56
 67.97    2418.00      49.17
 68.07    2379.00      48.77
 68.17    2407.00      49.06
 68.27    2343.00      48.40
 68.37    2118.76      46.03
 68.47    1778.25      42.17
 68.57    1537.46      39.21
 68.67    1245.38      35.29
 68.77    1062.58      32.60
 68.87     845.00      29.07
 68.97     799.00      28.27
 69.07     700.00      26.46
 69.17     690.00      26.27
 69.27     568.94      23.85
 69.37     618.00      24.86
 69.47     576.00      24.00
 69.57     612.00      24.74
 69.67     579.00      24.06
 69.77     601.00      24.52
 69.87     601.00      24.52
 69.97     551.00      23.47
 70.07     538.00      23.19
 70.17     543.00      23.30
 70.27     600.00      24.49
 70.37     558.00      23.62
 70.47     525.00      22.91
 70.57     542.00      23.28
 70.67     532.55      23.08
 70.77     579.10      24.06
 70.87     624.00      24.98
 70.97     615.67      24.81
 71.07     627.00      25.04
 71.17     722.00      26.87
 71.27     819.00      28.62
 71.37     916.00      30.27
 71.47    1027.00      32.05
 71.57    1244.00      35.27
 71.67    1376.00      37.09
 71.77    1597.00      39.96
 71.87    1821.00      42.67
 71.97    1852.00      43.03
 72.07    2010.33      44.84
 72.17    1908.00      43.68
 72.27    1806.63      42.50
 72.37    1708.00      41.33
 72.47    1543.00      39.28
 72.57    1406.00      37.50
 72.67    1283.85      35.83
 72.77    1099.00      33.15
 72.87    1061.53      32.58
 72.97    1014.67      31.85
 73.07     823.00      28.69
 73.17     771.00      27.77
 73.27     761.00      27.59
 73.37     672.00      25.92
 73.47     628.00      25.06
 73.57     629.00      25.08
 73.67     563.00      23.73
 73.77     630.30      25.11
 73.87     600.00      24.49
 73.97     603.51      24.57
 74.07     566.10      23.79
 74.17     690.00      26.27
 74.27     588.00      24.25
 74.37     632.00      25.14
 74.47     590.31      24.30
 74.57     570.16      23.88
 74.67     609.23      24.68
 74.77     557.18      23.60
 74.87     629.00      25.08
 74.97     533.02      23.09
 75.07     604.00      24.58
 75.17     574.15      23.96
 75.27     585.00      24.19
 75.37     589.59      24.28
 75.47     535.00      23.13
 75.57     601.17      24.52
 75.67     571.27      23.90
 75.77     601.73      24.53
 75.87     580.00      24.08
 75.97     572.26      23.92
 76.07     621.00      24.92
 76.17     642.05      25.34
 76.27     693.00      26.32
 76.37     701.36      26.48
 76.47     666.16      25.81
 76.57     696.00      26.38
 76.67     695.00      26.36
 76.77     733.00      27.07
 76.87     627.00      25.04
 76.97     661.62      25.72
 77.07     652.00      25.53
 77.17     625.00      25.00
 77.27     588.11      24.25
 77.37     564.17      23.75
 77.47     594.00      24.37
 77.57     527.00      22.96
 77.67     545.00      23.35
 77.77     540.74      23.25
 77.87     519.17      22.79
 77.97     547.00      23.39
 78.07     565.00      23.77
 78.17     489.00      22.11
 78.27     525.00      22.91
 78.37     493.96      22.23
 78.47     554.00      23.54
 78.57     537.00      23.17
 78.67     524.76      22.91
 78.77     507.00      22.52
 78.87     528.00      22.98
 78.97     526.00      22.93
 79.07     516.23      22.72
 79.17     517.36      22.75
 79.27     516.22      22.72
 79.37     556.77      23.60
 79.47     536.96      23.17
 79.57     495.57      22.26
 79.67     551.27      23.48
 79.77     526.51      22.95
 79.87     539.00      23.22
 79.97     531.43      23.05
 80.07     544.00      23.32
 80.17     536.00      23.15
 80.27     572.00      23.92
 80.37     552.00      23.49
 80.47     584.00      24.17
 80.57     631.27      25.13
 80.67     647.00      25.44
 80.77     624.92      25.00
 80.87     681.00      26.10
 80.97     686.00      26.19
 81.07     731.00      27.04
 81.17     723.00      26.89
 81.27     692.00      26.31
 81.37     747.00      27.33
 81.47     696.59      26.39
 81.57     804.00      28.35
 81.67     724.00      26.91
 81.77     702.00      26.50
 81.87     713.34      26.71
 81.97     711.87      26.68
 82.07     716.09      26.76
 82.17     677.00      26.02
 82.27     663.12      25.75
 82.37     680.00      26.08
 82.47     598.00      24.45
 82.57     580.99      24.10
 82.67     563.00      23.73
 82.77     539.00      23.22
 82.87     552.00      23.49
 82.97     524.00      22.89
 83.07     589.94      24.29
 83.17     577.15      24.02
 83.27     512.00      22.63
 83.37     533.00      23.09
 83.47     569.00      23.85
 83.57     572.00      23.92
 83.67     556.00      23.58
 83.77     543.00      23.30
 83.87     574.00      23.96
 83.97     532.00      23.07
 84.07     572.00      23.92
 84.17     542.00      23.28
 84.27     561.00      23.69
 84.37     555.75      23.57
 84.47     563.00      23.73
 84.57     538.12      23.20
 84.67     553.00      23.52
 84.77     479.00      21.89
 84.87     575.11      23.98
 84.97     574.83      23.98
 85.07     485.00      22.02
 85.17     554.00      23.54
 85.27     521.00      22.83
 85.37     535.03      23.13
 85.47     512.00      22.63
 85.57     492.00      22.18
 85.67     523.00      22.87
 85.77     542.00      23.28
 85.87     528.00      22.98
 85.97     540.00      23.24
 86.07     504.00      22.45
 86.17     561.00      23.69
 86.27     573.16      23.94
 86.37     558.00      23.62
 86.47     508.83      22.56
 86.57     534.80      23.13
 86.67     604.34      24.58
 86.77     577.00      24.02
 86.87     574.00      23.96
 86.97     573.21      23.94
 87.07     605.00      24.60
 87.17     654.00      25.57
 87.27     614.40      24.79
 87.37     669.00      25.87
 87.47     666.00      25.81
 87.57     634.00      25.18
 87.67     646.00      25.42
 87.77     617.13      24.84
 87.87     622.00      24.94
 87.97     590.00      24.29
 88.07     605.86      24.61
 88.17     558.00      23.62
 88.27     571.26      23.90
 88.37     527.00      22.96
 88.47     541.96      23.28
 88.57     562.00      23.71
 88.67     588.73      24.26
 88.77     579.84      24.08
 88.87     583.00      24.15
 88.97     587.00      24.23
 89.07     581.00      24.10
 89.17     612.00      24.74
 89.27     662.00      25.73
 89.37     556.58      23.59
 89.47     619.53      24.89
 89.57     616.23      24.82
 89.67     597.00      24.43
 89.77     566.00      23.79
 89.87     594.56      24.38
 89.97     546.00      23.37
 90.07     538.00      23.19
 90.17     571.36      23.90
 90.27     490.00      22.14
 90.37     555.00      23.56
 90.47     542.70      23.30
 90.57     529.00      23.00
 90.67     512.00      22.63
 90.77     519.00      22.78
 90.87     540.00      23.24
 90.97     495.41      22.26
 91.07     534.00      23.11
 91.17     508.28      22.54
 91.27     529.00      23.00
 91.37     519.69      22.80
 91.47     500.51      22.37
 91.57     522.52      22.86
 91.67     515.00      22.69
 91.77     509.96      22.58
 91.87     587.66      24.24
 91.97     568.64      23.85
 92.07     538.00      23.19
 92.17     535.00      23.13
 92.27     622.00      24.94
 92.37     633.68      25.17
 92.47     645.00      25.40
 92.57     645.00      25.40
 92.67     605.00      24.60
 92.77     663.57      25.76
 92.87     673.00      25.94
 92.97     705.00      26.55
 93.07     786.00      28.04
 93.17     776.00      27.86
 93.27     792.00      28.14
 93.37     797.00      28.23
 93.47     769.00      27.73
 93.57     808.00      28.43
 93.67     760.70      27.58
 93.77     786.34      28.04
 93.87     879.23      29.65
 93.97     881.24      29.69
 94.07     873.00      29.55
 94.17     866.00      29.43
 94.27     858.38      29.30
 94.37     876.00      29.60
 94.47     905.00      30.08
 94.57     836.40      28.92
 94.67     942.00      30.69
 94.77     960.00      30.98
 94.87     890.32      29.84
 94.97     889.00      29.82
 95.07     842.68      29.03
 95.17     862.00      29.36
 95.27     831.00      28.83
 95.37     828.00      28.77
 95.47     764.00      27.64
 95.57     696.29      26.39
 95.67     717.00      26.78
 95.77     730.00      27.02
 95.87     666.00      25.81
 95.97     656.00      25.61
 96.07     623.00      24.96
 96.17     699.05      26.44
 96.27     704.00      26.53
 96.37     733.00      27.07
 96.47     780.00      27.93
 96.57     797.00      28.23
 96.67     944.06      30.73
 96.77     985.71      31.40
 96.87    1025.00      32.02
 96.97    1070.98      32.73
 97.07    1202.21      34.67
 97.17    1334.67      36.53
 97.27    1366.33      36.96
 97.37    1447.00      38.04
 97.47    1456.00      38.16
 97.57    1447.00      38.04
 97.67    1429.00      37.80
 97.77    1434.00      37.87
 97.87    1373.65      37.06
 97.97    1339.04      36.59
 98.07    1262.00      35.52
 98.17    1160.00      34.06
 98.27    1094.36      33.08
 98.37    1090.00      33.02
 98.47     960.00      30.98
 98.57     917.00      30.28
 98.67     853.27      29.21
 98.77     771.80      27.78
 98.87     838.23      28.95
 98.97     797.00      28.23
 99.07     752.98      27.44
 99.17     770.12      27.75
 99.27     884.00      29.73
 99.37     942.68      30.70
 99.47     998.00      31.59
 99.57    1101.01      33.18
 99.67    1127.00      33.57
 99.77    1304.80      36.12
 99.87    1381.00      37.16
 99.97    1444.17      38.00
100.07    1579.00      39.74
100.17    1746.00      41.79
100.27    1757.67      41.92
100.37    1982.47      44.52
100.47    2024.00      44.99
100.57    2072.00      45.52
100.67    2109.49      45.93
100.77    2159.00      46.47
100.87    2153.00      46.40
100.97    2049.00      45.27
101.07    2053.00      45.31
101.17    1914.00      43.75
101.27    1865.00      43.19
101.37    1829.36      42.77
101.47    1670.00      40.87
101.57    1587.00      39.84
101.67    1443.00      37.99
101.77    1360.00      36.88
101.87    1311.23      36.21
101.97    1215.85      34.87
102.07    1225.93      35.01
102.17    1213.16      34.83
102.27    1211.26      34.80
102.37    1193.00      34.54
102.47    1037.00      32.20
102.57    1070.00      32.71
102.67    1041.00      32.26
102.77     987.00      31.42
102.87     988.00      31.43
102.97     965.00      31.06
103.07     959.00      30.97
103.17     911.00      30.18
103.27     849.00      29.14
103.37     859.00      29.31
103.47     819.00      28.62
103.57     730.00      27.02
103.67     710.00      26.65
103.77     685.00      26.17
103.87     681.82      26.11
103.97     569.65      23.87
104.07     608.00      24.66
104.17     622.00      24.94
104.27     603.78      24.57
104.37     524.73      22.91
104.47     592.00      24.33
104.57     532.96      23.09
104.67     536.28      23.16
104.77     561.00      23.69
104.87     489.00      22.11
104.97     563.00      23.73
105.07     504.26      22.46
105.17     521.00      22.83
105.27     558.55      23.63
105.37     544.00      23.32
105.47     546.00      23.37
105.57     538.00      23.19
105.67     548.00      23.41
105.77     521.00      22.83
105.87     520.06      22.80
105.97     555.57      23.57
106.07     568.00      23.83
106.17     546.00      23.37
106.27     581.00      24.10
106.37     629.87      25.10
106.47     578.48      24.05
106.57     621.00      24.92
106.67     660.00      25.69
106.77     682.18      26.12
106.87     643.13      25.36
106.97     695.00      26.36
107.07     713.00      26.70
107.17     699.80      26.45
107.27     640.00      25.30
107.37     690.25      26.27
107.47     691.00      26.29
107.57     680.00      26.08
107.67     665.06      25.79
107.77     655.25      25.60
107.87     666.00      25.81
107.97     658.58      25.66
108.07     648.12      25.46
108.17     704.78      26.55
108.27     657.00      25.63
108.37     630.00      25.10
108.47     600.00      24.49
108.57     756.00      27.50
108.67     688.00      26.23
108.77     736.69      27.14
108.87     659.00      25.67
108.97     690.00      26.27
109.07     662.94      25.75
109.17     680.00      26.08
109.27     677.36      26.03
109.37     666.00      25.81
109.47     633.00      25.16
109.57     591.17      24.31
109.67     635.92      25.22
109.77     618.00      24.86
109.87     629.00      25.08
109.97     635.15      25.20
110.07     609.13      24.68
110.17     576.06      24.00
110.27     580.00      24.08
110.37     568.00      23.83
110.47     569.00      23.85
110.57     579.51      24.07
110.67     523.96      22.89
110.77     545.00      23.35
110.87     580.00      24.08
110.97     543.00      23.30
111.07     538.40      23.20
111.17     505.45      22.48
111.27     535.24      23.14
111.37     543.00      23.30
111.47     587.00      24.23
111.57     528.00      22.98
111.67     538.00      23.19
111.77     553.00      23.52
111.87     541.00      23.26
111.97     555.00      23.56
112.07     564.00      23.75
112.17     585.20      24.19
112.27     538.40      23.20
112.37     585.00      24.19
112.47     596.00      24.41
112.57     580.00      24.08
112.67     576.71      24.01
112.77     677.00      26.02
112.87     669.39      25.87
112.97     656.00      25.61
113.07     681.57      26.11
113.17     711.00      26.66
113.27     766.87      27.69
113.37     756.33      27.50
113.47     763.00      27.62
113.57     861.00      29.34
113.67     942.00      30.69
113.77     913.00      30.22
113.87     995.00      31.54
113.97    1010.00      31.78
114.07    1040.00      32.25
114.17    1117.10      33.42
114.27    1094.00      33.08
114.37    1220.00      34.93
114.47    1414.00      37.60
114.57    1444.00      38.00
114.67    1582.56      39.78
114.77    1771.00      42.08
114.87    1960.00      44.27
114.97    2082.00      45.63
115.07    2326.00      48.23
115.17    2476.85      49.77
115.27    2822.00      53.12
115.37    2993.49      54.71
115.47    3403.44      58.34
115.57    3680.10      60.66
115.67    3934.00      62.72
115.77    4378.00      66.17
115.87    4853.72      69.67
115.97    5367.91      73.27
116.07    5690.75      75.44
116.17    5977.00      77.31
116.27    6347.33      79.67
116.37    6686.00      81.77
116.47    6675.00      81.70
116.57    6890.00      83.01
116.67    6985.00      83.58
116.77    6947.21      83.35
116.87    6740.00      82.10
116.97    6860.93      82.83
117.07    6379.14      79.87
117.17    6237.86      78.98
117.27    5938.89      77.06
117.37    5642.22      75.11
117.47    5097.00      71.39
117.57    4863.77      69.74
117.67    4424.00      66.51
117.77    4163.00      64.52
117.87    3635.70      60.30
117.97    3338.00      57.78
118.07    2878.72      53.65
118.17    2686.00      51.83
118.27    2251.00      47.44
118.37    2054.39      45.33
118.47    1720.00      41.47
118.57    1621.00      40.26
118.67    1357.00      36.84
118.77    1251.00      35.37
118.87    1118.00      33.44
118.97    1051.00      32.42
119.07     991.34      31.49
119.17     844.00      29.05
119.27     826.32      28.75
119.37     785.00      28.02
119.47     760.86      27.58
119.57     648.00      25.46
119.67     721.00      26.85
119.77     630.00      25.10
119.87     576.00      24.00
119.97     586.61      24.22
120.07     621.00      24.92
120.17     599.00      24.47
120.27     556.10      23.58
120.37     596.00      24.41
120.47     569.00      23.85
120.57     610.00      24.70
120.67     616.00      24.82
120.77     561.00      23.69
120.87     608.53      24.67
120.97     608.37      24.67
121.07     569.00      23.85
121.17     560.00      23.66
121.27     584.00      24.17
121.37     604.95      24.60
121.47     569.00      23.85
121.57     572.00      23.92
121.67     626.00      25.02
121.77     587.00      24.23
121.87     582.00      24.12
121.97     563.00      23.73
122.07     635.00      25.20
122.17     588.00      24.25
122.27     624.00      24.98
122.37     664.58      25.78
122.47     585.63      24.20
122.57     625.00      25.00
122.67     642.00      25.34
122.77     668.00      25.85
122.87     595.00      24.39
122.97     588.83      24.27
123.07     640.00      25.30
123.17     625.00      25.00
123.27     640.00      25.30
123.37     647.00      25.44
123.47     665.00      25.79
123.57     631.00      25.12
123.67     650.00      25.50
123.77     658.00      25.65
123.87     666.65      25.82
123.97     631.00      25.12
124.07     631.00      25.12
124.17     609.00      24.68
124.27     585.00      24.19
124.37     590.59      24.30
124.47     623.00      24.96
124.57     570.00      23.87
124.67     554.10      23.54
124.77     620.00      24.90
124.87     543.54      23.31
124.97     584.00      24.17
