  9.97     541.56      23.27
 10.07     550.35      23.46
 10.17     676.00      26.00
 10.27     613.71      24.77
 10.37     665.00      25.79
 10.47     586.46      24.22
 10.57     670.00      25.88
 10.67     646.00      25.42
 10.77     654.00      25.57
 10.87     660.19      25.69
 10.97     634.00      25.18
 11.07     681.00      26.10
 11.17     675.00      25.98
 11.27     645.00      25.40
 11.37     611.00      24.72
 11.47     648.00      25.46
 11.57     669.88      25.88
 11.67     672.00      25.92
 11.77     690.00      26.27
 11.87     683.00      26.13
 11.97     716.00      26.76
 12.07     701.00      26.48
 12.17     767.00      27.69
 12.27     748.68      27.36
 12.37     758.62      27.54
 12.47     706.10      26.57
 12.57     741.73      27.23
 12.67     694.00      26.34
 12.77     654.00      25.57
 12.87     637.25      25.24
 12.97     614.00      24.78
 13.07     625.00      25.00
 13.17     649.00      25.48
 13.27     602.00      24.54
 13.37     549.00      23.43
 13.47     585.00      24.19
 13.57     665.10      25.79
 13.67     683.12      26.14
 13.77     578.00      24.04
 13.87     641.00      25.32
 13.97     641.67      25.33
 14.07     608.73      24.67
 14.17     640.00      25.30
 14.27     659.11      25.67
 14.37     581.40      24.11
 14.47     607.00      24.64
 14.57     548.00      23.41
 14.67     650.00      25.50
 14.77     619.00      24.88
 14.87     599.00      24.47
 14.97     555.00      23.56
 15.07     605.00      24.60
 15.17     604.00      24.58
 15.27     622.00      24.94
 15.37     573.32      23.94
 15.47     588.40      24.26
 15.57     622.00      24.94
 15.67     567.00      23.81
 15.77     589.00      24.27
 15.87     579.00      24.06
 15.97     570.00      23.87
 16.07     560.00      23.66
 16.17     621.00      24.92
 16.27     551.00      23.47
 16.37     660.67      25.70
 16.47     632.14      25.14
 16.57     598.91      24.47
 16.67     623.66      24.97
 16.77     567.00      23.81
 16.87     617.29      24.85
 16.97     583.18      24.15
 17.07     621.00      24.92
 17.17     603.00      24.56
 17.27     596.00      24.41
 17.37     581.00      24.10
 17.47     613.00      24.76
 17.57     567.00      23.81
 17.67     594.00      24.37
 17.77     695.00      26.36
 17.87     601.00      24.52
 17.97     596.91      24.43
 18.07     570.00      23.87
 18.17     624.00      24.98
 18.27     607.44      24.65
 18.37     594.76      24.39
 18.47     650.75      25.51
 18.57     638.97      25.28
 18.67     606.00      24.62
 18.77     599.00      24.47
 18.87     582.50      24.14
 18.97     670.01      25.88
 19.07     685.55      26.18
 19.17     590.00      24.29
 19.27     625.00      25.00
 19.37     622.00      24.94
 19.47     574.00      23.96
 19.57     582.00      24.12
 19.67     624.00      24.98
 19.77     569.00      23.85
 19.87     666.30      25.81
 19.97     605.00      24.60
 20.07     619.00      24.88
 20.17     604.00      24.58
 20.27     670.90      25.90
 20.37     683.16      26.14
 20.47     593.00      24.35
 20.57     567.45      23.82
 20.67     594.00      24.37
 20.77     579.22      24.07
 20.87     563.00      23.73
 20.97     607.00      24.64
 21.07     596.00      24.41
 21.17     600.00      24.49
 21.27     674.02      25.96
 21.37     596.00      24.41
 21.47     573.00      23.94
 21.57     580.00      24.08
 21.67     658.84      25.67
 21.77     572.00      23.92
 21.87     602.00      24.54
 21.97     644.00      25.38
 22.07     576.00      24.00
 22.17     579.00      24.06
 22.27     543.00      23.30
 22.37     606.00      24.62
 22.47     587.00      24.23
 22.57     583.00      24.15
 22.67     677.91      26.04
 22.77     617.00      24.84
 22.87     586.00      24.21
 22.97     664.38      25.78
 23.07     600.79      24.51
 23.17     619.69      24.89
 23.27     600.14      24.50
 23.37     588.00      24.25
 23.47     641.00      25.32
 23.57     605.00      24.60
 23.67     625.00      25.00
 23.77     664.00      25.77
 23.87     567.00      23.81
 23.97     631.00      25.12
 24.07     671.05      25.90
 24.17     593.00      24.35
 24.27     591.00      24.31
 24.37     618.00      24.86
 24.47     633.23      25.16
 24.57     672.00      25.92
 24.67     701.00      26.48
 24.77     710.31      26.65
 24.87     689.00      26.25
 24.97     768.33      27.72
 25.07     726.01      26.94
 25.17     610.10      24.70
 25.27     749.00      27.37
 25.37     673.00      25.94
 25.47     601.61      24.53
 25.57     638.00      25.26
 25.67     672.80      25.94
 25.77     636.13      25.22
 25.87     656.00      25.61
 25.97     738.00      27.17
 26.07     643.00      25.36
 26.17     595.06      24.39
 26.27     671.00      25.90
 26.37     674.00      25.96
 26.47     589.51      24.28
 26.57     705.00      26.55
 26.67     683.00      26.13
 26.77     630.00      25.10
 26.87     634.00      25.18
 26.97     692.00      26.31
 27.07     636.00      25.22
 27.17     582.77      24.14
 27.27     694.00      26.34
 27.37     600.93      24.51
 27.47     735.00      27.11
 27.57     678.00      26.04
 27.67     696.00      26.38
 27.77     700.00      26.46
 27.87     695.00      26.36
 27.97     712.42      26.69
 28.07     828.00      28.77
 28.17     800.41      28.29
 28.27     992.00      31.50
 28.37     929.47      30.49
 28.47    1040.00      32.25
 28.57     990.00      31.46
 28.67     922.00      30.36
 28.77     859.00      29.31
 28.87     903.00      30.05
 28.97     949.00      30.81
 29.07     861.38      29.35
 29.17     966.00      31.08
 29.27     859.53      29.32
 29.37     752.03      27.42
 29.47     707.00      26.59
 29.57     632.81      25.16
 29.67     692.00      26.31
 29.77     651.74      25.53
 29.87     722.00      26.87
 29.97     546.52      23.38
 30.07     643.82      25.37
 30.17     710.00      26.65
 30.27     707.00      26.59
 30.37     707.00      26.59
 30.47     688.00      26.23
 30.57     689.00      26.25
 30.67     659.00      25.67
 30.77     703.00      26.51
 30.87     705.00      26.55
 30.97     588.06      24.25
 31.07     695.00      26.36
 31.17     695.00      26.36
 31.27     740.00      27.20
 31.37     659.00      25.67
 31.47     675.62      25.99
 31.57     592.31      24.34
 31.67     577.71      24.04
 31.77     660.00      25.69
 31.87     628.00      25.06
 31.97     593.39      24.36
 32.07     566.00      23.79
 32.17     630.00      25.10
 32.27     622.00      24.94
 32.37     596.00      24.41
 32.47     554.00      23.54
 32.57     629.00      25.08
 32.67     604.00      24.58
 32.77     616.00      24.82
 32.87     613.00      24.76
 32.97     644.07      25.38
 33.07     577.00      24.02
 33.17     608.00      24.66
 33.27     617.33      24.85
 33.37     644.00      25.38
 33.47     613.00      24.76
 33.57     605.00      24.60
 33.67     680.00      26.08
 33.77     687.00      26.21
 33.87     779.00      27.91
 33.97     880.00      29.66
 34.07    1014.27      31.85
 34.17    1032.48      32.13
 34.27    1094.48      33.08
 34.37     990.00      31.46
 34.47     866.00      29.43
 34.57     730.00      27.02
 34.67     688.00      26.23
 34.77     655.00      25.59
 34.87     612.00      24.74
 34.97     643.00      25.36
 35.07     574.07      23.96
 35.17     562.00      23.71
 35.27     564.00      23.75
 35.37     561.93      23.71
 35.47     584.00      24.17
 35.57     549.00      23.43
 35.67     543.00      23.30
 35.77     569.00      23.85
 35.87     517.49      22.75
 35.97     551.00      23.47
 36.07     570.00      23.87
 36.17     516.60      22.73
 36.27     536.00      23.15
 36.37     569.26      23.86
 36.47     566.00      23.79
 36.57     539.00      23.22
 36.67     579.27      24.07
 36.77     551.30      23.48
 36.87     501.00      22.38
 36.97     545.00      23.35
 37.07     536.00      23.15
 37.17     555.95      23.58
 37.27     556.00      23.58
 37.37     553.00      23.52
 37.47     578.88      24.06
 37.57     571.00      23.90
 37.67     558.00      23.62
 37.77     578.00      24.04
 37.87     572.00      23.92
 37.97     574.00      23.96
 38.07     554.00      23.54
 38.17     518.00      22.76
 38.27     569.00      23.85
 38.37     602.99      24.56
 38.47     544.00      23.32
 38.57     605.37      24.60
 38.67     546.00      23.37
 38.77     535.00      23.13
 38.87     547.25      23.39
 38.97     510.00      22.58
 39.07     538.37      23.20
 39.17     543.07      23.30
 39.27     482.00      21.95
 39.37     560.00      23.66
 39.47     518.00      22.76
 39.57     530.00      23.02
 39.67     528.00      22.98
 39.77     532.00      23.07
 39.87     552.00      23.49
 39.97     593.84      24.37
 40.07     527.16      22.96
 40.17     524.00      22.89
 40.27     507.00      22.52
 40.37     545.00      23.35
 40.47     531.00      23.04
 40.57     519.00      22.78
 40.67     528.00      22.98
 40.77     537.10      23.18
 40.87     493.80      22.22
 40.97     523.94      22.89
 41.07     572.49      23.93
 41.17     511.00      22.61
 41.27     513.00      22.65
 41.37     534.00      23.11
 41.47     491.00      22.16
 41.57     493.00      22.20
 41.67     569.08      23.86
 41.77     561.37      23.69
 41.87     570.00      23.87
 41.97     518.00      22.76
 42.07     546.98      23.39
 42.17     522.03      22.85
 42.27     529.00      23.00
 42.37     608.76      24.67
 42.47     582.00      24.12
 42.57     606.14      24.62
 42.67     688.28      26.24
 42.77     706.38      26.58
 42.87     688.36      26.24
 42.97     677.89      26.04
 43.07     597.00      24.43
 43.17     620.51      24.91
 43.27     598.75      24.47
 43.37     534.00      23.11
 43.47     532.76      23.08
 43.57     527.86      22.98
 43.67     581.60      24.12
 43.77     584.00      24.17
 43.87     537.72      23.19
 43.97     541.00      23.26
 44.07     554.00      23.54
 44.17     571.46      23.91
 44.27     492.50      22.19
 44.37     574.29      23.96
 44.47     548.00      23.41
 44.57     503.00      22.43
 44.67     497.19      22.30
 44.77     542.00      23.28
 44.87     541.00      23.26
 44.97     545.00      23.35
 45.07     480.43      21.92
 45.17     570.20      23.88
 45.27     516.00      22.72
 45.37     559.00      23.64
 45.47     523.00      22.87
 45.57     506.08      22.50
 45.67     582.75      24.14
 45.77     496.00      22.27
 45.87     534.00      23.11
 45.97     477.28      21.85
 46.07     557.00      23.60
 46.17     554.00      23.54
 46.27     525.00      22.91
 46.37     549.27      23.44
 46.47     572.00      23.92
 46.57     522.00      22.85
 46.67     523.95      22.89
 46.77     575.49      23.99
 46.87     556.00      23.58
 46.97     546.53      23.38
 47.07     525.00      22.91
 47.17     547.00      23.39
 47.27     539.00      23.22
 47.37     574.00      23.96
 47.47     548.00      23.41
 47.57     593.00      24.35
 47.67     535.00      23.13
 47.77     583.00      24.15
 47.87     610.00      24.70
 47.97     587.00      24.23
 48.07     595.00      24.39
 48.17     663.14      25.75
 48.27     619.00      24.88
 48.37     623.00      24.96
 48.47     585.51      24.20
 48.57     621.22      24.92
 48.67     623.00      24.96
 48.77     587.00      24.23
 48.87     557.00      23.60
 48.97     597.50      24.44
 49.07     566.00      23.79
 49.17     535.00      23.13
 49.27     603.00      24.56
 49.37     574.00      23.96
 49.47     612.00      24.74
 49.57     649.32      25.48
 49.67     761.26      27.59
 49.77     781.00      27.95
 49.87     996.96      31.57
 49.97    1200.33      34.65
 50.07    1522.42      39.02
 50.17    1819.00      42.65
 50.27    2160.62      46.48
 50.37    2478.00      49.78
 50.47    2257.09      47.51
 50.57    2094.00      45.76
 50.67    1746.46      41.79
 50.77    1447.00      38.04
 50.87    1073.00      32.76
 50.97    1040.78      32.26
 51.07     805.00      28.37
 51.17     717.00      26.78
 51.27     691.10      26.29
 51.37     729.38      27.01
 51.47     635.00      25.20
 51.57     644.00      25.38
 51.67     648.84      25.47
 51.77     613.94      24.78
 51.87     597.00      24.43
 51.97     594.00      24.37
 52.07     616.00      24.82
 52.17     630.00      25.10
 52.27     563.17      23.73
 52.37     621.00      24.92
 52.47     594.00      24.37
 52.57     574.29      23.96
 52.67     586.00      24.21
 52.77     591.78      24.33
 52.87     623.00      24.96
 52.97     692.91      26.32
 53.07     662.00      25.73
 53.17     680.93      26.09
 53.27     841.00      29.00
 53.37     926.00      30.43
 53.47    1034.00      32.16
 53.57    1153.11      33.96
 53.67    1167.93      34.18
 53.77    1230.00      35.07
 53.87    1229.83      35.07
 53.97    1116.00      33.41
 54.07     995.00      31.54
 54.17     911.00      30.18
 54.27     793.00      28.16
 54.37     734.00      27.09
 54.47     691.83      26.30
 54.57     689.00      26.25
 54.67     632.00      25.14
 54.77     620.00      24.90
 54.87     620.00      24.90
 54.97     641.73      25.33
 55.07     579.00      24.06
 55.17     611.74      24.73
 55.27     610.00      24.70
 55.37     596.42      24.42
 55.47     629.00      25.08
 55.57     557.96      23.62
 55.67     636.00      25.22
 55.77     621.00      24.92
 55.87     674.00      25.96
 55.97     593.00      24.35
 56.07     709.16      26.63
 56.17     669.53      25.88
 56.27     845.56      29.08
 56.37     882.00      29.70
 56.47    1010.00      31.78
 56.57    1162.00      34.09
 56.67    1461.00      38.22
 56.77    1703.30      41.27
 56.87    2041.00      45.18
 56.97    2357.00      48.55
 57.07    2558.00      50.58
 57.17    2597.00      50.96
 57.27    2496.53      49.97
 57.37    2159.00      46.47
 57.47    1844.00      42.94
 57.57    1471.00      38.35
 57.67    1366.47      36.97
 57.77    1028.96      32.08
 57.87     910.00      30.17
 57.97     870.00      29.50
 58.07     761.24      27.59
 58.17     765.79      27.67
 58.27     728.00      26.98
 58.37     768.68      27.73
 58.47     748.00      27.35
 58.57     804.09      28.36
 58.67     919.00      30.32
 58.77     895.62      29.93
 58.87    1022.00      31.97
 58.97    1128.00      33.59
 59.07    1188.00      34.47
 59.17    1170.00      34.21
 59.27    1280.00      35.78
 59.37    1299.00      36.04
 59.47    1288.00      35.89
 59.57    1218.00      34.90
 59.67    1242.07      35.24
 59.77    1203.97      34.70
 59.87    1192.00      34.53
 59.97    1263.00      35.54
 60.07    1310.00      36.19
 60.17    1265.00      35.57
 60.27    1474.54      38.40
 60.37    1606.11      40.08
 60.47    1502.19      38.76
 60.57    1581.00      39.76
 60.67    1509.46      38.85
 60.77    1351.00      36.76
 60.87    1194.65      34.56
 60.97    1056.00      32.50
 61.07     892.00      29.87
 61.17     869.10      29.48
 61.27     773.00      27.80
 61.37     751.25      27.41
 61.47     735.00      27.11
 61.57     739.00      27.18
 61.67     714.70      26.73
 61.77     861.58      29.35
 61.87     870.00      29.50
 61.97     969.97      31.14
 62.07    1129.83      33.61
 62.17    1185.00      34.42
 62.27    1222.00      34.96
 62.37    1314.00      36.25
 62.47    1372.00      37.04
 62.57    1335.00      36.54
 62.67    1202.00      34.67
 62.77    1102.00      33.20
 62.87    1040.00      32.25
 62.97     863.87      29.39
 63.07     804.00      28.35
 63.17     750.00      27.39
 63.27     695.00      26.36
 63.37     670.50      25.89
 63.47     695.02      26.36
 63.57     623.00      24.96
 63.67     653.00      25.55
 63.77     662.00      25.73
 63.87     636.00      25.22
 63.97     639.00      25.28
 64.07     660.60      25.70
 64.17     733.64      27.09
 64.27     708.00      26.61
 64.37     748.74      27.36
 64.47     824.00      28.71
 64.57     865.13      29.41
 64.67     977.00      31.26
 64.77    1013.41      31.83
 64.87    1040.00      32.25
 64.97    1067.00      32.66
 65.07    1043.95      32.31
 65.17    1053.05      32.45
 65.27     915.00      30.25
 65.37     862.00      29.36
 65.47     823.00      28.69
 65.57     795.12      28.20
 65.67     783.00      27.98
 65.77     715.00      26.74
 65.87     718.00      26.80
 65.97     621.71      24.93
 66.07     704.24      26.54
 66.17     591.61      24.32
 66.27     583.00      24.15
 66.37     594.88      24.39
 66.47     634.92      25.20
 66.57     643.86      25.37
 66.67     564.47      23.76
 66.77     560.78      23.68
 66.87     621.00      24.92
 66.97     644.00      25.38
 67.07     611.00      24.72
 67.17     669.36      25.87
 67.27     755.13      27.48
 67.37     707.00      26.59
 67.47     823.00      28.69
 67.57     904.00      30.07
 67.67    1140.34      33.77
 67.77    1194.00      34.55
 67.87    1407.00      37.51
 67.97    1618.00      40.22
 68.07    1808.57      42.53
 68.17    2144.00      46.30
 68.27    2284.00      47.79
 68.37    2341.99      48.39
 68.47    2356.79      48.55
 68.57    2163.21      46.51
 68.67    2055.00      45.33
 68.77    1838.60      42.88
 68.87    1662.00      40.77
 68.97    1399.00      37.40
 69.07    1134.00      33.67
 69.17    1067.33      32.67
 69.27     891.00      29.85
 69.37     854.79      29.24
 69.47     730.00      27.02
 69.57     730.00      27.02
 69.67     716.70      26.77
 69.77     673.55      25.95
 69.87     614.50      24.79
 69.97     653.00      25.55
 70.07     560.50      23.67
 70.17     622.00      24.94
 70.27     628.00      25.06
 70.37     635.43      25.21
 70.47     650.79      25.51
 70.57     622.00      24.94
 70.67     651.45      25.52
 70.77     563.55      23.74
 70.87     630.00      25.10
 70.97     659.00      25.67
 71.07     663.00      25.75
 71.17     693.00      26.32
 71.27     727.00      26.96
 71.37     704.77      26.55
 71.47     771.00      27.77
 71.57     895.00      29.92
 71.67     951.00      30.84
 71.77    1241.27      35.23
 71.87    1311.00      36.21
 71.97    1465.00      38.28
 72.07    1670.00      40.87
 72.17    1682.92      41.02
 72.27    1819.00      42.65
 72.37    1813.92      42.59
 72.47    1833.00      42.81
 72.57    1755.00      41.89
 72.67    1677.00      40.95
 72.77    1560.00      39.50
 72.87    1365.94      36.96
 72.97    1246.00      35.30
 73.07    1070.65      32.72
 73.17     967.00      31.10
 73.27     859.00      29.31
 73.37     746.00      27.31
 73.47     690.00      26.27
 73.57     712.09      26.68
 73.67     703.00      26.51
 73.77     638.00      25.26
 73.87     556.20      23.58
 73.97     639.00      25.28
 74.07     628.00      25.06
 74.17     646.90      25.43
 74.27     631.00      25.12
 74.37     595.27      24.40
 74.47     558.57      23.63
 74.57     655.00      25.59
 74.67     635.48      25.21
 74.77     635.00      25.20
 74.87     663.00      25.75
 74.97     630.51      25.11
 75.07     562.18      23.71
 75.17     658.00      25.65
 75.27     660.00      25.69
 75.37     657.00      25.63
 75.47     616.12      24.82
 75.57     635.00      25.20
 75.67     649.00      25.48
 75.77     522.47      22.86
 75.87     596.00      24.41
 75.97     566.00      23.79
 76.07     638.00      25.26
 76.17     592.60      24.34
 76.27     653.00      25.55
 76.37     687.00      26.21
 76.47     615.05      24.80
 76.57     737.00      27.15
 76.67     740.00      27.20
 76.77     732.00      27.06
 76.87     723.18      26.89
 76.97     704.09      26.53
 77.07     703.00      26.51
 77.17     711.00      26.66
 77.27     698.00      26.42
 77.37     679.00      26.06
 77.47     703.31      26.52
 77.57     637.00      25.24
 77.67     600.00      24.49
 77.77     563.01      23.73
 77.87     626.53      25.03
 77.97     594.15      24.38
 78.07     530.00      23.02
 78.17     568.31      23.84
 78.27     572.04      23.92
 78.37     553.21      23.52
 78.47     578.39      24.05
 78.57     540.00      23.24
 78.67     528.00      22.98
 78.77     560.00      23.66
 78.87     554.00      23.54
 78.97     529.00      23.00
 79.07     490.25      22.14
 79.17     565.00      23.77
 79.27     560.00      23.66
 79.37     566.00      23.79
 79.47     505.15      22.48
 79.57     515.89      22.71
 79.67     527.02      22.96
 79.77     559.00      23.64
 79.87     553.00      23.52
 79.97     560.00      23.66
 80.07     567.86      23.83
 80.17     581.35      24.11
 80.27     545.78      23.36
 80.37     532.28      23.07
 80.47     586.00      24.21
 80.57     603.00      24.56
 80.67     586.96      24.23
 80.77     570.66      23.89
 80.87     632.00      25.14
 80.97     643.85      25.37
 81.07     624.19      24.98
 81.17     683.00      26.13
 81.27     689.00      26.25
 81.37     709.23      26.63
 81.47     698.00      26.42
 81.57     777.54      27.88
 81.67     781.00      27.95
 81.77     782.00      27.96
 81.87     780.00      27.93
 81.97     711.57      26.68
 82.07     723.99      26.91
 82.17     736.00      27.13
 82.27     706.02      26.57
 82.37     728.75      27.00
 82.47     645.06      25.40
 82.57     680.41      26.08
 82.67     673.00      25.94
 82.77     646.00      25.42
 82.87     586.07      24.21
 82.97     610.06      24.70
 83.07     585.00      24.19
 83.17     598.00      24.45
 83.27     560.00      23.66
 83.37     585.00      24.19
 83.47     620.00      24.90
 83.57     600.00      24.49
 83.67     550.00      23.45
 83.77     606.83      24.63
 83.87     605.64      24.61
 83.97     588.76      24.26
 84.07     574.05      23.96
 84.17     589.00      24.27
 84.27     598.71      24.47
 84.37     628.64      25.07
 84.47     571.00      23.90
 84.57     621.92      24.94
 84.67     567.04      23.81
 84.77     603.00      24.56
 84.87     522.00      22.85
 84.97     555.00      23.56
 85.07     518.28      22.77
 85.17     514.20      22.68
 85.27     556.00      23.58
 85.37     555.00      23.56
 85.47     502.00      22.41
 85.57     532.75      23.08
 85.67     537.14      23.18
 85.77     525.00      22.91
 85.87     556.00      23.58
 85.97     560.00      23.66
 86.07     588.45      24.26
 86.17     537.00      23.17
 86.27     510.00      22.58
 86.37     558.00      23.62
 86.47     579.00      24.06
 86.57     540.00      23.24
 86.67     600.28      24.50
 86.77     543.00      23.30
 86.87     578.00      24.04
 86.97     539.63      23.23
 87.07     584.00      24.17
 87.17     615.00      24.80
 87.27     594.00      24.37
 87.37     585.00      24.19
 87.47     655.00      25.59
 87.57     585.39      24.19
 87.67     581.68      24.12
 87.77     654.00      25.57
 87.87     662.00      25.73
 87.97     687.13      26.21
 88.07     636.00      25.22
 88.17     641.44      25.33
 88.27     610.00      24.70
 88.37     612.00      24.74
 88.47     653.75      25.57
 88.57     615.00      24.80
 88.67     579.00      24.06
 88.77     621.96      24.94
 88.87     604.00      24.58
 88.97     559.26      23.65
 89.07     577.67      24.03
 89.17     557.00      23.60
 89.27     601.00      24.52
 89.37     607.00      24.64
 89.47     639.34      25.29
 89.57     649.31      25.48
 89.67     609.00      24.68
 89.77     597.40      24.44
 89.87     631.42      25.13
 89.97     625.00      25.00
 90.07     604.00      24.58
 90.17     561.21      23.69
 90.27     579.00      24.06
 90.37     580.00      24.08
 90.47     560.00      23.66
 90.57     542.00      23.28
 90.67     601.00      24.52
 90.77     574.00      23.96
 90.87     538.00      23.19
 90.97     535.00      23.13
 91.07     528.00      22.98
 91.17     553.00      23.52
 91.27     536.00      23.15
 91.37     499.00      22.34
 91.47     513.18      22.65
 91.57     529.18      23.00
 91.67     601.60      24.53
 91.77     526.00      22.93
 91.87     517.00      22.74
 91.97     542.68      23.30
 92.07     539.00      23.22
 92.17     548.00      23.41
 92.27     511.00      22.61
 92.37     566.00      23.79
 92.47     558.00      23.62
 92.57     646.76      25.43
 92.67     570.00      23.87
 92.77     608.00      24.66
 92.87     632.00      25.14
 92.97     621.09      24.92
 93.07     609.00      24.68
 93.17     633.00      25.16
 93.27     704.00      26.53
 93.37     690.00      26.27
 93.47     777.33      27.88
 93.57     761.00      27.59
 93.67     793.07      28.16
 93.77     747.00      27.33
 93.87     760.00      27.57
 93.97     811.00      28.48
 94.07     791.00      28.12
 94.17     892.76      29.88
 94.27     875.00      29.58
 94.37     824.00      28.71
 94.47     794.93      28.19
 94.57     908.13      30.14
 94.67     896.00      29.93
 94.77     881.00      29.68
 94.87     887.81      29.80
 94.97     944.00      30.72
 95.07     973.00      31.19
 95.17     911.00      30.18
 95.27     860.00      29.33
 95.37     849.00      29.14
 95.47     874.00      29.56
 95.57     924.26      30.40
 95.67     890.00      29.83
 95.77     860.00      29.33
 95.87     785.00      28.02
 95.97     837.53      28.94
 96.07     809.35      28.45
 96.17     789.54      28.10
 96.27     701.69      26.49
 96.37     755.00      27.48
 96.47     681.00      26.10
 96.57     764.03      27.64
 96.67     773.00      27.80
 96.77     737.22      27.15
 96.87     875.00      29.58
 96.97     842.40      29.02
 97.07     883.12      29.72
 97.17     944.00      30.72
 97.27    1047.00      32.36
 97.37    1092.00      33.05
 97.47    1232.00      35.10
 97.57    1290.00      35.92
 97.67    1272.29      35.67
 97.77    1419.00      37.67
 97.87    1445.00      38.01
 97.97    1524.00      39.04
 98.07    1473.00      38.38
 98.17    1492.00      38.63
 98.27    1441.00      37.96
 98.37    1317.99      36.30
 98.47    1366.00      36.96
 98.57    1282.00      35.81
 98.67    1190.00      34.50
 98.77    1180.29      34.36
 98.87    1161.41      34.08
 98.97    1011.71      31.81
 99.07    1042.52      32.29
 99.17     968.00      31.11
 99.27     955.00      30.90
 99.37     958.46      30.96
 99.47     881.11      29.68
 99.57     889.00      29.82
 99.67     955.00      30.90
 99.77     980.00      31.30
 99.87    1009.00      31.76
 99.97    1045.03      32.33
100.07    1148.00      33.88
100.17    1210.00      34.79
100.27    1306.00      36.14
100.37    1402.20      37.45
100.47    1620.00      40.25
100.57    1718.00      41.45
100.67    1758.00      41.93
100.77    1726.00      41.55
100.87    1759.73      41.95
100.97    1967.00      44.35
101.07    2043.00      45.20
101.17    2060.00      45.39
101.27    1970.23      44.39
101.37    1943.00      44.08
101.47    2004.00      44.77
101.57    1892.00      43.50
101.67    1909.00      43.69
101.77    1779.66      42.19
101.87    1724.00      41.52
101.97    1643.91      40.55
102.07    1610.00      40.12
102.17    1482.61      38.50
102.27    1509.02      38.85
102.37    1336.00      36.55
102.47    1376.27      37.10
102.57    1309.00      36.18
102.67    1269.74      35.63
102.77    1178.27      34.33
102.87    1191.00      34.51
102.97    1229.00      35.06
103.07    1150.00      33.91
103.17    1142.51      33.80
103.27    1170.44      34.21
103.37    1101.17      33.18
103.47    1008.00      31.75
103.57    1037.22      32.21
103.67     975.90      31.24
103.77     862.85      29.37
103.87     872.00      29.53
103.97     862.66      29.37
104.07     836.82      28.93
104.17     760.00      27.57
104.27     697.27      26.41
104.37     706.00      26.57
104.47     705.00      26.55
104.57     650.00      25.50
104.67     656.58      25.62
104.77     605.00      24.60
104.87     575.69      23.99
104.97     599.00      24.47
105.07     567.37      23.82
105.17     586.00      24.21
105.27     539.27      23.22
105.37     522.41      22.86
105.47     514.83      22.69
105.57     584.00      24.17
105.67     546.47      23.38
105.77     546.83      23.38
105.87     540.00      23.24
105.97     540.07      23.24
106.07     573.27      23.94
106.17     567.00      23.81
106.27     601.00      24.52
106.37     601.53      24.53
106.47     552.02      23.50
106.57     616.00      24.82
106.67     615.00      24.80
106.77     594.00      24.37
106.87     658.86      25.67
106.97     597.00      24.43
107.07     634.00      25.18
107.17     709.00      26.63
107.27     693.88      26.34
107.37     735.13      27.11
107.47     673.00      25.94
107.57     682.00      26.12
107.67     707.00      26.59
107.77     745.00      27.29
107.87     704.00      26.53
107.97     695.00      26.36
108.07     677.00      26.02
108.17     723.00      26.89
108.27     774.01      27.82
108.37     719.30      26.82
108.47     711.00      26.66
108.57     695.44      26.37
108.67     696.00      26.38
108.77     734.00      27.09
108.87     744.00      27.28
108.97     698.00      26.42
109.07     686.00      26.19
109.17     724.00      26.91
109.27     670.00      25.88
109.37     753.00      27.44
109.47     731.00      27.04
109.57     680.71      26.09
109.67     667.65      25.84
109.77     683.00      26.13
109.87     701.00      26.48
109.97     643.88      25.37
110.07     723.00      26.89
110.17     684.00      26.15
110.27     685.00      26.17
110.37     613.47      24.77
110.47     671.81      25.92
110.57     596.40      24.42
110.67     607.00      24.64
110.77     616.00      24.82
110.87     582.54      24.14
110.97     615.00      24.80
111.07     557.53      23.61
111.17     578.00      24.04
111.27     585.00      24.19
111.37     623.00      24.96
111.47     528.37      22.99
111.57     558.00      23.62
111.67     578.00      24.04
111.77     607.00      24.64
111.87     603.00      24.56
111.97     573.37      23.95
112.07     540.23      23.24
112.17     599.00      24.47
112.27     538.37      23.20
112.37     522.40      22.86
112.47     506.00      22.49
112.57     535.00      23.13
112.67     570.85      23.89
112.77     583.00      24.15
112.87     604.00      24.58
112.97     531.86      23.06
113.07     596.00      24.41
113.17     550.00      23.45
113.27     605.00      24.60
113.37     562.24      23.71
113.47     588.00      24.25
113.57     633.03      25.16
113.67     665.09      25.79
113.77     668.15      25.85
113.87     684.00      26.15
113.97     660.51      25.70
114.07     641.23      25.32
114.17     687.00      26.21
114.27     661.58      25.72
114.37     675.24      25.99
114.47     803.00      28.34
114.57     816.00      28.57
114.67     843.00      29.03
114.77     926.00      30.43
114.87    1015.00      31.86
114.97    1118.00      33.44
115.07    1265.00      35.57
115.17    1346.00      36.69
115.27    1549.00      39.36
115.37    1658.00      40.72
115.47    1951.00      44.17
115.57    2190.00      46.80
115.67    2447.00      49.47
115.77    2679.70      51.77
115.87    2872.00      53.59
115.97    3242.00      56.94
116.07    3602.00      60.02
116.17    3993.00      63.19
116.27    4247.00      65.17
116.37    4643.00      68.14
116.47    4902.89      70.02
116.57    5310.58      72.87
116.67    5812.00      76.24
116.77    6165.00      78.52
116.87    6434.00      80.21
116.97    6779.76      82.34
117.07    6840.46      82.71
117.17    6996.00      83.64
117.27    7051.00      83.97
117.37    7028.22      83.83
117.47    7059.00      84.02
117.57    6757.00      82.20
117.67    6680.83      81.74
117.77    6231.74      78.94
117.87    6012.82      77.54
117.97    5801.05      76.16
118.07    5412.96      73.57
118.17    4964.00      70.46
118.27    4740.00      68.85
118.37    4371.00      66.11
118.47    3982.00      63.10
118.57    3790.00      61.56
118.67    3423.00      58.51
118.77    2934.74      54.17
118.87    2716.00      52.12
118.97    2410.01      49.09
119.07    2171.00      46.59
119.17    1941.00      44.06
119.27    1913.21      43.74
119.37    1742.81      41.75
119.47    1474.00      38.39
119.57    1290.50      35.92
119.67    1148.00      33.88
119.77    1139.00      33.75
119.87    1083.38      32.91
119.97    1054.00      32.47
120.07     934.00      30.56
120.17     902.00      30.03
120.27     799.00      28.27
120.37     744.00      27.28
120.47     788.10      28.07
120.57     682.63      26.13
120.67     685.00      26.17
120.77     693.00      26.32
120.87     661.00      25.71
120.97     634.00      25.18
121.07     644.00      25.38
121.17     631.00      25.12
121.27     632.00      25.14
121.37     639.58      25.29
121.47     657.52      25.64
121.57     621.00      24.92
121.67     580.00      24.08
121.77     606.00      24.62
121.87     623.00      24.96
121.97     601.00      24.52
122.07     616.00      24.82
122.17     585.00      24.19
122.27     609.00      24.68
122.37     640.10      25.30
122.47     658.00      25.65
122.57     612.00      24.74
122.67     649.00      25.48
122.77     613.00      24.76
122.87     650.58      25.51
122.97     635.00      25.20
123.07     613.20      24.76
123.17     627.49      25.05
123.27     609.45      24.69
123.37     667.00      25.83
123.47     631.00      25.12
123.57     664.00      25.77
123.67     687.00      26.21
123.77     604.82      24.59
123.87     635.00      25.20
123.97     642.70      25.35
124.07     648.00      25.46
124.17     587.43      24.24
124.27     661.00      25.71
124.37     649.00      25.48
124.47     579.24      24.07
124.57     664.04      25.77
124.67     667.67      25.84
124.77     599.67      24.49
124.87     629.00      25.08
124.97     607.00      24.64
