  9.97     605.00      24.60
 10.07     575.73      23.99
 10.17     534.83      23.13
 10.27     598.99      24.47
 10.37     584.00      24.17
 10.47     525.82      22.93
 10.57     588.00      24.25
 10.67     622.00      24.94
 10.77     590.00      24.29
 10.87     583.00      24.15
 10.97     578.90      24.06
 11.07     563.64      23.74
 11.17     587.00      24.23
 11.27     538.97      23.22
 11.37     541.68      23.27
 11.47     574.00      23.96
 11.57     564.00      23.75
 11.67     619.11      24.88
 11.77     561.20      23.69
 11.87     624.00      24.98
 11.97     639.00      25.28
 12.07     697.00      26.40
 12.17     642.00      25.34
 12.27     689.00      26.25
 12.37     660.00      25.69
 12.47     669.00      25.87
 12.57     567.18      23.82
 12.67     588.00      24.25
 12.77     620.31      24.91
 12.87     589.00      24.27
 12.97     547.00      23.39
 13.07     532.65      23.08
 13.17     535.00      23.13
 13.27     595.15      24.40
 13.37     615.00      24.80
 13.47     586.42      24.22
 13.57     577.00      24.02
 13.67     564.00      23.75
 13.77     572.96      23.94
 13.87     570.00      23.87
 13.97     577.00      24.02
 14.07     515.00      22.69
 14.17     563.00      23.73
 14.27     557.00      23.60
 14.37     549.00      23.43
 14.47     523.64      22.88
 14.57     530.00      23.02
 14.67     570.00      23.87
 14.77     546.00      23.37
 14.87     525.61      22.93
 14.97     579.00      24.06
 15.07     601.00      24.52
 15.17     526.71      22.95
 15.27     535.00      23.13
 15.37     531.82      23.06
 15.47     568.83      23.85
 15.57     589.00      24.27
 15.67     565.00      23.77
 15.77     549.37      23.44
 15.87     548.00      23.41
 15.97     583.00      24.15
 16.07     555.00      23.56
 16.17     559.00      23.64
 16.27     584.92      24.19
 16.37     600.55      24.51
 16.47     581.00      24.10
 16.57     556.00      23.58
 16.67     526.25      22.94
 16.77     545.00      23.35
 16.87     586.00      24.21
 16.97     534.00      23.11
 17.07     592.60      24.34
 17.17     588.00      24.25
 17.27     547.00      23.39
 17.37     548.00      23.41
 17.47     583.00      24.15
 17.57     523.00      22.87
 17.67     566.09      23.79
 17.77     610.00      24.70
 17.87     518.28      22.77
 17.97     535.32      23.14
 18.07     597.00      24.43
 18.17     540.85      23.26
 18.27     577.27      24.03
 18.37     530.79      23.04
 18.47     565.00      23.77
 18.57     528.89      23.00
 18.67     564.84      23.77
 18.77     558.00      23.62
 18.87     549.00      23.43
 18.97     541.00      23.26
 19.07     518.21      22.76
 19.17     597.43      24.44
 19.27     540.00      23.24
 19.37     514.42      22.68
 19.47     561.15      23.69
 19.57     556.00      23.58
 19.67     519.00      22.78
 19.77     546.00      23.37
 19.87     533.83      23.10
 19.97     486.00      22.05
 20.07     547.00      23.39
 20.17     564.00      23.75
 20.27     525.54      22.92
 20.37     532.92      23.09
 20.47     569.44      23.86
 20.57     530.15      23.02
 20.67     552.00      23.49
 20.77     550.00      23.45
 20.87     551.00      23.47
 20.97     515.00      22.69
 21.07     580.00      24.08
 21.17     544.00      23.32
 21.27     517.00      22.74
 21.37     571.86      23.91
 21.47     541.00      23.26
 21.57     537.71      23.19
 21.67     565.00      23.77
 21.77     574.00      23.96
 21.87     561.00      23.69
 21.97     518.00      22.76
 22.07     555.00      23.56
 22.17     574.08      23.96
 22.27     525.00      22.91
 22.37     571.00      23.90
 22.47     571.00      23.90
 22.57     558.00      23.62
 22.67     589.16      24.27
 22.77     518.14      22.76
 22.87     555.00      23.56
 22.97     501.00      22.38
 23.07     491.00      22.16
 23.17     544.00      23.32
 23.27     506.64      22.51
 23.37     582.00      24.12
 23.47     557.00      23.60
 23.57     572.98      23.94
 23.67     526.00      22.93
 23.77     514.26      22.68
 23.87     545.00      23.35
 23.97     552.00      23.49
 24.07     533.42      23.10
 24.17     540.28      23.24
 24.27     592.00      24.33
 24.37     585.00      24.19
 24.47     587.00      24.23
 24.57     571.00      23.90
 24.67     601.00      24.52
 24.77     626.00      25.02
 24.87     623.00      24.96
 24.97     595.00      24.39
 25.07     618.00      24.86
 25.17     578.00      24.04
 25.27     577.00      24.02
 25.37     546.00      23.37
 25.47     545.00      23.35
 25.57     524.00      22.89
 25.67     543.00      23.30
 25.77     575.00      23.98
 25.87     563.00      23.73
 25.97     540.00      23.24
 26.07     561.00      23.69
 26.17     573.00      23.94
 26.27     528.00      22.98
 26.37     542.00      23.28
 26.47     534.00      23.11
 26.57     579.76      24.08
 26.67     549.88      23.45
 26.77     581.42      24.11
 26.87     572.00      23.92
 26.97     546.74      23.38
 27.07     527.00      22.96
 27.17     541.88      23.28
 27.27     525.07      22.91
 27.37     513.00      22.65
 27.47     517.71      22.75
 27.57     530.42      23.03
 27.67     575.94      24.00
 27.77     616.00      24.82
 27.87     611.00      24.72
 27.97     702.00      26.50
 28.07     803.00      28.34
 28.17     933.83      30.56
 28.27     977.43      31.26
 28.37     875.74      29.59
 28.47     783.28      27.99
 28.57     758.38      27.54
 28.67     655.00      25.59
 28.77     697.25      26.41
 28.87     800.00      28.28
 28.97     792.74      28.16
 29.07     782.00      27.96
 29.17     689.00      26.25
 29.27     643.00      25.36
 29.37     637.00      25.24
 29.47     555.00      23.56
 29.57     604.00      24.58
 29.67     602.47      24.55
 29.77     538.86      23.21
 29.87     637.00      25.24
 29.97     587.51      24.24
 30.07     546.00      23.37
 30.17     563.11      23.73
 30.27     547.00      23.39
 30.37     555.00      23.56
 30.47     555.53      23.57
 30.57     629.00      25.08
 30.67     569.00      23.85
 30.77     572.52      23.93
 30.87     564.26      23.75
 30.97     578.67      24.06
 31.07     600.00      24.49
 31.17     578.00      24.04
 31.27     544.00      23.32
 31.37     565.41      23.78
 31.47     531.87      23.06
 31.57     529.00      23.00
 31.67     549.40      23.44
 31.77     499.00      22.34
 31.87     549.00      23.43
 31.97     529.46      23.01
 32.07     508.49      22.55
 32.17     576.00      24.00
 32.27     510.67      22.60
 32.37     511.85      22.62
 32.47     528.71      22.99
 32.57     521.33      22.83
 32.67     570.40      23.88
 32.77     525.00      22.91
 32.87     544.60      23.34
 32.97     557.00      23.60
 33.07     503.65      22.44
 33.17     513.00      22.65
 33.27     546.00      23.37
 33.37     526.00      22.93
 33.47     548.00      23.41
 33.57     605.30      24.60
 33.67     689.08      26.25
 33.77     774.00      27.82
 33.87     904.59      30.08
 33.97    1033.35      32.15
 34.07    1030.00      32.09
 34.17    1015.00      31.86
 34.27     892.00      29.87
 34.37     795.00      28.20
 34.47     672.00      25.92
 34.57     624.82      25.00
 34.67     579.00      24.06
 34.77     539.05      23.22
 34.87     554.00      23.54
 34.97     523.36      22.88
 35.07     553.38      23.52
 35.17     499.00      22.34
 35.27     551.00      23.47
 35.37     561.13      23.69
 35.47     547.00      23.39
 35.57     525.34      22.92
 35.67     540.00      23.24
 35.77     502.00      22.41
 35.87     494.00      22.23
 35.97     555.00      23.56
 36.07     505.00      22.47
 36.17     517.67      22.75
 36.27     532.67      23.08
 36.37     490.00      22.14
 36.47     485.00      22.02
 36.57     518.93      22.78
 36.67     512.00      22.63
 36.77     515.00      22.69
 36.87     520.00      22.80
 36.97     487.00      22.07
 37.07     537.00      23.17
 37.17     525.00      22.91
 37.27     543.62      23.32
 37.37     555.33      23.57
 37.47     526.00      22.93
 37.57     511.00      22.61
 37.67     500.00      22.36
 37.77     505.00      22.47
 37.87     534.00      23.11
 37.97     542.00      23.28
 38.07     497.00      22.29
 38.17     495.00      22.25
 38.27     494.00      22.23
 38.37     487.00      22.07
 38.47     502.31      22.41
 38.57     552.00      23.49
 38.67     519.11      22.78
 38.77     524.85      22.91
 38.87     480.18      21.91
 38.97     485.00      22.02
 39.07     493.00      22.20
 39.17     524.00      22.89
 39.27     546.00      23.37
 39.37     503.00      22.43
 39.47     508.00      22.54
 39.57     508.00      22.54
 39.67     513.00      22.65
 39.77     473.34      21.76
 39.87     474.82      21.79
 39.97     530.12      23.02
 40.07     489.00      22.11
 40.17     532.20      23.07
 40.27     503.00      22.43
 40.37     496.73      22.29
 40.47     506.00      22.49
 40.57     518.00      22.76
 40.67     498.38      22.32
 40.77     492.81      22.20
 40.87     456.00      21.35
 40.97     499.00      22.34
 41.07     504.00      22.45
 41.17     497.00      22.29
 41.27     477.17      21.84
 41.37     529.00      23.00
 41.47     508.00      22.54
 41.57     477.28      21.85
 41.67     509.00      22.56
 41.77     459.00      21.42
 41.87     505.00      22.47
 41.97     492.00      22.18
 42.07     524.00      22.89
 42.17     504.23      22.45
 42.27     585.39      24.19
 42.37     533.57      23.10
 42.47     566.29      23.80
 42.57     633.00      25.16
 42.67     658.79      25.67
 42.77     592.00      24.33
 42.87     573.00      23.94
 42.97     550.00      23.45
 43.07     566.00      23.79
 43.17     505.00      22.47
 43.27     495.00      22.25
 43.37     493.00      22.20
 43.47     491.00      22.16
 43.57     508.02      22.54
 43.67     460.00      21.45
 43.77     542.00      23.28
 43.87     516.00      22.72
 43.97     548.35      23.42
 44.07     479.00      21.89
 44.17     481.39      21.94
 44.27     537.00      23.17
 44.37     540.56      23.25
 44.47     522.54      22.86
 44.57     500.00      22.36
 44.67     540.54      23.25
 44.77     511.00      22.61
 44.87     465.90      21.58
 44.97     526.00      22.93
 45.07     497.00      22.29
 45.17     547.45      23.40
 45.27     492.44      22.19
 45.37     490.61      22.15
 45.47     510.00      22.58
 45.57     531.00      23.04
 45.67     522.00      22.85
 45.77     534.00      23.11
 45.87     473.00      21.75
 45.97     501.00      22.38
 46.07     477.00      21.84
 46.17     487.00      22.07
 46.27     524.00      22.89
 46.37     499.00      22.34
 46.47     504.00      22.45
 46.57     470.35      21.69
 46.67     512.00      22.63
 46.77     544.24      23.33
 46.87     519.00      22.78
 46.97     476.69      21.83
 47.07     500.00      22.36
 47.17     538.66      23.21
 47.27     486.00      22.05
 47.37     553.07      23.52
 47.47     551.47      23.48
 47.57     543.00      23.30
 47.67     597.00      24.43
 47.77     582.47      24.13
 47.87     609.00      24.68
 47.97     605.47      24.61
 48.07     593.00      24.35
 48.17     593.21      24.36
 48.27     556.00      23.58
 48.37     577.00      24.02
 48.47     558.25      23.63
 48.57     529.00      23.00
 48.67     556.65      23.59
 48.77     564.00      23.75
 48.87     556.00      23.58
 48.97     544.00      23.32
 49.07     593.00      24.35
 49.17     568.00      23.83
 49.27     552.00      23.49
 49.37     591.49      24.32
 49.47     676.00      26.00
 49.57     774.00      27.82
 49.67     841.00      29.00
 49.77    1088.17      32.99
 49.87    1441.03      37.96
 49.97    1791.93      42.33
 50.07    2137.73      46.24
 50.17    2463.26      49.63
 50.27    2402.00      49.01
 50.37    2264.56      47.59
 50.47    1866.11      43.20
 50.57    1374.00      37.07
 50.67    1130.07      33.62
 50.77     859.00      29.31
 50.87     773.00      27.80
 50.97     679.00      26.06
 51.07     669.00      25.87
 51.17     649.00      25.48
 51.27     627.00      25.04
 51.37     593.00      24.35
 51.47     581.00      24.10
 51.57     549.00      23.43
 51.67     550.00      23.45
 51.77     547.00      23.39
 51.87     537.00      23.17
 51.97     501.72      22.40
 52.07     572.00      23.92
 52.17     604.00      24.58
 52.27     556.00      23.58
 52.37     566.00      23.79
 52.47     524.63      22.90
 52.57     540.00      23.24
 52.67     541.92      23.28
 52.77     634.54      25.19
 52.87     614.38      24.79
 52.97     705.00      26.55
 53.07     840.00      28.98
 53.17     927.98      30.46
 53.27    1011.00      31.80
 53.37    1082.59      32.90
 53.47    1179.00      34.34
 53.57    1257.78      35.47
 53.67    1157.67      34.02
 53.77    1023.00      31.98
 53.87     939.00      30.64
 53.97     786.03      28.04
 54.07     676.64      26.01
 54.17     655.00      25.59
 54.27     634.00      25.18
 54.37     600.57      24.51
 54.47     556.00      23.58
 54.57     540.00      23.24
 54.67     516.14      22.72
 54.77     556.92      23.60
 54.87     554.00      23.54
 54.97     555.92      23.58
 55.07     580.00      24.08
 55.17     550.08      23.45
 55.27     515.23      22.70
 55.37     566.00      23.79
 55.47     572.00      23.92
 55.57     583.00      24.15
 55.67     542.49      23.29
 55.77     566.25      23.80
 55.87     617.00      24.84
 55.97     626.00      25.02
 56.07     684.00      26.15
 56.17     753.00      27.44
 56.27     883.41      29.72
 56.37    1093.00      33.06
 56.47    1512.40      38.89
 56.57    1783.40      42.23
 56.67    2144.00      46.30
 56.77    2476.00      49.76
 56.87    2582.00      50.81
 56.97    2564.00      50.64
 57.07    2448.00      49.48
 57.17    2054.00      45.32
 57.27    1651.00      40.63
 57.37    1316.00      36.28
 57.47    1039.00      32.23
 57.57     901.00      30.02
 57.67     791.00      28.12
 57.77     740.00      27.20
 57.87     720.68      26.85
 57.97     658.13      25.65
 58.07     751.00      27.40
 58.17     702.93      26.51
 58.27     733.00      27.07
 58.37     810.00      28.46
 58.47     875.00      29.58
 58.57     984.00      31.37
 58.67    1067.00      32.66
 58.77    1267.02      35.60
 58.87    1285.00      35.85
 58.97    1368.00      36.99
 59.07    1456.00      38.16
 59.17    1402.00      37.44
 59.27    1286.95      35.87
 59.37    1292.00      35.94
 59.47    1220.00      34.93
 59.57    1201.00      34.66
 59.67    1162.00      34.09
 59.77    1127.00      33.57
 59.87    1227.00      35.03
 59.97    1256.07      35.44
 60.07    1430.00      37.82
 60.17    1552.00      39.40
 60.27    1543.00      39.28
 60.37    1570.00      39.62
 60.47    1336.03      36.55
 60.57    1216.00      34.87
 60.67    1095.00      33.09
 60.77     916.52      30.27
 60.87     844.00      29.05
 60.97     689.84      26.26
 61.07     691.47      26.30
 61.17     666.00      25.81
 61.27     652.00      25.53
 61.37     680.00      26.08
 61.47     657.99      25.65
 61.57     713.71      26.72
 61.67     891.83      29.86
 61.77    1035.00      32.17
 61.87    1136.00      33.70
 61.97    1233.72      35.12
 62.07    1386.70      37.24
 62.17    1362.00      36.91
 62.27    1309.00      36.18
 62.37    1326.98      36.43
 62.47    1201.99      34.67
 62.57    1039.00      32.23
 62.67     877.00      29.61
 62.77     855.15      29.24
 62.87     701.00      26.48
 62.97     691.11      26.29
 63.07     578.96      24.06
 63.17     570.00      23.87
 63.27     597.77      24.45
 63.37     571.53      23.91
 63.47     550.00      23.45
 63.57     567.00      23.81
 63.67     560.38      23.67
 63.77     635.96      25.22
 63.87     626.00      25.02
 63.97     612.31      24.74
 64.07     704.00      26.53
 64.17     731.80      27.05
 64.27     882.99      29.72
 64.37     892.59      29.88
 64.47     914.47      30.24
 64.57     937.00      30.61
 64.67    1070.95      32.73
 64.77    1098.00      33.14
 64.87     941.61      30.69
 64.97     899.00      29.98
 65.07     880.00      29.66
 65.17     774.00      27.82
 65.27     748.00      27.35
 65.37     743.95      27.28
 65.47     651.00      25.51
 65.57     618.00      24.86
 65.67     597.99      24.45
 65.77     555.06      23.56
 65.87     534.00      23.11
 65.97     548.11      23.41
 66.07     613.19      24.76
 66.17     546.00      23.37
 66.27     532.00      23.07
 66.37     572.00      23.92
 66.47     600.83      24.51
 66.57     541.76      23.28
 66.67     580.00      24.08
 66.77     569.00      23.85
 66.87     641.41      25.33
 66.97     628.00      25.06
 67.07     642.24      25.34
 67.17     641.00      25.32
 67.27     837.62      28.94
 67.37     944.00      30.72
 67.47    1053.00      32.45
 67.57    1263.00      35.54
 67.67    1546.00      39.32
 67.77    1798.76      42.41
 67.87    2028.65      45.04
 67.97    2227.00      47.19
 68.07    2466.02      49.66
 68.17    2378.33      48.77
 68.27    2229.76      47.22
 68.37    2123.00      46.08
 68.47    1869.00      43.23
 68.57    1531.00      39.13
 68.67    1300.19      36.06
 68.77    1102.00      33.20
 68.87     879.86      29.66
 68.97     825.00      28.72
 69.07     712.00      26.68
 69.17     636.00      25.22
 69.27     616.00      24.82
 69.37     598.11      24.46
 69.47     601.00      24.52
 69.57     607.00      24.64
 69.67     541.28      23.27
 69.77     599.00      24.47
 69.87     547.00      23.39
 69.97     560.11      23.67
 70.07     612.89      24.76
 70.17     572.00      23.92
 70.27     546.00      23.37
 70.37     578.11      24.04
 70.47     575.00      23.98
 70.57     567.12      23.81
 70.67     602.00      24.54
 70.77     648.00      25.46
 70.87     573.00      23.94
 70.97     636.00      25.22
 71.07     709.89      26.64
 71.17     736.00      27.13
 71.27     800.00      28.28
 71.37     916.30      30.27
 71.47    1095.00      33.09
 71.57    1207.00      34.74
 71.67    1368.00      36.99
 71.77    1689.00      41.10
 71.87    1892.00      43.50
 71.97    1815.00      42.60
 72.07    1881.63      43.38
 72.17    1835.51      42.84
 72.27    1801.66      42.45
 72.37    1667.00      40.83
 72.47    1519.00      38.97
 72.57    1312.00      36.22
 72.67    1106.51      33.26
 72.77    1002.00      31.65
 72.87     879.15      29.65
 72.97     827.95      28.77
 73.07     772.33      27.79
 73.17     719.00      26.81
 73.27     659.00      25.67
 73.37     633.67      25.17
 73.47     631.00      25.12
 73.57     619.00      24.88
 73.67     573.00      23.94
 73.77     630.00      25.10
 73.87     576.00      24.00
 73.97     561.00      23.69
 74.07     568.00      23.83
 74.17     534.97      23.13
 74.27     545.87      23.36
 74.37     558.78      23.64
 74.47     620.00      24.90
 74.57     636.00      25.22
 74.67     637.00      25.24
 74.77     611.00      24.72
 74.87     610.00      24.70
 74.97     546.61      23.38
 75.07     605.00      24.60
 75.17     587.00      24.23
 75.27     525.37      22.92
 75.37     582.33      24.13
 75.47     571.00      23.90
 75.57     590.00      24.29
 75.67     591.00      24.31
 75.77     572.00      23.92
 75.87     605.00      24.60
 75.97     662.00      25.73
 76.07     646.83      25.43
 76.17     688.07      26.23
 76.27     706.29      26.58
 76.37     706.34      26.58
 76.47     737.00      27.15
 76.57     690.17      26.27
 76.67     714.00      26.72
 76.77     698.00      26.42
 76.87     654.00      25.57
 76.97     635.52      25.21
 77.07     596.00      24.41
 77.17     599.00      24.47
 77.27     569.00      23.85
 77.37     592.00      24.33
 77.47     544.00      23.32
 77.57     557.00      23.60
 77.67     501.00      22.38
 77.77     553.00      23.52
 77.87     498.00      22.32
 77.97     564.05      23.75
 78.07     510.00      22.58
 78.17     516.91      22.74
 78.27     512.00      22.63
 78.37     489.69      22.13
 78.47     567.00      23.81
 78.57     493.00      22.20
 78.67     548.46      23.42
 78.77     546.00      23.37
 78.87     554.83      23.55
 78.97     530.00      23.02
 79.07     548.99      23.43
 79.17     502.00      22.41
 79.27     561.21      23.69
 79.37     496.35      22.28
 79.47     538.00      23.19
 79.57     545.00      23.35
 79.67     519.00      22.78
 79.77     551.00      23.47
 79.87     570.00      23.87
 79.97     515.00      22.69
 80.07     516.00      22.72
 80.17     555.00      23.56
 80.27     556.00      23.58
 80.37     550.00      23.45
 80.47     594.00      24.37
 80.57     607.00      24.64
 80.67     617.20      24.84
 80.77     654.33      25.58
 80.87     653.76      25.57
 80.97     668.00      25.85
 81.07     745.02      27.29
 81.17     699.00      26.44
 81.27     750.00      27.39
 81.37     732.99      27.07
 81.47     723.00      26.89
 81.57     729.00      27.00
 81.67     703.09      26.52
 81.77     744.32      27.28
 81.87     711.00      26.66
 81.97     673.00      25.94
 82.07     726.00      26.94
 82.17     699.00      26.44
 82.27     640.00      25.30
 82.37     622.00      24.94
 82.47     593.00      24.35
 82.57     615.00      24.80
 82.67     584.00      24.17
 82.77     570.00      23.87
 82.87     542.00      23.28
 82.97     611.00      24.72
 83.07     566.00      23.79
 83.17     596.00      24.41
 83.27     543.00      23.30
 83.37     546.00      23.37
 83.47     516.80      22.73
 83.57     562.68      23.72
 83.67     551.00      23.47
 83.77     551.00      23.47
 83.87     550.00      23.45
 83.97     570.00      23.87
 84.07     595.00      24.39
 84.17     562.00      23.71
 84.27     541.35      23.27
 84.37     549.64      23.44
 84.47     586.99      24.23
 84.57     551.00      23.47
 84.67     529.06      23.00
 84.77     523.00      22.87
 84.87     529.19      23.00
 84.97     509.00      22.56
 85.07     544.00      23.32
 85.17     517.95      22.76
 85.27     513.00      22.65
 85.37     504.00      22.45
 85.47     559.17      23.65
 85.57     532.09      23.07
 85.67     567.79      23.83
 85.77     535.00      23.13
 85.87     536.19      23.16
 85.97     498.39      22.32
 86.07     547.67      23.40
 86.17     514.00      22.67
 86.27     524.00      22.89
 86.37     507.00      22.52
 86.47     550.00      23.45
 86.57     486.00      22.05
 86.67     558.00      23.62
 86.77     589.00      24.27
 86.87     610.00      24.70
 86.97     573.84      23.95
 87.07     577.75      24.04
 87.17     619.33      24.89
 87.27     625.62      25.01
 87.37     630.00      25.10
 87.47     691.00      26.29
 87.57     676.08      26.00
 87.67     629.00      25.08
 87.77     595.00      24.39
 87.87     636.00      25.22
 87.97     649.00      25.48
 88.07     645.00      25.40
 88.17     630.00      25.10
 88.27     532.27      23.07
 88.37     558.00      23.62
 88.47     587.00      24.23
 88.57     602.00      24.54
 88.67     599.00      24.47
 88.77     581.00      24.10
 88.87     539.72      23.23
 88.97     577.84      24.04
 89.07     578.00      24.04
 89.17     630.00      25.10
 89.27     592.00      24.33
 89.37     595.00      24.39
 89.47     601.00      24.52
 89.57     557.19      23.60
 89.67     610.00      24.70
 89.77     573.84      23.95
 89.87     549.00      23.43
 89.97     598.00      24.45
 90.07     599.93      24.49
 90.17     548.00      23.41
 90.27     534.00      23.11
 90.37     566.00      23.79
 90.47     548.09      23.41
 90.57     517.00      22.74
 90.67     509.00      22.56
 90.77     545.00      23.35
 90.87     561.00      23.69
 90.97     531.00      23.04
 91.07     504.32      22.46
 91.17     530.00      23.02
 91.27     511.00      22.61
 91.37     538.00      23.19
 91.47     520.00      22.80
 91.57     551.17      23.48
 91.67     488.00      22.09
 91.77     579.00      24.06
 91.87     522.00      22.85
 91.97     568.08      23.83
 92.07     549.00      23.43
 92.17     578.00      24.04
 92.27     572.00      23.92
 92.37     554.81      23.55
 92.47     631.00      25.12
 92.57     675.00      25.98
 92.67     644.00      25.38
 92.77     695.48      26.37
 92.87     653.00      25.55
 92.97     732.00      27.06
 93.07     752.00      27.42
 93.17     792.60      28.15
 93.27     769.00      27.73
 93.37     767.52      27.70
 93.47     785.00      28.02
 93.57     833.00      28.86
 93.67     758.93      27.55
 93.77     832.88      28.86
 93.87     782.31      27.97
 93.97     823.43      28.70
 94.07     828.91      28.79
 94.17     848.72      29.13
 94.27     826.00      28.74
 94.37     814.53      28.54
 94.47     873.00      29.55
 94.57     948.00      30.79
 94.67     912.00      30.20
 94.77     900.00      30.00
 94.87     952.00      30.85
 94.97     870.00      29.50
 95.07     843.28      29.04
 95.17     835.00      28.90
 95.27     834.00      28.88
 95.37     794.00      28.18
 95.47     738.82      27.18
 95.57     805.00      28.37
 95.67     776.00      27.86
 95.77     754.00      27.46
 95.87     730.38      27.03
 95.97     701.42      26.48
 96.07     708.00      26.61
 96.17     706.00      26.57
 96.27     772.23      27.79
 96.37     781.00      27.95
 96.47     817.00      28.58
 96.57     931.00      30.51
 96.67     934.00      30.56
 96.77     980.00      31.30
 96.87    1063.00      32.60
 96.97    1144.00      33.82
 97.07    1172.89      34.25
 97.17    1305.00      36.12
 97.27    1374.00      37.07
 97.37    1420.00      37.68
 97.47    1446.00      38.03
 97.57    1401.89      37.44
 97.67    1402.00      37.44
 97.77    1471.71      38.36
 97.87    1372.00      37.04
 97.97    1370.10      37.01
 98.07    1205.66      34.72
 98.17    1217.31      34.89
 98.27    1086.00      32.95
 98.37     991.00      31.48
 98.47     945.00      30.74
 98.57     871.00      29.51
 98.67     855.00      29.24
 98.77     877.86      29.63
 98.87     845.46      29.08
 98.97     878.00      29.63
 99.07     883.08      29.72
 99.17     916.22      30.27
 99.27     929.88      30.49
 99.37     969.00      31.13
 99.47     989.00      31.45
 99.57    1133.00      33.66
 99.67    1198.00      34.61
 99.77    1293.00      35.96
 99.87    1420.01      37.68
 99.97    1525.67      39.06
100.07    1587.00      39.84
100.17    1753.00      41.87
100.27    1896.00      43.54
100.37    1952.69      44.19
100.47    1967.00      44.35
100.57    2120.00      46.04
100.67    2044.00      45.21
100.77    1984.00      44.54
100.87    1987.53      44.58
100.97    1995.00      44.67
101.07    1947.00      44.12
101.17    1908.88      43.69
101.27    1796.62      42.39
101.37    1653.00      40.66
101.47    1665.00      40.80
101.57    1461.22      38.23
101.67    1494.00      38.65
101.77    1434.08      37.87
101.87    1290.00      35.92
101.97    1224.00      34.99
102.07    1181.00      34.37
102.17    1130.59      33.62
102.27    1111.00      33.33
102.37    1080.00      32.86
102.47    1057.86      32.52
102.57    1072.00      32.74
102.67    1032.93      32.14
102.77    1025.15      32.02
102.87    1051.00      32.42
102.97    1008.50      31.76
103.07     990.12      31.47
103.17     855.00      29.24
103.27     808.00      28.43
103.37     786.87      28.05
103.47     729.46      27.01
103.57     786.02      28.04
103.67     687.89      26.23
103.77     702.00      26.50
103.87     656.00      25.61
103.97     643.00      25.36
104.07     641.00      25.32
104.17     601.00      24.52
104.27     540.00      23.24
104.37     542.00      23.28
104.47     535.29      23.14
104.57     503.57      22.44
104.67     558.00      23.62
104.77     535.00      23.13
104.87     553.00      23.52
104.97     531.24      23.05
105.07     594.00      24.37
105.17     564.00      23.75
105.27     533.00      23.09
105.37     509.57      22.57
105.47     559.06      23.64
105.57     550.00      23.45
105.67     546.69      23.38
105.77     530.00      23.02
105.87     569.00      23.85
105.97     556.11      23.58
106.07     560.92      23.68
106.17     584.00      24.17
106.27     599.00      24.47
106.37     626.00      25.02
106.47     621.00      24.92
106.57     635.00      25.20
106.67     624.60      24.99
106.77     596.00      24.41
106.87     655.00      25.59
106.97     621.00      24.92
107.07     680.00      26.08
107.17     644.88      25.39
107.27     742.81      27.25
107.37     669.00      25.87
107.47     651.00      25.51
107.57     752.20      27.43
107.67     706.73      26.58
107.77     663.29      25.75
107.87     701.32      26.48
107.97     650.71      25.51
108.07     678.00      26.04
108.17     702.00      26.50
108.27     699.00      26.44
108.37     735.00      27.11
108.47     734.00      27.09
108.57     625.00      25.00
108.67     667.00      25.83
108.77     740.25      27.21
108.87     666.00      25.81
108.97     693.00      26.32
109.07     697.89      26.42
109.17     657.00      25.63
109.27     628.00      25.06
109.37     687.34      26.22
109.47     647.24      25.44
109.57     630.00      25.10
109.67     635.00      25.20
109.77     632.00      25.14
109.87     615.10      24.80
109.97     607.83      24.65
110.07     580.00      24.08
110.17     572.55      23.93
110.27     608.20      24.66
110.37     577.04      24.02
110.47     576.00      24.00
110.57     506.00      22.49
110.67     562.05      23.71
110.77     547.00      23.39
110.87     497.00      22.29
110.97     552.00      23.49
111.07     593.00      24.35
111.17     562.00      23.71
111.27     518.00      22.76
111.37     554.64      23.55
111.47     577.36      24.03
111.57     557.95      23.62
111.67     509.00      22.56
111.77     531.00      23.04
111.87     523.00      22.87
111.97     559.33      23.65
112.07     594.00      24.37
112.17     532.00      23.07
112.27     578.00      24.04
112.37     564.00      23.75
112.47     657.00      25.63
112.57     579.64      24.08
112.67     622.00      24.94
112.77     591.00      24.31
112.87     582.00      24.12
112.97     681.77      26.11
113.07     638.00      25.26
113.17     656.29      25.62
113.27     709.23      26.63
113.37     672.93      25.94
113.47     696.00      26.38
113.57     758.13      27.53
113.67     802.00      28.32
113.77     764.50      27.65
113.87     777.00      27.87
113.97     883.91      29.73
114.07     966.29      31.09
114.17     952.00      30.85
114.27     980.00      31.30
114.37    1119.00      33.45
114.47    1245.52      35.29
114.57    1336.75      36.56
114.67    1428.00      37.79
114.77    1678.00      40.96
114.87    1860.00      43.13
114.97    2137.00      46.23
115.07    2379.00      48.77
115.17    2372.65      48.71
115.27    2751.10      52.45
115.37    3114.00      55.80
115.47    3447.24      58.71
115.57    3776.00      61.45
115.67    4045.64      63.61
115.77    4432.00      66.57
115.87    4781.00      69.14
115.97    5172.00      71.92
116.07    5570.00      74.63
116.17    5948.02      77.12
116.27    6157.00      78.47
116.37    6473.00      80.45
116.47    6480.00      80.50
116.57    6860.92      82.83
116.67    6836.00      82.68
116.77    6871.00      82.89
116.87    6631.00      81.43
116.97    6553.00      80.95
117.07    6169.37      78.55
117.17    5949.00      77.13
117.27    5638.92      75.09
117.37    5264.00      72.55
117.47    5167.23      71.88
117.57    4603.00      67.85
117.67    4213.79      64.91
117.77    3932.00      62.71
117.87    3567.00      59.72
117.97    3225.00      56.79
118.07    2894.76      53.80
118.17    2684.49      51.81
118.27    2411.95      49.11
118.37    1968.00      44.36
118.47    1715.00      41.41
118.57    1701.47      41.25
118.67    1545.84      39.32
118.77    1364.22      36.94
118.87    1154.00      33.97
118.97    1158.06      34.03
119.07     944.00      30.72
119.17     924.00      30.40
119.27     904.00      30.07
119.37     861.00      29.34
119.47     805.94      28.39
119.57     707.00      26.59
119.67     718.00      26.80
119.77     692.00      26.31
119.87     693.00      26.32
119.97     654.00      25.57
120.07     584.00      24.17
120.17     619.93      24.90
120.27     575.00      23.98
120.37     607.35      24.64
120.47     595.00      24.39
120.57     560.00      23.66
120.67     579.00      24.06
120.77     571.00      23.90
120.87     568.00      23.83
120.97     581.00      24.10
121.07     568.00      23.83
121.17     567.00      23.81
121.27     566.00      23.79
121.37     583.00      24.15
121.47     591.55      24.32
121.57     555.07      23.56
121.67     583.00      24.15
121.77     584.41      24.17
121.87     594.00      24.37
121.97     578.48      24.05
122.07     645.10      25.40
122.17     580.67      24.10
122.27     662.00      25.73
122.37     616.59      24.83
122.47     649.81      25.49
122.57     634.05      25.18
122.67     674.00      25.96
122.77     604.92      24.60
122.87     644.00      25.38
122.97     666.00      25.81
123.07     686.00      26.19
123.17     626.00      25.02
123.27     644.13      25.38
123.37     673.00      25.94
123.47     623.00      24.96
123.57     624.00      24.98
123.67     607.15      24.64
123.77     651.08      25.52
123.87     626.00      25.02
123.97     624.00      24.98
124.07     598.00      24.45
124.17     625.58      25.01
124.27     601.23      24.52
124.37     646.00      25.42
124.47     586.09      24.21
124.57     604.00      24.58
124.67     642.37      25.35
124.77     602.37      24.54
124.87     581.00      24.10
124.97     595.46      24.40
