  9.97     587.00      24.23
 10.07     603.00      24.56
 10.17     636.00      25.22
 10.27     605.00      24.60
 10.37     604.00      24.58
 10.47     574.00      23.96
 10.57     606.00      24.62
 10.67     624.00      24.98
 10.77     562.96      23.73
 10.87     584.00      24.17
 10.97     519.00      22.78
 11.07     572.00      23.92
 11.17     596.17      24.42
 11.27     580.00      24.08
 11.37     541.62      23.27
 11.47     593.00      24.35
 11.57     579.88      24.08
 11.67     630.00      25.10
 11.77     616.00      24.82
 11.87     639.00      25.28
 11.97     666.00      25.81
 12.07     710.49      26.65
 12.17     688.00      26.23
 12.27     683.00      26.13
 12.37     635.00      25.20
 12.47     616.00      24.82
 12.57     617.00      24.84
 12.67     558.00      23.62
 12.77     575.00      23.98
 12.87     584.00      24.17
 12.97     609.62      24.69
 13.07     551.00      23.47
 13.17     588.86      24.27
 13.27     559.55      23.65
 13.37     578.00      24.04
 13.47     576.00      24.00
 13.57     515.00      22.69
 13.67     547.00      23.39
 13.77     533.26      23.09
 13.87     598.00      24.45
 13.97     526.00      22.93
 14.07     553.00      23.52
 14.17     544.00      23.32
 14.27     553.67      23.53
 14.37     595.40      24.40
 14.47     582.89      24.14
 14.57     570.00      23.87
 14.67     550.00      23.45
 14.77     575.00      23.98
 14.87     548.00      23.41
 14.97     594.55      24.38
 15.07     571.40      23.90
 15.17     550.00      23.45
 15.27     592.50      24.34
 15.37     573.00      23.94
 15.47     548.00      23.41
 15.57     523.00      22.87
 15.67     554.00      23.54
 15.77     596.00      24.41
 15.87     561.00      23.69
 15.97     608.01      24.66
 16.07     508.00      22.54
 16.17     570.69      23.89
 16.27     566.18      23.79
 16.37     546.00      23.37
 16.47     573.00      23.94
 16.57     529.11      23.00
 16.67     605.15      24.60
 16.77     583.85      24.16
 16.87     536.00      23.15
 16.97     574.00      23.96
 17.07     551.00      23.47
 17.17     565.00      23.77
 17.27     575.00      23.98
 17.37     571.00      23.90
 17.47     578.65      24.06
 17.57     527.00      22.96
 17.67     532.60      23.08
 17.77     525.84      22.93
 17.87     594.78      24.39
 17.97     540.00      23.24
 18.07     548.35      23.42
 18.17     547.00      23.39
 18.27     567.00      23.81
 18.37     575.00      23.98
 18.47     515.00      22.69
 18.57     538.93      23.21
 18.67     565.00      23.77
 18.77     546.74      23.38
 18.87     565.84      23.79
 18.97     568.00      23.83
 19.07     580.82      24.10
 19.17     555.00      23.56
 19.27     520.86      22.82
 19.37     519.00      22.78
 19.47     584.00      24.17
 19.57     572.00      23.92
 19.67     539.00      23.22
 19.77     555.93      23.58
 19.87     561.00      23.69
 19.97     549.00      23.43
 20.07     536.25      23.16
 20.17     533.00      23.09
 20.27     550.00      23.45
 20.37     535.00      23.13
 20.47     520.00      22.80
 20.57     593.00      24.35
 20.67     542.00      23.28
 20.77     590.38      24.30
 20.87     562.00      23.71
 20.97     557.14      23.60
 21.07     583.00      24.15
 21.17     546.19      23.37
 21.27     579.00      24.06
 21.37     577.00      24.02
 21.47     517.91      22.76
 21.57     549.00      23.43
 21.67     591.75      24.33
 21.77     547.91      23.41
 21.87     527.00      22.96
 21.97     533.58      23.10
 22.07     592.96      24.35
 22.17     545.00      23.35
 22.27     557.00      23.60
 22.37     564.00      23.75
 22.47     551.00      23.47
 22.57     571.00      23.90
 22.67     544.00      23.32
 22.77     567.27      23.82
 22.87     508.26      22.54
 22.97     576.00      24.00
 23.07     585.00      24.19
 23.17     564.00      23.75
 23.27     537.00      23.17
 23.37     531.58      23.06
 23.47     545.93      23.37
 23.57     564.00      23.75
 23.67     541.00      23.26
 23.77     533.00      23.09
 23.87     562.88      23.73
 23.97     524.00      22.89
 24.07     561.00      23.69
 24.17     562.74      23.72
 24.27     535.60      23.14
 24.37     597.35      24.44
 24.47     571.00      23.90
 24.57     623.00      24.96
 24.67     649.00      25.48
 24.77     672.00      25.92
 24.87     603.00      24.56
 24.97     585.00      24.19
 25.07     628.59      25.07
 25.17     562.82      23.72
 25.27     537.00      23.17
 25.37     573.00      23.94
 25.47     561.00      23.69
 25.57     527.00      22.96
 25.67     540.00      23.24
 25.77     514.77      22.69
 25.87     538.16      23.20
 25.97     583.00      24.15
 26.07     572.13      23.92
 26.17     543.00      23.30
 26.27     524.60      22.90
 26.37     528.00      22.98
 26.47     535.00      23.13
 26.57     542.56      23.29
 26.67     538.00      23.19
 26.77     563.00      23.73
 26.87     542.00      23.28
 26.97     522.00      22.85
 27.07     546.00      23.37
 27.17     548.00      23.41
 27.27     502.00      22.41
 27.37     608.00      24.66
 27.47     570.00      23.87
 27.57     566.00      23.79
 27.67     554.00      23.54
 27.77     572.00      23.92
 27.87     546.61      23.38
 27.97     679.78      26.07
 28.07     814.00      28.53
 28.17     905.42      30.09
 28.27     868.00      29.46
 28.37     863.00      29.38
 28.47     819.48      28.63
 28.57     724.00      26.91
 28.67     708.00      26.61
 28.77     700.80      26.47
 28.87     795.00      28.20
 28.97     812.49      28.50
 29.07     786.00      28.04
 29.17     676.00      26.00
 29.27     667.00      25.83
 29.37     624.00      24.98
 29.47     589.00      24.27
 29.57     579.80      24.08
 29.67     597.00      24.43
 29.77     595.00      24.39
 29.87     592.24      24.34
 29.97     605.00      24.60
 30.07     538.62      23.21
 30.17     569.00      23.85
 30.27     519.42      22.79
 30.37     523.35      22.88
 30.47     560.00      23.66
 30.57     581.98      24.12
 30.67     604.00      24.58
 30.77     604.46      24.59
 30.87     559.97      23.66
 30.97     630.04      25.10
 31.07     542.00      23.28
 31.17     559.00      23.64
 31.27     573.00      23.94
 31.37     519.53      22.79
 31.47     548.00      23.41
 31.57     524.00      22.89
 31.67     490.00      22.14
 31.77     569.53      23.86
 31.87     496.57      22.28
 31.97     563.98      23.75
 32.07     529.61      23.01
 32.17     558.00      23.62
 32.27     548.85      23.43
 32.37     504.00      22.45
 32.47     553.00      23.52
 32.57     527.00      22.96
 32.67     538.00      23.19
 32.77     565.93      23.79
 32.87     520.00      22.80
 32.97     572.00      23.92
 33.07     569.00      23.85
 33.17     534.00      23.11
 33.27     530.00      23.02
 33.37     579.81      24.08
 33.47     560.00      23.66
 33.57     566.00      23.79
 33.67     607.00      24.64
 33.77     719.02      26.81
 33.87     897.76      29.96
 33.97    1067.00      32.66
 34.07    1073.00      32.76
 34.17     979.00      31.29
 34.27     918.37      30.30
 34.37     821.69      28.67
 34.47     635.01      25.20
 34.57     618.00      24.86
 34.67     536.00      23.15
 34.77     558.00      23.62
 34.87     544.00      23.32
 34.97     523.00      22.87
 35.07     506.00      22.49
 35.17     531.00      23.04
 35.27     505.18      22.48
 35.37     530.49      23.03
 35.47     528.00      22.98
 35.57     517.00      22.74
 35.67     507.00      22.52
 35.77     508.00      22.54
 35.87     488.65      22.11
 35.97     543.00      23.30
 36.07     490.00      22.14
 36.17     548.84      23.43
 36.27     517.00      22.74
 36.37     521.00      22.83
 36.47     494.04      22.23
 36.57     537.00      23.17
 36.67     523.10      22.87
 36.77     511.98      22.63
 36.87     490.00      22.14
 36.97     479.90      21.91
 37.07     540.88      23.26
 37.17     529.00      23.00
 37.27     532.37      23.07
 37.37     538.00      23.19
 37.47     542.00      23.28
 37.57     521.00      22.83
 37.67     506.11      22.50
 37.77     516.00      22.72
 37.87     496.00      22.27
 37.97     541.94      23.28
 38.07     502.00      22.41
 38.17     496.00      22.27
 38.27     521.00      22.83
 38.37     490.41      22.15
 38.47     502.00      22.41
 38.57     509.53      22.57
 38.67     507.00      22.52
 38.77     478.69      21.88
 38.87     479.68      21.90
 38.97     502.49      22.42
 39.07     518.07      22.76
 39.17     492.39      22.19
 39.27     468.00      21.63
 39.37     540.26      23.24
 39.47     560.00      23.66
 39.57     535.00      23.13
 39.67     506.00      22.49
 39.77     536.62      23.17
 39.87     485.72      22.04
 39.97     521.72      22.84
 40.07     454.00      21.31
 40.17     499.00      22.34
 40.27     477.53      21.85
 40.37     507.00      22.52
 40.47     505.00      22.47
 40.57     516.00      22.72
 40.67     505.00      22.47
 40.77     523.91      22.89
 40.87     442.00      21.02
 40.97     496.26      22.28
 41.07     489.00      22.11
 41.17     506.00      22.49
 41.27     488.00      22.09
 41.37     499.96      22.36
 41.47     526.00      22.93
 41.57     472.00      21.73
 41.67     514.00      22.67
 41.77     522.00      22.85
 41.87     523.29      22.88
 41.97     548.07      23.41
 42.07     512.30      22.63
 42.17     550.90      23.47
 42.27     519.00      22.78
 42.37     584.90      24.18
 42.47     571.00      23.90
 42.57     610.00      24.70
 42.67     612.00      24.74
 42.77     617.80      24.86
 42.87     630.69      25.11
 42.97     542.43      23.29
 43.07     584.20      24.17
 43.17     554.00      23.54
 43.27     530.00      23.02
 43.37     506.05      22.50
 43.47     499.00      22.34
 43.57     512.00      22.63
 43.67     479.00      21.89
 43.77     491.00      22.16
 43.87     492.69      22.20
 43.97     509.00      22.56
 44.07     490.00      22.14
 44.17     518.00      22.76
 44.27     531.00      23.04
 44.37     509.00      22.56
 44.47     506.00      22.49
 44.57     483.37      21.99
 44.67     494.00      22.23
 44.77     494.43      22.24
 44.87     501.00      22.38
 44.97     546.00      23.37
 45.07     501.00      22.38
 45.17     517.56      22.75
 45.27     527.14      22.96
 45.37     541.51      23.27
 45.47     521.25      22.83
 45.57     539.00      23.22
 45.67     490.00      22.14
 45.77     480.00      21.91
 45.87     480.00      21.91
 45.97     502.00      22.41
 46.07     477.00      21.84
 46.17     495.00      22.25
 46.27     476.56      21.83
 46.37     545.50      23.36
 46.47     452.00      21.26
 46.57     524.00      22.89
 46.67     539.00      23.22
 46.77     506.00      22.49
 46.87     480.55      21.92
 46.97     489.00      22.11
 47.07     544.94      23.34
 47.17     518.81      22.78
 47.27     516.73      22.73
 47.37     527.00      22.96
 47.47     506.68      22.51
 47.57     531.00      23.04
 47.67     548.00      23.41
 47.77     633.00      25.16
 47.87     612.00      24.74
 47.97     609.00      24.68
 48.07     535.67      23.14
 48.17     577.00      24.02
 48.27     549.97      23.45
 48.37     526.00      22.93
 48.47     555.46      23.57
 48.57     530.00      23.02
 48.67     575.54      23.99
 48.77     532.00      23.07
 48.87     538.00      23.19
 48.97     526.00      22.93
 49.07     590.00      24.29
 49.17     574.00      23.96
 49.27     573.00      23.94
 49.37     636.31      25.23
 49.47     620.31      24.91
 49.57     644.39      25.38
 49.67     804.00      28.35
 49.77    1019.00      31.92
 49.87    1395.06      37.35
 49.97    1808.00      42.52
 50.07    2159.00      46.47
 50.17    2415.97      49.15
 50.27    2350.00      48.48
 50.37    2227.00      47.19
 50.47    1889.54      43.47
 50.57    1491.00      38.61
 50.67    1076.00      32.80
 50.77     797.00      28.23
 50.87     715.00      26.74
 50.97     707.00      26.59
 51.07     631.00      25.12
 51.17     647.21      25.44
 51.27     623.56      24.97
 51.37     600.00      24.49
 51.47     606.00      24.62
 51.57     580.80      24.10
 51.67     556.00      23.58
 51.77     558.00      23.62
 51.87     500.48      22.37
 51.97     546.00      23.37
 52.07     562.00      23.71
 52.17     528.39      22.99
 52.27     517.00      22.74
 52.37     571.28      23.90
 52.47     568.13      23.84
 52.57     508.23      22.54
 52.67     612.57      24.75
 52.77     608.00      24.66
 52.87     642.00      25.34
 52.97     738.00      27.17
 53.07     748.00      27.35
 53.17     900.00      30.00
 53.27     998.00      31.59
 53.37    1098.00      33.14
 53.47    1171.87      34.23
 53.57    1173.91      34.26
 53.67    1136.21      33.71
 53.77    1017.00      31.89
 53.87     879.00      29.65
 53.97     798.00      28.25
 54.07     706.08      26.57
 54.17     632.00      25.14
 54.27     596.00      24.41
 54.37     604.00      24.58
 54.47     576.00      24.00
 54.57     521.74      22.84
 54.67     559.00      23.64
 54.77     580.00      24.08
 54.87     530.50      23.03
 54.97     550.00      23.45
 55.07     549.94      23.45
 55.17     565.27      23.78
 55.27     532.95      23.09
 55.37     520.18      22.81
 55.47     550.25      23.46
 55.57     606.00      24.62
 55.67     580.00      24.08
 55.77     596.00      24.41
 55.87     600.00      24.49
 55.97     650.00      25.50
 56.07     723.58      26.90
 56.17     736.00      27.13
 56.27     897.00      29.95
 56.37    1111.00      33.33
 56.47    1278.00      35.75
 56.57    1761.00      41.96
 56.67    2135.00      46.21
 56.77    2364.00      48.62
 56.87    2603.00      51.02
 56.97    2660.00      51.58
 57.07    2473.47      49.73
 57.17    2082.00      45.63
 57.27    1731.00      41.61
 57.37    1393.00      37.32
 57.47    1104.00      33.23
 57.57     898.00      29.97
 57.67     777.00      27.87
 57.77     697.78      26.42
 57.87     675.00      25.98
 57.97     721.00      26.85
 58.07     680.00      26.08
 58.17     706.00      26.57
 58.27     725.00      26.93
 58.37     775.46      27.85
 58.47     922.66      30.38
 58.57     929.00      30.48
 58.67    1062.00      32.59
 58.77    1162.69      34.10
 58.87    1294.00      35.97
 58.97    1359.00      36.86
 59.07    1419.00      37.67
 59.17    1348.00      36.72
 59.27    1389.00      37.27
 59.37    1286.00      35.86
 59.47    1279.00      35.76
 59.57    1206.00      34.73
 59.67    1120.66      33.48
 59.77    1238.00      35.19
 59.87    1241.59      35.24
 59.97    1353.00      36.78
 60.07    1331.04      36.48
 60.17    1553.00      39.41
 60.27    1521.70      39.01
 60.37    1457.00      38.17
 60.47    1456.00      38.16
 60.57    1259.15      35.48
 60.67    1058.01      32.53
 60.77     925.00      30.41
 60.87     804.50      28.36
 60.97     730.00      27.02
 61.07     709.00      26.63
 61.17     632.00      25.14
 61.27     609.55      24.69
 61.37     637.00      25.24
 61.47     684.93      26.17
 61.57     726.00      26.94
 61.67     848.98      29.14
 61.77     962.00      31.02
 61.87    1101.00      33.18
 61.97    1178.16      34.32
 62.07    1315.77      36.27
 62.17    1401.79      37.44
 62.27    1385.00      37.22
 62.37    1366.83      36.97
 62.47    1217.00      34.89
 62.57    1050.48      32.41
 62.67     875.00      29.58
 62.77     755.00      27.48
 62.87     685.00      26.17
 62.97     654.00      25.57
 63.07     666.33      25.81
 63.17     582.00      24.12
 63.27     580.00      24.08
 63.37     557.00      23.60
 63.47     547.00      23.39
 63.57     567.88      23.83
 63.67     614.35      24.79
 63.77     581.00      24.10
 63.87     586.50      24.22
 63.97     665.00      25.79
 64.07     679.29      26.06
 64.17     763.00      27.62
 64.27     862.63      29.37
 64.37     942.97      30.71
 64.47     993.57      31.52
 64.57    1008.00      31.75
 64.67    1030.62      32.10
 64.77     952.00      30.85
 64.87     969.00      31.13
 64.97     875.13      29.58
 65.07     852.00      29.19
 65.17     741.00      27.22
 65.27     775.00      27.84
 65.37     643.00      25.36
 65.47     626.97      25.04
 65.57     643.53      25.37
 65.67     600.00      24.49
 65.77     578.00      24.04
 65.87     548.82      23.43
 65.97     584.61      24.18
 66.07     555.70      23.57
 66.17     562.99      23.73
 66.27     546.00      23.37
 66.37     585.78      24.20
 66.47     534.00      23.11
 66.57     591.00      24.31
 66.67     562.00      23.71
 66.77     529.00      23.00
 66.87     584.85      24.18
 66.97     592.96      24.35
 67.07     604.08      24.58
 67.17     740.64      27.21
 67.27     780.00      27.93
 67.37     872.25      29.53
 67.47    1023.00      31.98
 67.57    1225.97      35.01
 67.67    1518.00      38.96
 67.77    1723.00      41.51
 67.87    2016.00      44.90
 67.97    2141.70      46.28
 68.07    2384.21      48.83
 68.17    2373.00      48.71
 68.27    2338.15      48.35
 68.37    2084.71      45.66
 68.47    1778.07      42.17
 68.57    1616.00      40.20
 68.67    1318.00      36.30
 68.77    1103.37      33.22
 68.87     898.65      29.98
 68.97     805.00      28.37
 69.07     720.45      26.84
 69.17     721.00      26.85
 69.27     583.40      24.15
 69.37     632.00      25.14
 69.47     637.00      25.24
 69.57     579.00      24.06
 69.67     564.47      23.76
 69.77     577.00      24.02
 69.87     598.00      24.45
 69.97     554.00      23.54
 70.07     522.09      22.85
 70.17     578.24      24.05
 70.27     595.22      24.40
 70.37     558.00      23.62
 70.47     614.20      24.78
 70.57     577.00      24.02
 70.67     569.00      23.85
 70.77     637.00      25.24
 70.87     644.00      25.38
 70.97     687.25      26.22
 71.07     668.29      25.85
 71.17     774.00      27.82
 71.27     838.00      28.95
 71.37    1007.00      31.73
 71.47    1145.00      33.84
 71.57    1214.00      34.84
 71.67    1484.54      38.53
 71.77    1665.00      40.80
 71.87    1740.00      41.71
 71.97    1831.00      42.79
 72.07    1903.00      43.62
 72.17    1813.41      42.58
 72.27    1840.00      42.90
 72.37    1604.00      40.05
 72.47    1528.00      39.09
 72.57    1345.00      36.67
 72.67    1150.40      33.92
 72.77    1074.32      32.78
 72.87     894.46      29.91
 72.97     772.00      27.78
 73.07     784.00      28.00
 73.17     708.00      26.61
 73.27     701.00      26.48
 73.37     637.00      25.24
 73.47     618.00      24.86
 73.57     657.00      25.63
 73.67     604.92      24.60
 73.77     600.00      24.49
 73.87     584.00      24.17
 73.97     551.00      23.47
 74.07     588.00      24.25
 74.17     571.00      23.90
 74.27     589.73      24.28
 74.37     601.00      24.52
 74.47     596.59      24.43
 74.57     641.00      25.32
 74.67     602.00      24.54
 74.77     616.00      24.82
 74.87     591.24      24.32
 74.97     613.00      24.76
 75.07     599.00      24.47
 75.17     560.00      23.66
 75.27     631.00      25.12
 75.37     596.00      24.41
 75.47     591.33      24.32
 75.57     548.00      23.41
 75.67     602.00      24.54
 75.77     537.34      23.18
 75.87     592.00      24.33
 75.97     605.00      24.60
 76.07     625.00      25.00
 76.17     666.00      25.81
 76.27     667.21      25.83
 76.37     697.41      26.41
 76.47     720.00      26.83
 76.57     684.00      26.15
 76.67     730.50      27.03
 76.77     671.00      25.90
 76.87     668.00      25.85
 76.97     671.90      25.92
 77.07     631.00      25.12
 77.17     604.00      24.58
 77.27     594.00      24.37
 77.37     552.00      23.49
 77.47     583.00      24.15
 77.57     539.00      23.22
 77.67     495.00      22.25
 77.77     541.00      23.26
 77.87     523.89      22.89
 77.97     552.00      23.49
 78.07     524.00      22.89
 78.17     516.35      22.72
 78.27     481.00      21.93
 78.37     538.00      23.19
 78.47     491.54      22.17
 78.57     526.00      22.93
 78.67     486.00      22.05
 78.77     522.00      22.85
 78.87     519.00      22.78
 78.97     543.93      23.32
 79.07     513.00      22.65
 79.17     550.00      23.45
 79.27     488.00      22.09
 79.37     526.58      22.95
 79.47     506.00      22.49
 79.57     510.00      22.58
 79.67     478.00      21.86
 79.77     534.00      23.11
 79.87     574.00      23.96
 79.97     528.00      22.98
 80.07     515.63      22.71
 80.17     501.00      22.38
 80.27     550.00      23.45
 80.37     559.34      23.65
 80.47     628.00      25.06
 80.57     588.00      24.25
 80.67     612.83      24.76
 80.77     653.76      25.57
 80.87     646.83      25.43
 80.97     694.00      26.34
 81.07     712.00      26.68
 81.17     737.00      27.15
 81.27     767.00      27.69
 81.37     741.00      27.22
 81.47     715.00      26.74
 81.57     760.00      27.57
 81.67     721.96      26.87
 81.77     688.00      26.23
 81.87     690.00      26.27
 81.97     745.00      27.29
 82.07     719.29      26.82
 82.17     655.00      25.59
 82.27     672.61      25.93
 82.37     613.00      24.76
 82.47     602.98      24.56
 82.57     581.00      24.10
 82.67     572.00      23.92
 82.77     562.00      23.71
 82.87     607.79      24.65
 82.97     522.64      22.86
 83.07     539.00      23.22
 83.17     525.48      22.92
 83.27     564.00      23.75
 83.37     562.00      23.71
 83.47     567.00      23.81
 83.57     555.00      23.56
 83.67     524.26      22.90
 83.77     599.38      24.48
 83.87     584.00      24.17
 83.97     554.00      23.54
 84.07     578.00      24.04
 84.17     561.00      23.69
 84.27     529.00      23.00
 84.37     566.91      23.81
 84.47     556.00      23.58
 84.57     575.00      23.98
 84.67     540.00      23.24
 84.77     524.00      22.89
 84.87     522.00      22.85
 84.97     514.58      22.68
 85.07     522.00      22.85
 85.17     527.91      22.98
 85.27     524.00      22.89
 85.37     491.00      22.16
 85.47     524.00      22.89
 85.57     494.00      22.23
 85.67     529.00      23.00
 85.77     498.62      22.33
 85.87     505.00      22.47
 85.97     510.23      22.59
 86.07     524.00      22.89
 86.17     516.00      22.72
 86.27     496.00      22.27
 86.37     542.00      23.28
 86.47     569.00      23.85
 86.57     522.00      22.85
 86.67     579.00      24.06
 86.77     603.00      24.56
 86.87     604.38      24.58
 86.97     589.28      24.28
 87.07     598.00      24.45
 87.17     626.00      25.02
 87.27     588.08      24.25
 87.37     664.55      25.78
 87.47     582.00      24.12
 87.57     621.00      24.92
 87.67     663.81      25.76
 87.77     643.00      25.36
 87.87     653.54      25.56
 87.97     602.08      24.54
 88.07     544.94      23.34
 88.17     596.00      24.41
 88.27     591.42      24.32
 88.37     586.66      24.22
 88.47     587.00      24.23
 88.57     566.39      23.80
 88.67     575.10      23.98
 88.77     525.94      22.93
 88.87     542.00      23.28
 88.97     579.00      24.06
 89.07     591.00      24.31
 89.17     596.03      24.41
 89.27     588.00      24.25
 89.37     601.00      24.52
 89.47     639.20      25.28
 89.57     613.00      24.76
 89.67     625.45      25.01
 89.77     539.00      23.22
 89.87     536.06      23.15
 89.97     564.00      23.75
 90.07     546.00      23.37
 90.17     586.22      24.21
 90.27     533.58      23.10
 90.37     543.00      23.30
 90.47     501.35      22.39
 90.57     537.00      23.17
 90.67     553.81      23.53
 90.77     486.84      22.06
 90.87     462.00      21.49
 90.97     513.00      22.65
 91.07     506.74      22.51
 91.17     552.00      23.49
 91.27     518.00      22.76
 91.37     516.00      22.72
 91.47     517.00      22.74
 91.57     498.00      22.32
 91.67     570.35      23.88
 91.77     492.20      22.19
 91.87     554.47      23.55
 91.97     539.00      23.22
 92.07     557.00      23.60
 92.17     586.00      24.21
 92.27     596.00      24.41
 92.37     638.63      25.27
 92.47     646.96      25.44
 92.57     592.19      24.33
 92.67     642.00      25.34
 92.77     690.00      26.27
 92.87     682.71      26.13
 92.97     669.64      25.88
 93.07     725.00      26.93
 93.17     766.00      27.68
 93.27     770.00      27.75
 93.37     745.00      27.29
 93.47     790.00      28.11
 93.57     821.00      28.65
 93.67     812.00      28.50
 93.77     856.00      29.26
 93.87     828.00      28.77
 93.97     837.49      28.94
 94.07     819.00      28.62
 94.17     874.00      29.56
 94.27     892.00      29.87
 94.37     900.00      30.00
 94.47     853.00      29.21
 94.57     820.91      28.65
 94.67     892.00      29.87
 94.77     870.94      29.51
 94.87     839.97      28.98
 94.97     862.71      29.37
 95.07     889.66      29.83
 95.17     830.09      28.81
 95.27     833.64      28.87
 95.37     815.00      28.55
 95.47     767.79      27.71
 95.57     765.12      27.66
 95.67     762.60      27.62
 95.77     712.00      26.68
 95.87     701.23      26.48
 95.97     699.00      26.44
 96.07     651.00      25.51
 96.17     719.89      26.83
 96.27     774.51      27.83
 96.37     777.00      27.87
 96.47     772.92      27.80
 96.57     877.20      29.62
 96.67     915.00      30.25
 96.77     947.76      30.79
 96.87    1046.00      32.34
 96.97    1103.95      33.23
 97.07    1127.69      33.58
 97.17    1278.00      35.75
 97.27    1340.00      36.61
 97.37    1400.97      37.43
 97.47    1432.25      37.85
 97.57    1432.00      37.84
 97.67    1431.00      37.83
 97.77    1478.00      38.44
 97.87    1412.00      37.58
 97.97    1306.00      36.14
 98.07    1222.46      34.96
 98.17    1246.99      35.31
 98.27    1074.25      32.78
 98.37    1052.00      32.43
 98.47     989.00      31.45
 98.57     887.97      29.80
 98.67     902.00      30.03
 98.77     887.94      29.80
 98.87     864.66      29.41
 98.97     833.15      28.86
 99.07     786.93      28.05
 99.17     868.00      29.46
 99.27     946.42      30.76
 99.37     928.61      30.47
 99.47     974.00      31.21
 99.57    1013.93      31.84
 99.67    1059.00      32.54
 99.77    1247.00      35.31
 99.87    1310.00      36.19
 99.97    1488.00      38.57
100.07    1650.00      40.62
100.17    1718.00      41.45
100.27    1771.00      42.08
100.37    1916.57      43.78
100.47    1853.53      43.05
100.57    2054.97      45.33
100.67    2021.67      44.96
100.77    1985.00      44.55
100.87    2026.00      45.01
100.97    2037.21      45.14
101.07    1988.00      44.59
101.17    1913.60      43.74
101.27    1845.00      42.95
101.37    1692.00      41.13
101.47    1572.00      39.65
101.57    1532.80      39.15
101.67    1481.00      38.48
101.77    1433.55      37.86
101.87    1280.61      35.79
101.97    1245.00      35.28
102.07    1258.18      35.47
102.17    1207.00      34.74
102.27    1210.00      34.79
102.37    1172.00      34.23
102.47    1112.00      33.35
102.57    1051.83      32.43
102.67    1033.00      32.14
102.77    1062.50      32.60
102.87    1030.89      32.11
102.97     978.00      31.27
103.07     976.00      31.24
103.17     891.00      29.85
103.27     853.00      29.21
103.37     863.00      29.38
103.47     784.75      28.01
103.57     789.00      28.09
103.67     736.00      27.13
103.77     711.82      26.68
103.87     693.00      26.32
103.97     601.53      24.53
104.07     680.00      26.08
104.17     562.64      23.72
104.27     572.98      23.94
104.37     590.00      24.29
104.47     591.00      24.31
104.57     564.00      23.75
104.67     558.56      23.63
104.77     525.00      22.91
104.87     596.00      24.41
104.97     502.06      22.41
105.07     534.00      23.11
105.17     521.00      22.83
105.27     573.36      23.94
105.37     567.00      23.81
105.47     524.00      22.89
105.57     498.65      22.33
105.67     542.00      23.28
105.77     521.00      22.83
105.87     548.82      23.43
105.97     548.00      23.41
106.07     533.36      23.09
106.17     620.00      24.90
106.27     598.00      24.45
106.37     579.00      24.06
106.47     568.00      23.83
106.57     663.00      25.75
106.67     663.81      25.76
106.77     634.00      25.18
106.87     662.72      25.74
106.97     694.23      26.35
107.07     659.00      25.67
107.17     679.00      26.06
107.27     685.72      26.19
107.37     727.00      26.96
107.47     663.13      25.75
107.57     682.03      26.12
107.67     721.84      26.87
107.77     668.00      25.85
107.87     700.71      26.47
107.97     712.00      26.68
108.07     700.21      26.46
108.17     659.05      25.67
108.27     677.00      26.02
108.37     688.00      26.23
108.47     667.16      25.83
108.57     699.68      26.45
108.67     652.00      25.53
108.77     649.00      25.48
108.87     770.00      27.75
108.97     722.00      26.87
109.07     698.00      26.42
109.17     699.86      26.45
109.27     679.31      26.06
109.37     633.07      25.16
109.47     643.00      25.36
109.57     687.00      26.21
109.67     669.00      25.87
109.77     645.00      25.40
109.87     604.00      24.58
109.97     623.10      24.96
110.07     637.00      25.24
110.17     614.00      24.78
110.27     548.63      23.42
110.37     553.00      23.52
110.47     565.00      23.77
110.57     526.00      22.93
110.67     535.53      23.14
110.77     520.00      22.80
110.87     554.49      23.55
110.97     513.68      22.66
111.07     498.27      22.32
111.17     558.00      23.62
111.27     564.00      23.75
111.37     560.00      23.66
111.47     526.00      22.93
111.57     508.54      22.55
111.67     509.00      22.56
111.77     513.00      22.65
111.87     554.00      23.54
111.97     537.21      23.18
112.07     543.00      23.30
112.17     553.00      23.52
112.27     548.00      23.41
112.37     562.23      23.71
112.47     566.00      23.79
112.57     570.00      23.87
112.67     597.01      24.43
112.77     609.44      24.69
112.87     589.00      24.27
112.97     611.00      24.72
113.07     631.00      25.12
113.17     664.96      25.79
113.27     646.00      25.42
113.37     692.00      26.31
113.47     691.00      26.29
113.57     677.00      26.02
113.67     698.00      26.42
113.77     748.00      27.35
113.87     759.00      27.55
113.97     776.00      27.86
114.07     869.00      29.48
114.17     870.00      29.50
114.27     965.00      31.06
114.37    1058.00      32.53
114.47    1194.17      34.56
114.57    1220.00      34.93
114.67    1372.89      37.05
114.77    1655.00      40.68
114.87    1821.00      42.67
114.97    1957.00      44.24
115.07    2231.00      47.23
115.17    2303.18      47.99
115.27    2616.00      51.15
115.37    2945.00      54.27
115.47    3375.00      58.09
115.57    3639.40      60.33
115.67    4010.60      63.33
115.77    4285.00      65.46
115.87    4624.00      68.00
115.97    5057.00      71.11
116.07    5403.00      73.51
116.17    5745.87      75.80
116.27    6038.00      77.70
116.37    6284.00      79.27
116.47    6585.00      81.15
116.57    6624.43      81.39
116.67    6804.00      82.49
116.77    6993.00      83.62
116.87    6721.47      81.98
116.97    6647.26      81.53
117.07    6294.58      79.34
117.17    6175.00      78.58
117.27    5668.00      75.29
117.37    5375.00      73.31
117.47    5043.00      71.01
117.57    4797.00      69.26
117.67    4457.00      66.76
117.77    4087.15      63.93
117.87    3771.00      61.41
117.97    3390.71      58.23
118.07    2995.30      54.73
118.17    2690.49      51.87
118.27    2433.09      49.33
118.37    2125.00      46.10
118.47    1995.00      44.67
118.57    1726.00      41.55
118.67    1620.00      40.25
118.77    1412.79      37.59
118.87    1238.00      35.19
118.97    1077.00      32.82
119.07    1026.00      32.03
119.17     911.00      30.18
119.27     912.33      30.20
119.37     787.00      28.05
119.47     754.16      27.46
119.57     783.63      27.99
119.67     687.00      26.21
119.77     634.13      25.18
119.87     656.00      25.61
119.97     605.99      24.62
120.07     613.85      24.78
120.17     602.00      24.54
120.27     575.00      23.98
120.37     580.47      24.09
120.47     623.00      24.96
120.57     602.55      24.55
120.67     573.25      23.94
120.77     543.59      23.31
120.87     538.16      23.20
120.97     571.00      23.90
121.07     558.00      23.62
121.17     542.67      23.30
121.27     593.00      24.35
121.37     513.00      22.65
121.47     582.00      24.12
121.57     576.00      24.00
121.67     550.21      23.46
121.77     595.00      24.39
121.87     567.21      23.82
121.97     583.13      24.15
122.07     561.66      23.70
122.17     594.00      24.37
122.27     612.00      24.74
122.37     648.00      25.46
122.47     633.22      25.16
122.57     584.05      24.17
122.67     633.95      25.18
122.77     594.04      24.37
122.87     589.17      24.27
122.97     643.00      25.36
123.07     612.55      24.75
123.17     664.00      25.77
123.27     658.83      25.67
123.37     591.00      24.31
123.47     607.00      24.64
123.57     633.00      25.16
123.67     650.00      25.50
123.77     629.00      25.08
123.87     588.50      24.26
123.97     643.97      25.38
124.07     618.00      24.86
124.17     597.20      24.44
124.27     611.00      24.72
124.37     620.61      24.91
124.47     566.98      23.81
124.57     623.00      24.96
124.67     601.00      24.52
124.77     598.00      24.45
124.87     620.00      24.90
124.97     537.00      23.17
