  9.97     584.00      24.17
 10.07     597.00      24.43
 10.17     592.21      24.34
 10.27     576.00      24.00
 10.37     528.50      22.99
 10.47     553.39      23.52
 10.57     577.74      24.04
 10.67     542.88      23.30
 10.77     605.00      24.60
 10.87     536.01      23.15
 10.97     561.00      23.69
 11.07     544.02      23.32
 11.17     569.00      23.85
 11.27     558.86      23.64
 11.37     565.00      23.77
 11.47     577.98      24.04
 11.57     597.71      24.45
 11.67     639.00      25.28
 11.77     556.00      23.58
 11.87     650.00      25.50
 11.97     648.00      25.46
 12.07     651.15      25.52
 12.17     689.33      26.26
 12.27     740.38      27.21
 12.37     652.00      25.53
 12.47     589.00      24.27
 12.57     587.00      24.23
 12.67     601.00      24.52
 12.77     551.45      23.48
 12.87     606.42      24.63
 12.97     565.00      23.77
 13.07     606.00      24.62
 13.17     570.00      23.87
 13.27     592.00      24.33
 13.37     609.00      24.68
 13.47     548.00      23.41
 13.57     566.80      23.81
 13.67     594.00      24.37
 13.77     577.00      24.02
 13.87     531.00      23.04
 13.97     550.39      23.46
 14.07     593.00      24.35
 14.17     557.20      23.61
 14.27     577.33      24.03
 14.37     562.00      23.71
 14.47     608.88      24.68
 14.57     592.00      24.33
 14.67     573.00      23.94
 14.77     553.00      23.52
 14.87     583.54      24.16
 14.97     541.90      23.28
 15.07     584.00      24.17
 15.17     532.77      23.08
 15.27     544.00      23.32
 15.37     583.00      24.15
 15.47     593.00      24.35
 15.57     558.46      23.63
 15.67     580.76      24.10
 15.77     536.00      23.15
 15.87     557.00      23.60
 15.97     589.00      24.27
 16.07     556.55      23.59
 16.17     586.00      24.21
 16.27     549.56      23.44
 16.37     593.71      24.37
 16.47     570.00      23.87
 16.57     599.70      24.49
 16.67     526.00      22.93
 16.77     602.56      24.55
 16.87     560.00      23.66
 16.97     560.00      23.66
 17.07     534.30      23.12
 17.17     541.00      23.26
 17.27     531.00      23.04
 17.37     554.45      23.55
 17.47     556.00      23.58
 17.57     562.00      23.71
 17.67     531.21      23.05
 17.77     529.32      23.01
 17.87     523.15      22.87
 17.97     556.00      23.58
 18.07     605.00      24.60
 18.17     586.16      24.21
 18.27     524.00      22.89
 18.37     527.00      22.96
 18.47     576.00      24.00
 18.57     547.83      23.41
 18.67     544.41      23.33
 18.77     551.45      23.48
 18.87     541.96      23.28
 18.97     519.00      22.78
 19.07     594.02      24.37
 19.17     566.00      23.79
 19.27     560.00      23.66
 19.37     546.00      23.37
 19.47     549.00      23.43
 19.57     533.00      23.09
 19.67     530.00      23.02
 19.77     522.00      22.85
 19.87     562.00      23.71
 19.97     530.51      23.03
 20.07     552.19      23.50
 20.17     535.00      23.13
 20.27     536.04      23.15
 20.37     537.00      23.17
 20.47     524.00      22.89
 20.57     557.00      23.60
 20.67     569.00      23.85
 20.77     547.59      23.40
 20.87     573.00      23.94
 20.97     522.00      22.85
 21.07     579.00      24.06
 21.17     526.00      22.93
 21.27     574.00      23.96
 21.37     530.66      23.04
 21.47     555.00      23.56
 21.57     517.20      22.74
 21.67     581.84      24.12
 21.77     533.00      23.09
 21.87     558.00      23.62
 21.97     568.00      23.83
 22.07     551.00      23.47
 22.17     550.00      23.45
 22.27     534.28      23.11
 22.37     498.00      22.32
 22.47     574.00      23.96
 22.57     530.27      23.03
 22.67     561.00      23.69
 22.77     547.00      23.39
 22.87     558.00      23.62
 22.97     594.00      24.37
 23.07     576.00      24.00
 23.17     548.55      23.42
 23.27     575.00      23.98
 23.37     555.00      23.56
 23.47     551.00      23.47
 23.57     509.33      22.57
 23.67     536.07      23.15
 23.77     567.23      23.82
 23.87     535.95      23.15
 23.97     555.00      23.56
 24.07     521.00      22.83
 24.17     565.00      23.77
 24.27     570.00      23.87
 24.37     572.00      23.92
 24.47     589.24      24.27
 24.57     599.00      24.47
 24.67     623.00      24.96
 24.77     635.57      25.21
 24.87     638.26      25.26
 24.97     660.33      25.70
 25.07     578.00      24.04
 25.17     536.39      23.16
 25.27     604.00      24.58
 25.37     582.00      24.12
 25.47     576.00      24.00
 25.57     558.93      23.64
 25.67     551.00      23.47
 25.77     555.66      23.57
 25.87     576.00      24.00
 25.97     569.00      23.85
 26.07     578.00      24.04
 26.17     564.00      23.75
 26.27     526.00      22.93
 26.37     557.00      23.60
 26.47     556.00      23.58
 26.57     534.00      23.11
 26.67     586.29      24.21
 26.77     569.00      23.85
 26.87     510.08      22.58
 26.97     586.32      24.21
 27.07     568.00      23.83
 27.17     586.92      24.23
 27.27     548.02      23.41
 27.37     529.00      23.00
 27.47     590.00      24.29
 27.57     483.00      21.98
 27.67     535.00      23.13
 27.77     559.00      23.64
 27.87     569.02      23.85
 27.97     689.00      26.25
 28.07     762.00      27.60
 28.17     871.00      29.51
 28.27     966.00      31.08
 28.37     904.00      30.07
 28.47     844.69      29.06
 28.57     706.00      26.57
 28.67     697.00      26.40
 28.77     735.00      27.11
 28.87     799.00      28.27
 28.97     845.00      29.07
 29.07     764.00      27.64
 29.17     746.11      27.32
 29.27     674.00      25.96
 29.37     607.59      24.65
 29.47     614.15      24.78
 29.57     588.00      24.25
 29.67     575.00      23.98
 29.77     590.00      24.29
 29.87     514.55      22.68
 29.97     559.00      23.64
 30.07     623.00      24.96
 30.17     549.00      23.43
 30.27     539.38      23.22
 30.37     518.85      22.78
 30.47     535.00      23.13
 30.57     552.00      23.49
 30.67     583.05      24.15
 30.77     610.00      24.70
 30.87     619.18      24.88
 30.97     622.00      24.94
 31.07     627.57      25.05
 31.17     574.00      23.96
 31.27     547.00      23.39
 31.37     527.00      22.96
 31.47     551.42      23.48
 31.57     552.00      23.49
 31.67     575.00      23.98
 31.77     492.00      22.18
 31.87     511.26      22.61
 31.97     571.00      23.90
 32.07     597.00      24.43
 32.17     513.00      22.65
 32.27     562.70      23.72
 32.37     548.00      23.41
 32.47     537.00      23.17
 32.57     542.82      23.30
 32.67     544.00      23.32
 32.77     546.00      23.37
 32.87     555.68      23.57
 32.97     570.00      23.87
 33.07     555.67      23.57
 33.17     567.00      23.81
 33.27     551.00      23.47
 33.37     555.00      23.56
 33.47     594.94      24.39
 33.57     608.23      24.66
 33.67     629.30      25.09
 33.77     739.37      27.19
 33.87     899.47      29.99
 33.97     977.00      31.26
 34.07    1044.00      32.31
 34.17    1035.00      32.17
 34.27     869.00      29.48
 34.37     766.00      27.68
 34.47     676.00      26.00
 34.57     634.73      25.19
 34.67     567.00      23.81
 34.77     579.00      24.06
 34.87     571.00      23.90
 34.97     529.00      23.00
 35.07     553.00      23.52
 35.17     565.97      23.79
 35.27     539.00      23.22
 35.37     504.00      22.45
 35.47     549.83      23.45
 35.57     540.92      23.26
 35.67     515.00      22.69
 35.77     477.39      21.85
 35.87     514.00      22.67
 35.97     467.00      21.61
 36.07     479.56      21.90
 36.17     538.00      23.19
 36.27     497.00      22.29
 36.37     534.27      23.11
 36.47     515.49      22.70
 36.57     536.00      23.15
 36.67     508.71      22.55
 36.77     525.00      22.91
 36.87     527.00      22.96
 36.97     483.00      21.98
 37.07     487.47      22.08
 37.17     492.21      22.19
 37.27     484.00      22.00
 37.37     535.00      23.13
 37.47     510.00      22.58
 37.57     522.05      22.85
 37.67     520.27      22.81
 37.77     507.91      22.54
 37.87     501.95      22.40
 37.97     524.12      22.89
 38.07     489.00      22.11
 38.17     514.20      22.68
 38.27     468.00      21.63
 38.37     539.36      23.22
 38.47     512.00      22.63
 38.57     481.00      21.93
 38.67     476.00      21.82
 38.77     547.00      23.39
 38.87     506.00      22.49
 38.97     498.38      22.32
 39.07     490.00      22.14
 39.17     506.39      22.50
 39.27     511.00      22.61
 39.37     539.00      23.22
 39.47     529.00      23.00
 39.57     491.43      22.17
 39.67     539.36      23.22
 39.77     515.00      22.69
 39.87     478.39      21.87
 39.97     485.68      22.04
 40.07     481.00      21.93
 40.17     544.14      23.33
 40.27     540.98      23.26
 40.37     483.00      21.98
 40.47     496.00      22.27
 40.57     515.00      22.69
 40.67     480.00      21.91
 40.77     542.99      23.30
 40.87     522.00      22.85
 40.97     461.00      21.47
 41.07     471.00      21.70
 41.17     445.00      21.10
 41.27     507.00      22.52
 41.37     503.01      22.43
 41.47     528.39      22.99
 41.57     542.54      23.29
 41.67     553.00      23.52
 41.77     523.00      22.87
 41.87     542.00      23.28
 41.97     488.00      22.09
 42.07     508.00      22.54
 42.17     542.03      23.28
 42.27     543.00      23.30
 42.37     583.62      24.16
 42.47     579.00      24.06
 42.57     547.00      23.39
 42.67     572.00      23.92
 42.77     623.00      24.96
 42.87     560.37      23.67
 42.97     552.00      23.49
 43.07     504.00      22.45
 43.17     529.00      23.00
 43.27     514.00      22.67
 43.37     525.00      22.91
 43.47     485.00      22.02
 43.57     516.92      22.74
 43.67     538.00      23.19
 43.77     482.00      21.95
 43.87     512.85      22.65
 43.97     534.72      23.12
 44.07     506.23      22.50
 44.17     464.10      21.54
 44.27     488.00      22.09
 44.37     463.88      21.54
 44.47     509.00      22.56
 44.57     497.00      22.29
 44.67     516.00      22.72
 44.77     485.00      22.02
 44.87     486.82      22.06
 44.97     476.70      21.83
 45.07     509.00      22.56
 45.17     498.00      22.32
 45.27     539.41      23.23
 45.37     509.33      22.57
 45.47     462.35      21.50
 45.57     516.00      22.72
 45.67     516.00      22.72
 45.77     515.00      22.69
 45.87     476.00      21.82
 45.97     485.00      22.02
 46.07     476.84      21.84
 46.17     475.00      21.79
 46.27     470.71      21.70
 46.37     529.00      23.00
 46.47     542.29      23.29
 46.57     490.00      22.14
 46.67     467.00      21.61
 46.77     509.00      22.56
 46.87     487.00      22.07
 46.97     541.06      23.26
 47.07     539.00      23.22
 47.17     528.00      22.98
 47.27     510.00      22.58
 47.37     545.39      23.35
 47.47     545.00      23.35
 47.57     540.59      23.25
 47.67     571.00      23.90
 47.77     583.94      24.16
 47.87     626.00      25.02
 47.97     624.64      24.99
 48.07     584.00      24.17
 48.17     571.00      23.90
 48.27     572.00      23.92
 48.37     562.00      23.71
 48.47     519.00      22.78
 48.57     492.00      22.18
 48.67     548.00      23.41
 48.77     551.00      23.47
 48.87     533.13      23.09
 48.97     520.00      22.80
 49.07     509.00      22.56
 49.17     523.00      22.87
 49.27     567.63      23.82
 49.37     599.00      24.47
 49.47     646.00      25.42
 49.57     721.93      26.87
 49.67     817.72      28.60
 49.77    1030.30      32.10
 49.87    1334.53      36.53
 49.97    1775.00      42.13
 50.07    2083.15      45.64
 50.17    2444.00      49.44
 50.27    2547.31      50.47
 50.37    2347.98      48.46
 50.47    1886.91      43.44
 50.57    1517.00      38.95
 50.67    1184.00      34.41
 50.77     930.47      30.50
 50.87     728.22      26.99
 50.97     716.04      26.76
 51.07     711.00      26.66
 51.17     642.00      25.34
 51.27     624.00      24.98
 51.37     599.00      24.47
 51.47     585.00      24.19
 51.57     573.89      23.96
 51.67     552.99      23.52
 51.77     581.00      24.10
 51.87     494.00      22.23
 51.97     547.00      23.39
 52.07     562.17      23.71
 52.17     492.64      22.20
 52.27     537.00      23.17
 52.37     576.00      24.00
 52.47     579.39      24.07
 52.57     601.00      24.52
 52.67     595.23      24.40
 52.77     547.99      23.41
 52.87     652.21      25.54
 52.97     734.07      27.09
 53.07     785.00      28.02
 53.17     917.00      30.28
 53.27     987.00      31.42
 53.37    1069.00      32.70
 53.47    1138.20      33.74
 53.57    1211.40      34.81
 53.67    1148.86      33.89
 53.77    1083.78      32.92
 53.87     877.74      29.63
 53.97     774.00      27.82
 54.07     681.00      26.10
 54.17     626.00      25.02
 54.27     605.00      24.60
 54.37     620.14      24.90
 54.47     572.00      23.92
 54.57     586.00      24.21
 54.67     565.00      23.77
 54.77     524.00      22.89
 54.87     548.68      23.42
 54.97     519.35      22.79
 55.07     546.00      23.37
 55.17     556.00      23.58
 55.27     548.00      23.41
 55.37     574.00      23.96
 55.47     547.00      23.39
 55.57     630.00      25.10
 55.67     573.00      23.94
 55.77     615.00      24.80
 55.87     588.00      24.25
 55.97     645.00      25.40
 56.07     691.00      26.29
 56.17     784.00      28.00
 56.27     931.97      30.53
 56.37    1198.95      34.63
 56.47    1413.00      37.59
 56.57    1768.00      42.05
 56.67    2145.00      46.31
 56.77    2403.00      49.02
 56.87    2610.00      51.09
 56.97    2585.00      50.84
 57.07    2480.14      49.80
 57.17    2072.99      45.53
 57.27    1704.00      41.28
 57.37    1460.19      38.21
 57.47    1143.00      33.81
 57.57     914.00      30.23
 57.67     809.00      28.44
 57.77     706.51      26.58
 57.87     721.74      26.87
 57.97     677.31      26.03
 58.07     700.00      26.46
 58.17     715.18      26.74
 58.27     755.01      27.48
 58.37     851.77      29.19
 58.47     863.00      29.38
 58.57     943.00      30.71
 58.67    1058.00      32.53
 58.77    1160.00      34.06
 58.87    1188.46      34.47
 58.97    1308.00      36.17
 59.07    1367.00      36.97
 59.17    1304.67      36.12
 59.27    1363.00      36.92
 59.37    1166.79      34.16
 59.47    1149.42      33.90
 59.57    1152.00      33.94
 59.67    1177.00      34.31
 59.77    1199.00      34.63
 59.87    1221.00      34.94
 59.97    1267.29      35.60
 60.07    1364.00      36.93
 60.17    1518.30      38.97
 60.27    1516.00      38.94
 60.37    1530.00      39.12
 60.47    1382.00      37.18
 60.57    1296.00      36.00
 60.67    1104.00      33.23
 60.77     957.00      30.94
 60.87     837.00      28.93
 60.97     793.53      28.17
 61.07     686.00      26.19
 61.17     649.00      25.48
 61.27     670.00      25.88
 61.37     682.00      26.12
 61.47     696.96      26.40
 61.57     761.00      27.59
 61.67     837.00      28.93
 61.77     912.03      30.20
 61.87    1101.80      33.19
 61.97    1180.00      34.35
 62.07    1345.00      36.67
 62.17    1380.07      37.15
 62.27    1418.00      37.66
 62.37    1256.00      35.44
 62.47    1168.52      34.18
 62.57    1020.00      31.94
 62.67     954.00      30.89
 62.77     783.00      27.98
 62.87     718.00      26.80
 62.97     672.65      25.94
 63.07     631.23      25.12
 63.17     570.83      23.89
 63.27     568.00      23.83
 63.37     567.00      23.81
 63.47     569.00      23.85
 63.57     581.00      24.10
 63.67     620.00      24.90
 63.77     626.00      25.02
 63.87     672.00      25.92
 63.97     642.00      25.34
 64.07     711.00      26.66
 64.17     767.00      27.69
 64.27     765.32      27.66
 64.37     914.62      30.24
 64.47     930.79      30.51
 64.57     962.00      31.02
 64.67    1029.00      32.08
 64.77    1055.00      32.48
 64.87     953.00      30.87
 64.97     968.02      31.11
 65.07     879.00      29.65
 65.17     811.00      28.48
 65.27     717.00      26.78
 65.37     720.00      26.83
 65.47     657.00      25.63
 65.57     652.00      25.53
 65.67     617.00      24.84
 65.77     580.00      24.08
 65.87     602.28      24.54
 65.97     608.38      24.67
 66.07     579.00      24.06
 66.17     586.00      24.21
 66.27     544.00      23.32
 66.37     530.00      23.02
 66.47     543.88      23.32
 66.57     593.07      24.35
 66.67     552.86      23.51
 66.77     619.02      24.88
 66.87     615.68      24.81
 66.97     621.00      24.92
 67.07     641.26      25.32
 67.17     686.00      26.19
 67.27     774.49      27.83
 67.37     933.00      30.55
 67.47    1058.00      32.53
 67.57    1252.60      35.39
 67.67    1551.99      39.40
 67.77    1801.00      42.44
 67.87    1932.51      43.96
 67.97    2261.00      47.55
 68.07    2387.00      48.86
 68.17    2431.00      49.31
 68.27    2355.94      48.54
 68.37    2065.00      45.44
 68.47    1921.00      43.83
 68.57    1586.00      39.82
 68.67    1356.15      36.83
 68.77    1162.23      34.09
 68.87     929.00      30.48
 68.97     820.85      28.65
 69.07     731.00      27.04
 69.17     669.00      25.87
 69.27     650.00      25.50
 69.37     615.00      24.80
 69.47     597.32      24.44
 69.57     604.00      24.58
 69.67     604.00      24.58
 69.77     537.60      23.19
 69.87     604.00      24.58
 69.97     609.27      24.68
 70.07     549.00      23.43
 70.17     530.56      23.03
 70.27     595.00      24.39
 70.37     572.00      23.92
 70.47     606.00      24.62
 70.57     577.00      24.02
 70.67     573.00      23.94
 70.77     541.00      23.26
 70.87     582.00      24.12
 70.97     628.00      25.06
 71.07     681.00      26.10
 71.17     780.00      27.93
 71.27     813.00      28.51
 71.37     921.00      30.35
 71.47    1075.52      32.80
 71.57    1222.00      34.96
 71.67    1306.00      36.14
 71.77    1518.00      38.96
 71.87    1745.00      41.77
 71.97    1865.00      43.19
 72.07    1853.59      43.05
 72.17    1863.00      43.16
 72.27    1701.75      41.25
 72.37    1683.19      41.03
 72.47    1417.00      37.64
 72.57    1286.58      35.87
 72.67    1190.00      34.50
 72.77    1068.02      32.68
 72.87     864.00      29.39
 72.97     820.00      28.64
 73.07     725.00      26.93
 73.17     725.00      26.93
 73.27     674.46      25.97
 73.37     648.52      25.47
 73.47     646.09      25.42
 73.57     578.42      24.05
 73.67     582.07      24.13
 73.77     583.00      24.15
 73.87     602.81      24.55
 73.97     580.00      24.08
 74.07     614.11      24.78
 74.17     545.93      23.37
 74.27     583.00      24.15
 74.37     548.54      23.42
 74.47     613.00      24.76
 74.57     539.02      23.22
 74.67     622.00      24.94
 74.77     536.20      23.16
 74.87     620.00      24.90
 74.97     579.26      24.07
 75.07     590.00      24.29
 75.17     515.23      22.70
 75.27     580.00      24.08
 75.37     562.00      23.71
 75.47     591.00      24.31
 75.57     580.00      24.08
 75.67     605.00      24.60
 75.77     579.00      24.06
 75.87     588.00      24.25
 75.97     607.00      24.64
 76.07     617.00      24.84
 76.17     673.69      25.96
 76.27     674.00      25.96
 76.37     698.00      26.42
 76.47     652.00      25.53
 76.57     634.00      25.18
 76.67     674.00      25.96
 76.77     668.00      25.85
 76.87     632.00      25.14
 76.97     678.15      26.04
 77.07     668.45      25.85
 77.17     561.00      23.69
 77.27     611.00      24.72
 77.37     569.38      23.86
 77.47     527.00      22.96
 77.57     537.00      23.17
 77.67     504.00      22.45
 77.77     537.00      23.17
 77.87     521.70      22.84
 77.97     483.00      21.98
 78.07     493.00      22.20
 78.17     493.93      22.22
 78.27     506.19      22.50
 78.37     501.00      22.38
 78.47     513.70      22.66
 78.57     536.00      23.15
 78.67     533.02      23.09
 78.77     553.85      23.53
 78.87     524.00      22.89
 78.97     549.00      23.43
 79.07     486.00      22.05
 79.17     550.00      23.45
 79.27     531.75      23.06
 79.37     508.00      22.54
 79.47     517.21      22.74
 79.57     537.00      23.17
 79.67     576.16      24.00
 79.77     518.00      22.76
 79.87     499.07      22.34
 79.97     578.07      24.04
 80.07     549.00      23.43
 80.17     544.00      23.32
 80.27     521.17      22.83
 80.37     581.86      24.12
 80.47     624.00      24.98
 80.57     618.00      24.86
 80.67     637.33      25.25
 80.77     681.05      26.10
 80.87     621.00      24.92
 80.97     664.00      25.77
 81.07     674.00      25.96
 81.17     724.00      26.91
 81.27     740.00      27.20
 81.37     728.00      26.98
 81.47     745.00      27.29
 81.57     781.80      27.96
 81.67     706.00      26.57
 81.77     733.00      27.07
 81.87     724.00      26.91
 81.97     692.00      26.31
 82.07     673.00      25.94
 82.17     673.00      25.94
 82.27     669.37      25.87
 82.37     649.00      25.48
 82.47     600.00      24.49
 82.57     559.00      23.64
 82.67     552.00      23.49
 82.77     558.00      23.62
 82.87     549.00      23.43
 82.97     564.00      23.75
 83.07     543.59      23.32
 83.17     549.10      23.43
 83.27     577.60      24.03
 83.37     525.65      22.93
 83.47     534.00      23.11
 83.57     510.00      22.58
 83.67     563.00      23.73
 83.77     507.00      22.52
 83.87     582.00      24.12
 83.97     554.00      23.54
 84.07     596.77      24.43
 84.17     591.00      24.31
 84.27     565.00      23.77
 84.37     523.00      22.87
 84.47     496.00      22.27
 84.57     571.00      23.90
 84.67     534.77      23.13
 84.77     561.45      23.69
 84.87     503.00      22.43
 84.97     540.00      23.24
 85.07     524.00      22.89
 85.17     519.00      22.78
 85.27     559.67      23.66
 85.37     536.00      23.15
 85.47     484.83      22.02
 85.57     522.00      22.85
 85.67     563.26      23.73
 85.77     512.00      22.63
 85.87     480.49      21.92
 85.97     536.59      23.16
 86.07     541.00      23.26
 86.17     497.80      22.31
 86.27     540.00      23.24
 86.37     545.60      23.36
 86.47     544.00      23.32
 86.57     586.38      24.22
 86.67     551.00      23.47
 86.77     570.76      23.89
 86.87     609.00      24.68
 86.97     633.00      25.16
 87.07     640.00      25.30
 87.17     608.35      24.66
 87.27     678.00      26.04
 87.37     591.22      24.32
 87.47     668.00      25.85
 87.57     662.00      25.73
 87.67     607.00      24.64
 87.77     640.00      25.30
 87.87     592.05      24.33
 87.97     564.33      23.76
 88.07     578.00      24.04
 88.17     606.00      24.62
 88.27     561.00      23.69
 88.37     624.00      24.98
 88.47     571.00      23.90
 88.57     587.00      24.23
 88.67     596.00      24.41
 88.77     586.00      24.21
 88.87     582.00      24.12
 88.97     575.00      23.98
 89.07     570.00      23.87
 89.17     599.00      24.47
 89.27     536.00      23.15
 89.37     603.35      24.56
 89.47     592.63      24.34
 89.57     628.00      25.06
 89.67     564.06      23.75
 89.77     600.00      24.49
 89.87     540.13      23.24
 89.97     562.47      23.72
 90.07     560.00      23.66
 90.17     552.87      23.51
 90.27     585.77      24.20
 90.37     522.00      22.85
 90.47     530.00      23.02
 90.57     550.68      23.47
 90.67     498.00      22.32
 90.77     521.56      22.84
 90.87     513.00      22.65
 90.97     513.81      22.67
 91.07     505.00      22.47
 91.17     550.00      23.45
 91.27     499.00      22.34
 91.37     533.71      23.10
 91.47     487.15      22.07
 91.57     533.10      23.09
 91.67     505.62      22.49
 91.77     556.00      23.58
 91.87     537.98      23.19
 91.97     581.00      24.10
 92.07     570.00      23.87
 92.17     565.00      23.77
 92.27     535.32      23.14
 92.37     577.80      24.04
 92.47     643.00      25.36
 92.57     607.80      24.65
 92.67     658.97      25.67
 92.77     639.00      25.28
 92.87     707.00      26.59
 92.97     709.00      26.63
 93.07     710.47      26.65
 93.17     735.24      27.12
 93.27     714.00      26.72
 93.37     734.09      27.09
 93.47     810.28      28.47
 93.57     846.00      29.09
 93.67     801.00      28.30
 93.77     870.00      29.50
 93.87     834.00      28.88
 93.97     814.00      28.53
 94.07     833.52      28.87
 94.17     792.00      28.14
 94.27     893.00      29.88
 94.37     869.00      29.48
 94.47     887.00      29.78
 94.57     928.00      30.46
 94.67     941.00      30.68
 94.77     897.00      29.95
 94.87     859.00      29.31
 94.97     834.79      28.89
 95.07     902.89      30.05
 95.17     820.24      28.64
 95.27     826.00      28.74
 95.37     864.00      29.39
 95.47     795.77      28.21
 95.57     806.00      28.39
 95.67     763.00      27.62
 95.77     687.00      26.21
 95.87     671.44      25.91
 95.97     703.00      26.51
 96.07     700.00      26.46
 96.17     793.00      28.16
 96.27     664.00      25.77
 96.37     799.41      28.27
 96.47     812.00      28.50
 96.57     900.00      30.00
 96.67     919.00      30.32
 96.77     982.00      31.34
 96.87    1028.00      32.06
 96.97    1118.00      33.44
 97.07    1244.02      35.27
 97.17    1321.34      36.35
 97.27    1334.00      36.52
 97.37    1387.50      37.25
 97.47    1434.00      37.87
 97.57    1434.00      37.87
 97.67    1429.56      37.81
 97.77    1368.00      36.99
 97.87    1431.61      37.84
 97.97    1298.00      36.03
 98.07    1219.00      34.91
 98.17    1200.00      34.64
 98.27    1089.00      33.00
 98.37    1115.17      33.39
 98.47     983.34      31.36
 98.57     946.79      30.77
 98.67     958.43      30.96
 98.77     870.00      29.50
 98.87     829.00      28.79
 98.97     868.00      29.46
 99.07     813.00      28.51
 99.17     824.00      28.71
 99.27     933.73      30.56
 99.37     976.00      31.24
 99.47    1042.97      32.30
 99.57    1119.54      33.46
 99.67    1133.00      33.66
 99.77    1238.00      35.19
 99.87    1302.00      36.08
 99.97    1421.33      37.70
100.07    1465.00      38.28
100.17    1713.00      41.39
100.27    1718.82      41.46
100.37    1788.00      42.28
100.47    1898.00      43.57
100.57    2028.21      45.04
100.67    2064.06      45.43
100.77    2107.00      45.90
100.87    2102.00      45.85
100.97    1963.00      44.31
101.07    1932.00      43.95
101.17    1815.53      42.61
101.27    1838.42      42.88
101.37    1637.00      40.46
101.47    1604.00      40.05
101.57    1593.35      39.92
101.67    1481.82      38.49
101.77    1392.03      37.31
101.87    1334.00      36.52
101.97    1331.18      36.49
102.07    1160.00      34.06
102.17    1115.00      33.39
102.27    1172.00      34.23
102.37    1159.67      34.05
102.47    1148.00      33.88
102.57    1060.83      32.57
102.67    1132.00      33.65
102.77    1031.00      32.11
102.87    1009.18      31.77
102.97    1020.00      31.94
103.07    1006.54      31.73
103.17     866.50      29.44
103.27     894.61      29.91
103.37     792.00      28.14
103.47     764.00      27.64
103.57     742.39      27.25
103.67     723.00      26.89
103.77     731.00      27.04
103.87     706.59      26.58
103.97     590.00      24.29
104.07     619.00      24.88
104.17     645.00      25.40
104.27     570.85      23.89
104.37     571.00      23.90
104.47     597.00      24.43
104.57     516.00      22.72
104.67     579.00      24.06
104.77     543.00      23.30
104.87     532.34      23.07
104.97     500.00      22.36
105.07     569.22      23.86
105.17     530.56      23.03
105.27     536.00      23.15
105.37     488.53      22.10
105.47     545.00      23.35
105.57     577.66      24.03
105.67     549.00      23.43
105.77     515.54      22.71
105.87     565.00      23.77
105.97     556.88      23.60
106.07     612.00      24.74
106.17     556.00      23.58
106.27     557.00      23.60
106.37     609.42      24.69
106.47     577.00      24.02
106.57     606.82      24.63
106.67     646.30      25.42
106.77     637.00      25.24
106.87     672.74      25.94
106.97     649.00      25.48
107.07     694.22      26.35
107.17     637.71      25.25
107.27     659.73      25.69
107.37     664.00      25.77
107.47     638.00      25.26
107.57     637.00      25.24
107.67     695.00      26.36
107.77     700.00      26.46
107.87     683.00      26.13
107.97     677.00      26.02
108.07     694.58      26.35
108.17     658.03      25.65
108.27     738.00      27.17
108.37     640.00      25.30
108.47     697.00      26.40
108.57     701.93      26.49
108.67     710.00      26.65
108.77     659.00      25.67
108.87     657.00      25.63
108.97     739.00      27.18
109.07     634.00      25.18
109.17     654.23      25.58
109.27     635.23      25.20
109.37     621.39      24.93
109.47     661.79      25.73
109.57     649.26      25.48
109.67     620.82      24.92
109.77     605.00      24.60
109.87     659.00      25.67
109.97     591.00      24.31
110.07     615.45      24.81
110.17     586.00      24.21
110.27     595.00      24.39
110.37     568.65      23.85
110.47     581.00      24.10
110.57     562.00      23.71
110.67     553.00      23.52
110.77     568.93      23.85
110.87     592.00      24.33
110.97     533.00      23.09
111.07     508.00      22.54
111.17     534.00      23.11
111.27     536.42      23.16
111.37     526.96      22.96
111.47     556.00      23.58
111.57     582.76      24.14
111.67     503.48      22.44
111.77     587.00      24.23
111.87     529.06      23.00
111.97     589.00      24.27
112.07     594.00      24.37
112.17     543.00      23.30
112.27     541.00      23.26
112.37     557.83      23.62
112.47     612.78      24.75
112.57     595.00      24.39
112.67     625.00      25.00
112.77     589.00      24.27
112.87     646.80      25.43
112.97     652.82      25.55
113.07     674.52      25.97
113.17     635.00      25.20
113.27     634.00      25.18
113.37     701.27      26.48
113.47     740.81      27.22
113.57     696.00      26.38
113.67     752.19      27.43
113.77     813.78      28.53
113.87     786.00      28.04
113.97     804.00      28.35
114.07     813.00      28.51
114.17     879.00      29.65
114.27    1020.97      31.95
114.37    1074.51      32.78
114.47    1127.00      33.57
114.57    1263.00      35.54
114.67    1433.32      37.86
114.77    1603.00      40.04
114.87    1767.00      42.04
114.97    1963.00      44.31
115.07    2289.00      47.84
115.17    2404.00      49.03
115.27    2760.00      52.54
115.37    3002.00      54.79
115.47    3332.00      57.72
115.57    3483.00      59.02
115.67    4040.78      63.57
115.77    4246.00      65.16
115.87    4732.40      68.79
115.97    4998.00      70.70
116.07    5345.00      73.11
116.17    5811.67      76.23
116.27    6045.00      77.75
116.37    6412.00      80.07
116.47    6577.67      81.10
116.57    6541.88      80.88
116.67    6806.00      82.50
116.77    6879.00      82.94
116.87    6731.00      82.04
116.97    6590.00      81.18
117.07    6335.00      79.59
117.17    6299.00      79.37
117.27    5680.00      75.37
117.37    5518.60      74.29
117.47    5136.00      71.67
117.57    4636.00      68.09
117.67    4367.00      66.08
117.77    4066.26      63.77
117.87    3847.00      62.02
117.97    3388.43      58.21
118.07    3121.54      55.87
118.17    2761.70      52.55
118.27    2503.00      50.03
118.37    2240.00      47.33
118.47    1973.00      44.42
118.57    1782.00      42.21
118.67    1586.00      39.82
118.77    1389.00      37.27
118.87    1358.02      36.85
118.97    1248.00      35.33
119.07    1050.00      32.40
119.17     942.61      30.70
119.27     954.50      30.90
119.37     819.00      28.62
119.47     797.00      28.23
119.57     779.13      27.91
119.67     745.96      27.31
119.77     685.86      26.19
119.87     688.88      26.25
119.97     641.00      25.32
120.07     580.00      24.08
120.17     596.40      24.42
120.27     579.00      24.06
120.37     638.43      25.27
120.47     579.00      24.06
120.57     605.00      24.60
120.67     588.00      24.25
120.77     599.06      24.48
120.87     553.72      23.53
120.97     586.00      24.21
121.07     535.00      23.13
121.17     538.84      23.21
121.27     588.70      24.26
121.37     539.00      23.22
121.47     576.00      24.00
121.57     577.00      24.02
121.67     578.00      24.04
121.77     578.00      24.04
121.87     630.00      25.10
121.97     627.00      25.04
122.07     569.71      23.87
122.17     610.61      24.71
122.27     660.14      25.69
122.37     638.07      25.26
122.47     618.00      24.86
122.57     644.33      25.38
122.67     602.00      24.54
122.77     633.00      25.16
122.87     630.00      25.10
122.97     621.44      24.93
123.07     681.03      26.10
123.17     642.00      25.34
123.27     613.00      24.76
123.37     676.96      26.02
123.47     667.81      25.84
123.57     644.00      25.38
123.67     659.00      25.67
123.77     666.77      25.82
123.87     624.00      24.98
123.97     662.68      25.74
124.07     614.00      24.78
124.17     629.00      25.08
124.27     620.00      24.90
124.37     619.00      24.88
124.47     598.00      24.45
124.57     626.00      25.02
124.67     621.03      24.92
124.77     592.00      24.33
124.87     595.00      24.39
124.97     622.00      24.94
