  9.97     530.39      23.03
 10.07     581.93      24.12
 10.17     607.00      24.64
 10.27     599.00      24.47
 10.37     635.00      25.20
 10.47     622.00      24.94
 10.57     577.00      24.02
 10.67     572.00      23.92
 10.77     549.89      23.45
 10.87     598.38      24.46
 10.97     595.00      24.39
 11.07     600.00      24.49
 11.17     569.00      23.85
 11.27     587.31      24.23
 11.37     586.05      24.21
 11.47     581.46      24.11
 11.57     601.00      24.52
 11.67     588.00      24.25
 11.77     573.04      23.94
 11.87     605.00      24.60
 11.97     623.47      24.97
 12.07     687.00      26.21
 12.17     716.00      26.76
 12.27     652.00      25.53
 12.37     693.66      26.34
 12.47     607.00      24.64
 12.57     606.04      24.62
 12.67     592.61      24.34
 12.77     537.54      23.19
 12.87     568.00      23.83
 12.97     562.00      23.71
 13.07     572.00      23.92
 13.17     533.00      23.09
 13.27     579.12      24.06
 13.37     556.00      23.58
 13.47     544.00      23.32
 13.57     601.82      24.53
 13.67     543.00      23.30
 13.77     537.07      23.17
 13.87     584.00      24.17
 13.97     608.42      24.67
 14.07     566.00      23.79
 14.17     542.00      23.28
 14.27     540.00      23.24
 14.37     564.83      23.77
 14.47     529.00      23.00
 14.57     587.00      24.23
 14.67     598.60      24.47
 14.77     573.14      23.94
 14.87     567.56      23.82
 14.97     534.00      23.11
 15.07     564.00      23.75
 15.17     601.22      24.52
 15.27     580.00      24.08
 15.37     548.00      23.41
 15.47     558.31      23.63
 15.57     502.00      22.41
 15.67     544.00      23.32
 15.77     603.19      24.56
 15.87     572.00      23.92
 15.97     562.00      23.71
 16.07     578.00      24.04
 16.17     564.85      23.77
 16.27     533.00      23.09
 16.37     574.00      23.96
 16.47     560.33      23.67
 16.57     540.00      23.24
 16.67     599.41      24.48
 16.77     532.59      23.08
 16.87     571.00      23.90
 16.97     544.74      23.34
 17.07     541.00      23.26
 17.17     589.00      24.27
 17.27     539.57      23.23
 17.37     535.00      23.13
 17.47     573.44      23.95
 17.57     595.67      24.41
 17.67     499.00      22.34
 17.77     580.00      24.08
 17.87     556.05      23.58
 17.97     559.00      23.64
 18.07     573.69      23.95
 18.17     543.00      23.30
 18.27     562.15      23.71
 18.37     585.00      24.19
 18.47     521.99      22.85
 18.57     559.00      23.64
 18.67     549.77      23.45
 18.77     537.00      23.17
 18.87     515.00      22.69
 18.97     591.00      24.31
 19.07     528.00      22.98
 19.17     528.04      22.98
 19.27     529.82      23.02
 19.37     538.29      23.20
 19.47     549.00      23.43
 19.57     586.00      24.21
 19.67     556.00      23.58
 19.77     570.00      23.87
 19.87     575.00      23.98
 19.97     594.79      24.39
 20.07     532.00      23.07
 20.17     555.00      23.56
 20.27     513.41      22.66
 20.37     537.63      23.19
 20.47     575.00      23.98
 20.57     598.77      24.47
 20.67     585.00      24.19
 20.77     578.00      24.04
 20.87     539.00      23.22
 20.97     552.00      23.49
 21.07     532.30      23.07
 21.17     526.00      22.93
 21.27     552.00      23.49
 21.37     559.00      23.64
 21.47     586.33      24.21
 21.57     560.00      23.66
 21.67     579.00      24.06
 21.77     512.22      22.63
 21.87     562.00      23.71
 21.97     528.20      22.98
 22.07     522.00      22.85
 22.17     575.00      23.98
 22.27     505.94      22.49
 22.37     528.56      22.99
 22.47     562.38      23.71
 22.57     585.48      24.20
 22.67     562.00      23.71
 22.77     615.00      24.80
 22.87     591.35      24.32
 22.97     539.00      23.22
 23.07     519.00      22.78
 23.17     520.78      22.82
 23.27     526.00      22.93
 23.37     556.63      23.59
 23.47     592.21      24.34
 23.57     559.54      23.65
 23.67     568.00      23.83
 23.77     511.00      22.61
 23.87     547.51      23.40
 23.97     574.63      23.97
 24.07     548.18      23.41
 24.17     568.00      23.83
 24.27     594.00      24.37
 24.37     595.00      24.39
 24.47     627.00      25.04
 24.57     649.00      25.48
 24.67     646.00      25.42
 24.77     612.00      24.74
 24.87     596.00      24.41
 24.97     630.00      25.10
 25.07     540.00      23.24
 25.17     585.58      24.20
 25.27     594.11      24.37
 25.37     578.28      24.05
 25.47     592.00      24.33
 25.57     570.85      23.89
 25.67     529.00      23.00
 25.77     563.00      23.73
 25.87     532.00      23.07
 25.97     574.39      23.97
 26.07     558.00      23.62
 26.17     571.83      23.91
 26.27     572.15      23.92
 26.37     556.00      23.58
 26.47     526.22      22.94
 26.57     549.00      23.43
 26.67     551.57      23.49
 26.77     602.00      24.54
 26.87     523.90      22.89
 26.97     573.49      23.95
 27.07     548.92      23.43
 27.17     530.00      23.02
 27.27     551.00      23.47
 27.37     562.00      23.71
 27.47     539.00      23.22
 27.57     549.44      23.44
 27.67     585.00      24.19
 27.77     544.00      23.32
 27.87     581.00      24.10
 27.97     648.00      25.46
 28.07     763.64      27.63
 28.17     969.00      31.13
 28.27     968.00      31.11
 28.37     890.00      29.83
 28.47     811.94      28.49
 28.57     686.00      26.19
 28.67     752.00      27.42
 28.77     701.86      26.49
 28.87     767.00      27.69
 28.97     864.58      29.40
 29.07     749.00      27.37
 29.17     728.21      26.99
 29.27     601.00      24.52
 29.37     573.55      23.95
 29.47     568.00      23.83
 29.57     524.48      22.90
 29.67     575.00      23.98
 29.77     577.00      24.02
 29.87     592.00      24.33
 29.97     599.00      24.47
 30.07     563.00      23.73
 30.17     543.00      23.30
 30.27     593.00      24.35
 30.37     590.00      24.29
 30.47     608.00      24.66
 30.57     552.00      23.49
 30.67     565.00      23.77
 30.77     619.00      24.88
 30.87     665.00      25.79
 30.97     623.00      24.96
 31.07     619.00      24.88
 31.17     589.00      24.27
 31.27     572.06      23.92
 31.37     547.00      23.39
 31.47     537.47      23.18
 31.57     522.72      22.86
 31.67     552.00      23.49
 31.77     513.00      22.65
 31.87     534.00      23.11
 31.97     564.92      23.77
 32.07     532.00      23.07
 32.17     525.00      22.91
 32.27     561.00      23.69
 32.37     530.00      23.02
 32.47     536.00      23.15
 32.57     529.00      23.00
 32.67     548.00      23.41
 32.77     523.99      22.89
 32.87     584.00      24.17
 32.97     518.00      22.76
 33.07     524.90      22.91
 33.17     522.83      22.87
 33.27     496.12      22.27
 33.37     503.57      22.44
 33.47     573.00      23.94
 33.57     640.00      25.30
 33.67     599.48      24.48
 33.77     760.00      27.57
 33.87     905.96      30.10
 33.97    1040.42      32.26
 34.07    1089.00      33.00
 34.17    1055.16      32.48
 34.27     908.00      30.13
 34.37     722.00      26.87
 34.47     689.13      26.25
 34.57     609.00      24.68
 34.67     562.00      23.71
 34.77     553.00      23.52
 34.87     531.00      23.04
 34.97     570.48      23.88
 35.07     553.00      23.52
 35.17     551.60      23.49
 35.27     510.00      22.58
 35.37     498.00      22.32
 35.47     517.00      22.74
 35.57     543.64      23.32
 35.67     521.00      22.83
 35.77     533.00      23.09
 35.87     542.00      23.28
 35.97     464.00      21.54
 36.07     537.35      23.18
 36.17     516.69      22.73
 36.27     528.46      22.99
 36.37     504.63      22.46
 36.47     510.99      22.61
 36.57     507.00      22.52
 36.67     487.00      22.07
 36.77     523.48      22.88
 36.87     518.00      22.76
 36.97     504.00      22.45
 37.07     469.00      21.66
 37.17     524.00      22.89
 37.27     522.00      22.85
 37.37     501.00      22.38
 37.47     544.00      23.32
 37.57     482.91      21.98
 37.67     545.29      23.35
 37.77     489.50      22.12
 37.87     513.32      22.66
 37.97     533.00      23.09
 38.07     542.80      23.30
 38.17     485.00      22.02
 38.27     520.17      22.81
 38.37     468.83      21.65
 38.47     520.00      22.80
 38.57     493.00      22.20
 38.67     504.00      22.45
 38.77     503.17      22.43
 38.87     499.00      22.34
 38.97     495.00      22.25
 39.07     548.75      23.43
 39.17     494.00      22.23
 39.27     512.99      22.65
 39.37     495.00      22.25
 39.47     552.00      23.49
 39.57     465.03      21.56
 39.67     492.00      22.18
 39.77     508.86      22.56
 39.87     494.00      22.23
 39.97     547.53      23.40
 40.07     516.25      22.72
 40.17     504.09      22.45
 40.27     485.00      22.02
 40.37     508.00      22.54
 40.47     491.00      22.16
 40.57     466.00      21.59
 40.67     525.00      22.91
 40.77     514.00      22.67
 40.87     499.00      22.34
 40.97     511.00      22.61
 41.07     519.00      22.78
 41.17     516.53      22.73
 41.27     490.00      22.14
 41.37     478.00      21.86
 41.47     500.00      22.36
 41.57     523.00      22.87
 41.67     481.00      21.93
 41.77     520.00      22.80
 41.87     522.00      22.85
 41.97     536.94      23.17
 42.07     511.00      22.61
 42.17     551.50      23.48
 42.27     568.00      23.83
 42.37     567.09      23.81
 42.47     580.00      24.08
 42.57     585.00      24.19
 42.67     590.00      24.29
 42.77     574.00      23.96
 42.87     616.00      24.82
 42.97     578.00      24.04
 43.07     567.00      23.81
 43.17     521.00      22.83
 43.27     508.00      22.54
 43.37     503.54      22.44
 43.47     518.00      22.76
 43.57     512.00      22.63
 43.67     485.79      22.04
 43.77     476.51      21.83
 43.87     527.00      22.96
 43.97     541.00      23.26
 44.07     501.00      22.38
 44.17     505.00      22.47
 44.27     520.02      22.80
 44.37     469.00      21.66
 44.47     504.00      22.45
 44.57     506.00      22.49
 44.67     547.29      23.39
 44.77     479.50      21.90
 44.87     500.00      22.36
 44.97     443.00      21.05
 45.07     506.00      22.49
 45.17     481.36      21.94
 45.27     548.00      23.41
 45.37     476.86      21.84
 45.47     461.53      21.48
 45.57     511.00      22.61
 45.67     529.00      23.00
 45.77     473.00      21.75
 45.87     511.77      22.62
 45.97     527.00      22.96
 46.07     517.00      22.74
 46.17     500.00      22.36
 46.27     488.00      22.09
 46.37     507.00      22.52
 46.47     513.00      22.65
 46.57     547.24      23.39
 46.67     482.36      21.96
 46.77     473.70      21.76
 46.87     494.00      22.23
 46.97     543.30      23.31
 47.07     446.00      21.12
 47.17     493.61      22.22
 47.27     545.00      23.35
 47.37     529.00      23.00
 47.47     519.00      22.78
 47.57     606.00      24.62
 47.67     652.00      25.53
 47.77     582.00      24.12
 47.87     601.00      24.52
 47.97     544.25      23.33
 48.07     594.00      24.37
 48.17     561.00      23.69
 48.27     577.00      24.02
 48.37     579.00      24.06
 48.47     560.76      23.68
 48.57     513.00      22.65
 48.67     538.00      23.19
 48.77     528.00      22.98
 48.87     546.00      23.37
 48.97     554.00      23.54
 49.07     529.00      23.00
 49.17     552.00      23.49
 49.27     593.00      24.35
 49.37     679.00      26.06
 49.47     647.00      25.44
 49.57     780.00      27.93
 49.67     849.94      29.15
 49.77    1166.68      34.16
 49.87    1509.00      38.85
 49.97    1801.00      42.44
 50.07    2257.00      47.51
 50.17    2394.39      48.93
 50.27    2422.00      49.21
 50.37    2322.34      48.19
 50.47    1830.00      42.78
 50.57    1403.00      37.46
 50.67    1173.80      34.26
 50.77     761.00      27.59
 50.87     735.00      27.11
 50.97     664.34      25.77
 51.07     655.28      25.60
 51.17     584.31      24.17
 51.27     603.00      24.56
 51.37     613.00      24.76
 51.47     615.51      24.81
 51.57     535.61      23.14
 51.67     535.00      23.13
 51.77     556.15      23.58
 51.87     544.00      23.32
 51.97     522.38      22.86
 52.07     530.39      23.03
 52.17     523.54      22.88
 52.27     556.00      23.58
 52.37     543.00      23.30
 52.47     615.00      24.80
 52.57     515.87      22.71
 52.67     603.00      24.56
 52.77     590.00      24.29
 52.87     659.00      25.67
 52.97     715.10      26.74
 53.07     792.12      28.14
 53.17     894.00      29.90
 53.27    1088.00      32.98
 53.37    1142.00      33.79
 53.47    1220.00      34.93
 53.57    1175.21      34.28
 53.67    1194.03      34.55
 53.77    1103.00      33.21
 53.87     912.00      30.20
 53.97     754.62      27.47
 54.07     706.00      26.57
 54.17     655.00      25.59
 54.27     604.18      24.58
 54.37     575.00      23.98
 54.47     514.20      22.68
 54.57     579.64      24.08
 54.67     565.00      23.77
 54.77     517.12      22.74
 54.87     527.00      22.96
 54.97     548.00      23.41
 55.07     587.00      24.23
 55.17     589.51      24.28
 55.27     588.00      24.25
 55.37     554.00      23.54
 55.47     559.00      23.64
 55.57     557.00      23.60
 55.67     595.00      24.39
 55.77     599.00      24.47
 55.87     603.83      24.57
 55.97     615.57      24.81
 56.07     728.62      26.99
 56.17     770.00      27.75
 56.27     951.00      30.84
 56.37    1138.99      33.75
 56.47    1425.00      37.75
 56.57    1818.15      42.64
 56.67    2193.00      46.83
 56.77    2530.06      50.30
 56.87    2718.28      52.14
 56.97    2576.84      50.76
 57.07    2452.00      49.52
 57.17    2106.00      45.89
 57.27    1572.00      39.65
 57.37    1370.16      37.02
 57.47    1112.86      33.36
 57.57     828.00      28.77
 57.67     785.00      28.02
 57.77     674.00      25.96
 57.87     707.00      26.59
 57.97     701.00      26.48
 58.07     718.31      26.80
 58.17     706.00      26.57
 58.27     772.00      27.78
 58.37     855.33      29.25
 58.47     946.34      30.76
 58.57    1043.00      32.30
 58.67    1168.00      34.18
 58.77    1252.00      35.38
 58.87    1450.00      38.08
 58.97    1485.00      38.54
 59.07    1553.00      39.41
 59.17    1523.00      39.03
 59.27    1380.00      37.15
 59.37    1405.00      37.48
 59.47    1263.67      35.55
 59.57    1164.00      34.12
 59.67    1230.00      35.07
 59.77    1136.29      33.71
 59.87    1243.00      35.26
 59.97    1234.49      35.14
 60.07    1493.00      38.64
 60.17    1485.35      38.54
 60.27    1646.00      40.57
 60.37    1450.72      38.09
 60.47    1392.00      37.31
 60.57    1308.00      36.17
 60.67    1081.00      32.88
 60.77     919.00      30.32
 60.87     831.00      28.83
 60.97     715.00      26.74
 61.07     644.00      25.38
 61.17     662.00      25.73
 61.27     643.00      25.36
 61.37     686.09      26.19
 61.47     655.00      25.59
 61.57     708.00      26.61
 61.67     870.00      29.50
 61.77    1005.00      31.70
 61.87    1148.00      33.88
 61.97    1206.00      34.73
 62.07    1368.00      36.99
 62.17    1334.00      36.52
 62.27    1363.00      36.92
 62.37    1275.11      35.71
 62.47    1154.00      33.97
 62.57    1002.93      31.67
 62.67     878.00      29.63
 62.77     766.00      27.68
 62.87     667.49      25.84
 62.97     668.00      25.85
 63.07     595.28      24.40
 63.17     619.00      24.88
 63.27     573.00      23.94
 63.37     592.00      24.33
 63.47     597.00      24.43
 63.57     571.49      23.91
 63.67     611.00      24.72
 63.77     600.00      24.49
 63.87     648.00      25.46
 63.97     640.00      25.30
 64.07     731.54      27.05
 64.17     805.54      28.38
 64.27     803.00      28.34
 64.37     892.00      29.87
 64.47    1016.07      31.88
 64.57     953.43      30.88
 64.67    1045.00      32.33
 64.77    1022.00      31.97
 64.87    1024.15      32.00
 64.97     942.00      30.69
 65.07     815.00      28.55
 65.17     766.65      27.69
 65.27     692.61      26.32
 65.37     680.20      26.08
 65.47     689.00      26.25
 65.57     654.00      25.57
 65.67     587.00      24.23
 65.77     591.00      24.31
 65.87     550.00      23.45
 65.97     581.00      24.10
 66.07     545.00      23.35
 66.17     559.47      23.65
 66.27     538.00      23.19
 66.37     522.93      22.87
 66.47     560.02      23.66
 66.57     571.00      23.90
 66.67     572.00      23.92
 66.77     536.00      23.15
 66.87     577.26      24.03
 66.97     634.29      25.19
 67.07     661.00      25.71
 67.17     726.38      26.95
 67.27     789.00      28.09
 67.37     863.17      29.38
 67.47    1080.00      32.86
 67.57    1284.43      35.84
 67.67    1553.00      39.41
 67.77    1871.23      43.26
 67.87    2166.36      46.54
 67.97    2340.00      48.37
 68.07    2496.00      49.96
 68.17    2450.00      49.50
 68.27    2226.82      47.19
 68.37    2071.00      45.51
 68.47    1770.00      42.07
 68.57    1542.00      39.27
 68.67    1216.15      34.87
 68.77    1083.00      32.91
 68.87     889.00      29.82
 68.97     796.00      28.21
 69.07     651.70      25.53
 69.17     658.00      25.65
 69.27     663.00      25.75
 69.37     635.42      25.21
 69.47     567.29      23.82
 69.57     546.28      23.37
 69.67     565.00      23.77
 69.77     600.43      24.50
 69.87     574.00      23.96
 69.97     540.00      23.24
 70.07     551.35      23.48
 70.17     610.88      24.72
 70.27     530.20      23.03
 70.37     576.00      24.00
 70.47     544.00      23.32
 70.57     551.00      23.47
 70.67     593.00      24.35
 70.77     597.00      24.43
 70.87     572.73      23.93
 70.97     620.13      24.90
 71.07     625.00      25.00
 71.17     782.43      27.97
 71.27     870.37      29.50
 71.37     959.00      30.97
 71.47    1144.05      33.82
 71.57    1325.00      36.40
 71.67    1445.00      38.01
 71.77    1578.80      39.73
 71.87    1751.00      41.84
 71.97    1987.00      44.58
 72.07    1868.00      43.22
 72.17    1940.38      44.05
 72.27    1761.00      41.96
 72.37    1671.93      40.89
 72.47    1470.00      38.34
 72.57    1251.54      35.38
 72.67    1140.00      33.76
 72.77    1094.05      33.08
 72.87     928.00      30.46
 72.97     878.33      29.64
 73.07     734.00      27.09
 73.17     716.00      26.76
 73.27     628.00      25.06
 73.37     690.00      26.27
 73.47     615.77      24.81
 73.57     586.00      24.21
 73.67     658.86      25.67
 73.77     635.00      25.20
 73.87     610.00      24.70
 73.97     529.00      23.00
 74.07     622.20      24.94
 74.17     544.10      23.33
 74.27     538.96      23.22
 74.37     587.00      24.23
 74.47     599.00      24.47
 74.57     588.00      24.25
 74.67     620.00      24.90
 74.77     640.00      25.30
 74.87     556.53      23.59
 74.97     633.00      25.16
 75.07     511.10      22.61
 75.17     573.53      23.95
 75.27     590.65      24.30
 75.37     532.12      23.07
 75.47     569.00      23.85
 75.57     546.00      23.37
 75.67     624.00      24.98
 75.77     533.54      23.10
 75.87     639.00      25.28
 75.97     573.15      23.94
 76.07     572.00      23.92
 76.17     632.00      25.14
 76.27     682.00      26.12
 76.37     653.36      25.56
 76.47     743.00      27.26
 76.57     691.00      26.29
 76.67     658.42      25.66
 76.77     702.74      26.51
 76.87     663.00      25.75
 76.97     674.00      25.96
 77.07     617.00      24.84
 77.17     637.95      25.26
 77.27     630.21      25.10
 77.37     536.00      23.15
 77.47     555.00      23.56
 77.57     538.00      23.19
 77.67     509.67      22.58
 77.77     539.55      23.23
 77.87     501.95      22.40
 77.97     544.77      23.34
 78.07     536.00      23.15
 78.17     495.00      22.25
 78.27     544.00      23.32
 78.37     539.47      23.23
 78.47     540.25      23.24
 78.57     561.29      23.69
 78.67     560.70      23.68
 78.77     520.00      22.80
 78.87     519.00      22.78
 78.97     548.65      23.42
 79.07     496.00      22.27
 79.17     497.00      22.29
 79.27     566.38      23.80
 79.37     483.00      21.98
 79.47     507.00      22.52
 79.57     517.00      22.74
 79.67     515.77      22.71
 79.77     536.00      23.15
 79.87     538.66      23.21
 79.97     548.00      23.41
 80.07     597.11      24.44
 80.17     572.91      23.94
 80.27     538.00      23.19
 80.37     563.14      23.73
 80.47     566.00      23.79
 80.57     614.00      24.78
 80.67     623.97      24.98
 80.77     619.00      24.88
 80.87     634.59      25.19
 80.97     730.00      27.02
 81.07     721.00      26.85
 81.17     740.00      27.20
 81.27     772.00      27.78
 81.37     783.00      27.98
 81.47     754.00      27.46
 81.57     754.00      27.46
 81.67     716.00      26.76
 81.77     708.00      26.61
 81.87     688.21      26.23
 81.97     681.21      26.10
 82.07     664.00      25.77
 82.17     674.00      25.96
 82.27     684.72      26.17
 82.37     641.00      25.32
 82.47     575.39      23.99
 82.57     632.00      25.14
 82.67     600.05      24.50
 82.77     603.00      24.56
 82.87     549.38      23.44
 82.97     553.97      23.54
 83.07     523.00      22.87
 83.17     538.00      23.19
 83.27     582.86      24.14
 83.37     574.00      23.96
 83.47     562.00      23.71
 83.57     542.00      23.28
 83.67     564.50      23.76
 83.77     532.00      23.07
 83.87     609.96      24.70
 83.97     567.00      23.81
 84.07     531.00      23.04
 84.17     585.43      24.20
 84.27     557.00      23.60
 84.37     535.02      23.13
 84.47     547.00      23.39
 84.57     561.00      23.69
 84.67     574.15      23.96
 84.77     558.00      23.62
 84.87     540.78      23.25
 84.97     526.78      22.95
 85.07     548.80      23.43
 85.17     576.00      24.00
 85.27     535.00      23.13
 85.37     523.00      22.87
 85.47     519.00      22.78
 85.57     558.00      23.62
 85.67     520.00      22.80
 85.77     519.00      22.78
 85.87     558.70      23.64
 85.97     500.42      22.37
 86.07     544.66      23.34
 86.17     539.87      23.24
 86.27     555.09      23.56
 86.37     562.00      23.71
 86.47     548.00      23.41
 86.57     571.00      23.90
 86.67     554.00      23.54
 86.77     587.00      24.23
 86.87     551.29      23.48
 86.97     605.00      24.60
 87.07     642.00      25.34
 87.17     606.29      24.62
 87.27     596.12      24.42
 87.37     651.67      25.53
 87.47     645.00      25.40
 87.57     583.75      24.16
 87.67     647.00      25.44
 87.77     666.00      25.81
 87.87     633.00      25.16
 87.97     620.00      24.90
 88.07     664.00      25.77
 88.17     567.28      23.82
 88.27     626.00      25.02
 88.37     542.00      23.28
 88.47     645.00      25.40
 88.57     542.21      23.29
 88.67     591.25      24.32
 88.77     575.45      23.99
 88.87     563.27      23.73
 88.97     562.00      23.71
 89.07     586.00      24.21
 89.17     550.92      23.47
 89.27     580.00      24.08
 89.37     584.00      24.17
 89.47     615.00      24.80
 89.57     545.00      23.35
 89.67     602.84      24.55
 89.77     595.00      24.39
 89.87     576.00      24.00
 89.97     527.00      22.96
 90.07     538.00      23.19
 90.17     584.92      24.19
 90.27     511.00      22.61
 90.37     549.00      23.43
 90.47     525.30      22.92
 90.57     539.04      23.22
 90.67     532.00      23.07
 90.77     558.07      23.62
 90.87     558.00      23.62
 90.97     527.00      22.96
 91.07     514.47      22.68
 91.17     508.00      22.54
 91.27     565.00      23.77
 91.37     516.00      22.72
 91.47     548.00      23.41
 91.57     502.00      22.41
 91.67     496.00      22.27
 91.77     554.90      23.56
 91.87     590.28      24.30
 91.97     588.32      24.26
 92.07     571.85      23.91
 92.17     605.05      24.60
 92.27     568.00      23.83
 92.37     587.00      24.23
 92.47     651.00      25.51
 92.57     685.88      26.19
 92.67     689.00      26.25
 92.77     678.00      26.04
 92.87     716.68      26.77
 92.97     745.00      27.29
 93.07     713.00      26.70
 93.17     766.00      27.68
 93.27     787.71      28.07
 93.37     749.91      27.38
 93.47     778.00      27.89
 93.57     770.00      27.75
 93.67     788.76      28.08
 93.77     907.00      30.12
 93.87     830.27      28.81
 93.97     879.27      29.65
 94.07     833.47      28.87
 94.17     906.00      30.10
 94.27     862.00      29.36
 94.37     838.89      28.96
 94.47     873.00      29.55
 94.57     821.74      28.67
 94.67     908.00      30.13
 94.77     995.00      31.54
 94.87     915.00      30.25
 94.97     948.00      30.79
 95.07     922.00      30.36
 95.17     855.00      29.24
 95.27     877.00      29.61
 95.37     802.00      28.32
 95.47     799.00      28.27
 95.57     769.00      27.73
 95.67     735.00      27.11
 95.77     692.00      26.31
 95.87     660.00      25.69
 95.97     686.00      26.19
 96.07     656.88      25.63
 96.17     701.00      26.48
 96.27     707.00      26.59
 96.37     732.57      27.07
 96.47     835.00      28.90
 96.57     878.00      29.63
 96.67     958.45      30.96
 96.77    1026.00      32.03
 96.87    1107.18      33.27
 96.97    1165.00      34.13
 97.07    1247.00      35.31
 97.17    1288.00      35.89
 97.27    1410.00      37.55
 97.37    1397.00      37.38
 97.47    1400.00      37.42
 97.57    1441.00      37.96
 97.67    1427.54      37.78
 97.77    1468.00      38.31
 97.87    1407.00      37.51
 97.97    1282.00      35.81
 98.07    1206.24      34.73
 98.17    1182.17      34.38
 98.27    1060.86      32.57
 98.37     998.00      31.59
 98.47     905.01      30.08
 98.57     873.05      29.55
 98.67     878.49      29.64
 98.77     850.25      29.16
 98.87     844.26      29.06
 98.97     792.00      28.14
 99.07     835.80      28.91
 99.17     855.08      29.24
 99.27     855.00      29.24
 99.37     938.00      30.63
 99.47    1043.33      32.30
 99.57    1088.00      32.98
 99.67    1245.00      35.28
 99.77    1302.00      36.08
 99.87    1432.71      37.85
 99.97    1522.00      39.01
100.07    1621.33      40.27
100.17    1814.00      42.59
100.27    1867.00      43.21
100.37    1926.95      43.90
100.47    2022.35      44.97
100.57    2111.84      45.95
100.67    2137.00      46.23
100.77    2038.42      45.15
100.87    1973.15      44.42
100.97    2002.91      44.75
101.07    1916.00      43.77
101.17    1843.96      42.94
101.27    1842.30      42.92
101.37    1701.06      41.24
101.47    1615.56      40.19
101.57    1484.00      38.52
101.67    1506.29      38.81
101.77    1438.00      37.92
101.87    1369.49      37.01
101.97    1226.00      35.01
102.07    1163.00      34.10
102.17    1161.00      34.07
102.27    1119.00      33.45
102.37    1104.00      33.23
102.47    1101.11      33.18
102.57    1059.00      32.54
102.67    1079.75      32.86
102.77    1075.37      32.79
102.87     971.00      31.16
102.97     928.68      30.47
103.07     971.33      31.17
103.17     843.00      29.03
103.27     800.00      28.28
103.37     763.00      27.62
103.47     783.00      27.98
103.57     781.00      27.95
103.67     707.00      26.59
103.77     652.35      25.54
103.87     593.00      24.35
103.97     638.00      25.26
104.07     642.67      25.35
104.17     571.00      23.90
104.27     563.00      23.73
104.37     564.02      23.75
104.47     589.00      24.27
104.57     587.98      24.25
104.67     582.00      24.12
104.77     548.00      23.41
104.87     524.00      22.89
104.97     544.12      23.33
105.07     557.39      23.61
105.17     553.00      23.52
105.27     539.00      23.22
105.37     540.00      23.24
105.47     537.63      23.19
105.57     519.00      22.78
105.67     576.22      24.00
105.77     527.00      22.96
105.87     577.00      24.02
105.97     542.00      23.28
106.07     589.61      24.28
106.17     603.00      24.56
106.27     579.00      24.06
106.37     613.00      24.76
106.47     597.62      24.45
106.57     654.38      25.58
106.67     668.00      25.85
106.77     612.00      24.74
106.87     698.97      26.44
106.97     679.00      26.06
107.07     674.00      25.96
107.17     688.86      26.25
107.27     682.00      26.12
107.37     682.00      26.12
107.47     665.67      25.80
107.57     749.37      27.37
107.67     703.00      26.51
107.77     644.00      25.38
107.87     717.00      26.78
107.97     655.00      25.59
108.07     709.59      26.64
108.17     713.00      26.70
108.27     673.56      25.95
108.37     688.17      26.23
108.47     687.00      26.21
108.57     716.00      26.76
108.67     686.00      26.19
108.77     687.00      26.21
108.87     651.92      25.53
108.97     663.00      25.75
109.07     664.00      25.77
109.17     627.00      25.04
109.27     667.00      25.83
109.37     626.84      25.04
109.47     667.00      25.83
109.57     642.00      25.34
109.67     648.00      25.46
109.77     629.00      25.08
109.87     607.30      24.64
109.97     623.00      24.96
110.07     601.75      24.53
110.17     613.15      24.76
110.27     561.00      23.69
110.37     510.89      22.60
110.47     583.00      24.15
110.57     597.00      24.43
110.67     577.11      24.02
110.77     559.00      23.64
110.87     564.00      23.75
110.97     587.00      24.23
111.07     501.96      22.40
111.17     525.00      22.91
111.27     521.00      22.83
111.37     542.00      23.28
111.47     554.39      23.55
111.57     525.00      22.91
111.67     528.72      22.99
111.77     525.00      22.91
111.87     560.15      23.67
111.97     620.00      24.90
112.07     538.00      23.19
112.17     557.78      23.62
112.27     580.94      24.10
112.37     591.00      24.31
112.47     550.29      23.46
112.57     591.00      24.31
112.67     576.85      24.02
112.77     630.00      25.10
112.87     631.05      25.12
112.97     617.40      24.85
113.07     705.50      26.56
113.17     698.06      26.42
113.27     711.00      26.66
113.37     762.00      27.60
113.47     785.00      28.02
113.57     767.00      27.69
113.67     816.00      28.57
113.77     747.00      27.33
113.87     831.97      28.84
113.97     965.00      31.06
114.07     943.00      30.71
114.17    1044.00      32.31
114.27    1086.00      32.95
114.37    1240.11      35.22
114.47    1328.28      36.45
114.57    1319.00      36.32
114.67    1544.21      39.30
114.77    1682.82      41.02
114.87    1975.00      44.44
114.97    2143.00      46.29
115.07    2229.94      47.22
115.17    2470.00      49.70
115.27    2820.00      53.10
115.37    3160.46      56.22
115.47    3480.00      58.99
115.57    3766.00      61.37
115.67    4131.04      64.27
115.77    4377.00      66.16
115.87    4716.00      68.67
115.97    5231.00      72.33
116.07    5558.00      74.55
116.17    5852.35      76.50
116.27    6369.00      79.81
116.37    6472.00      80.45
116.47    6747.00      82.14
116.57    6943.00      83.32
116.67    6883.40      82.97
116.77    6767.94      82.27
116.87    6698.00      81.84
116.97    6477.19      80.48
117.07    6418.00      80.11
117.17    5983.00      77.35
117.27    5866.67      76.59
117.37    5254.00      72.48
117.47    4871.00      69.79
117.57    4603.00      67.85
117.67    4279.00      65.41
117.77    3835.47      61.93
117.87    3620.00      60.17
117.97    3370.00      58.05
118.07    2953.00      54.34
118.17    2555.00      50.55
118.27    2329.00      48.26
118.37    1985.00      44.55
118.47    1711.00      41.36
118.57    1573.00      39.66
118.67    1380.79      37.16
118.77    1249.00      35.34
118.87    1139.92      33.76
118.97    1035.00      32.17
119.07     956.00      30.92
119.17     887.87      29.80
119.27     878.00      29.63
119.37     791.00      28.12
119.47     779.00      27.91
119.57     701.00      26.48
119.67     709.00      26.63
119.77     659.00      25.67
119.87     644.00      25.38
119.97     616.32      24.83
120.07     633.00      25.16
120.17     549.00      23.43
120.27     584.00      24.17
120.37     560.00      23.66
120.47     569.00      23.85
120.57     572.00      23.92
120.67     554.95      23.56
120.77     536.00      23.15
120.87     553.00      23.52
120.97     571.00      23.90
121.07     547.00      23.39
121.17     590.00      24.29
121.27     575.00      23.98
121.37     550.00      23.45
121.47     610.00      24.70
121.57     568.12      23.84
121.67     542.00      23.28
121.77     545.00      23.35
121.87     604.93      24.60
121.97     558.73      23.64
122.07     576.00      24.00
122.17     625.00      25.00
122.27     604.73      24.59
122.37     605.57      24.61
122.47     645.00      25.40
122.57     630.00      25.10
122.67     641.00      25.32
122.77     670.00      25.88
122.87     643.69      25.37
122.97     657.40      25.64
123.07     650.12      25.50
123.17     626.00      25.02
123.27     666.04      25.81
123.37     600.99      24.52
123.47     667.00      25.83
123.57     637.92      25.26
123.67     655.00      25.59
123.77     615.53      24.81
123.87     613.24      24.76
123.97     571.98      23.92
124.07     590.00      24.29
124.17     631.00      25.12
124.27     569.89      23.87
124.37     604.85      24.59
124.47     613.00      24.76
124.57     614.00      24.78
124.67     565.00      23.77
124.77     624.17      24.98
124.87     560.00      23.66
124.97     586.00      24.21
