  9.97     722.00      26.87
 10.07     701.26      26.48
 10.17     757.00      27.51
 10.27     709.64      26.64
 10.37     730.00      27.02
 10.47     741.89      27.24
 10.57     764.00      27.64
 10.67     757.00      27.51
 10.77     696.16      26.38
 10.87     726.00      26.94
 10.97     733.00      27.07
 11.07     764.22      27.64
 11.17     701.01      26.48
 11.27     747.00      27.33
 11.37     722.77      26.88
 11.47     772.18      27.79
 11.57     797.00      28.23
 11.67     705.00      26.55
 11.77     761.00      27.59
 11.87     764.81      27.66
 11.97     802.35      28.33
 12.07     822.91      28.69
 12.17     858.00      29.29
 12.27     858.00      29.29
 12.37     834.00      28.88
 12.47     802.00      28.32
 12.57     804.00      28.35
 12.67     799.00      28.27
 12.77     680.00      26.08
 12.87     702.00      26.50
 12.97     713.57      26.71
 13.07     707.14      26.59
 13.17     755.61      27.49
 13.27     655.00      25.59
 13.37     667.37      25.83
 13.47     698.00      26.42
 13.57     700.17      26.46
 13.67     722.77      26.88
 13.77     735.44      27.12
 13.87     664.00      25.77
 13.97     671.00      25.90
 14.07     673.00      25.94
 14.17     672.00      25.92
 14.27     704.41      26.54
 14.37     708.44      26.62
 14.47     669.89      25.88
 14.57     664.00      25.77
 14.67     675.42      25.99
 14.77     656.93      25.63
 14.87     664.85      25.78
 14.97     610.00      24.70
 15.07     682.27      26.12
 15.17     718.59      26.81
 15.27     709.00      26.63
 15.37     638.00      25.26
 15.47     674.00      25.96
 15.57     685.62      26.18
 15.67     673.00      25.94
 15.77     683.07      26.14
 15.87     668.00      25.85
 15.97     687.00      26.21
 16.07     628.36      25.07
 16.17     719.27      26.82
 16.27     644.00      25.38
 16.37     705.00      26.55
 16.47     659.00      25.67
 16.57     636.00      25.22
 16.67     648.40      25.46
 16.77     622.48      24.95
 16.87     675.00      25.98
 16.97     699.00      26.44
 17.07     665.00      25.79
 17.17     675.00      25.98
 17.27     645.00      25.40
 17.37     628.00      25.06
 17.47     684.79      26.17
 17.57     682.00      26.12
 17.67     630.68      25.11
 17.77     658.00      25.65
 17.87     653.00      25.55
 17.97     633.06      25.16
 18.07     658.21      25.66
 18.17     645.05      25.40
 18.27     668.00      25.85
 18.37     653.32      25.56
 18.47     639.49      25.29
 18.57     654.00      25.57
 18.67     613.00      24.76
 18.77     635.00      25.20
 18.87     634.00      25.18
 18.97     666.00      25.81
 19.07     655.00      25.59
 19.17     619.00      24.88
 19.27     629.00      25.08
 19.37     677.00      26.02
 19.47     647.00      25.44
 19.57     652.00      25.53
 19.67     650.16      25.50
 19.77     629.00      25.08
 19.87     620.85      24.92
 19.97     598.00      24.45
 20.07     605.13      24.60
 20.17     584.00      24.17
 20.27     598.60      24.47
 20.37     643.00      25.36
 20.47     691.00      26.29
 20.57     630.00      25.10
 20.67     621.00      24.92
 20.77     623.00      24.96
 20.87     632.00      25.14
 20.97     642.00      25.34
 21.07     614.38      24.79
 21.17     636.00      25.22
 21.27     659.00      25.67
 21.37     680.20      26.08
 21.47     624.00      24.98
 21.57     597.60      24.45
 21.67     668.94      25.86
 21.77     653.43      25.56
 21.87     612.07      24.74
 21.97     628.00      25.06
 22.07     648.00      25.46
 22.17     593.93      24.37
 22.27     614.00      24.78
 22.37     643.00      25.36
 22.47     650.00      25.50
 22.57     642.33      25.34
 22.67     630.00      25.10
 22.77     581.00      24.10
 22.87     640.32      25.30
 22.97     604.00      24.58
 23.07     657.48      25.64
 23.17     630.00      25.10
 23.27     663.00      25.75
 23.37     625.00      25.00
 23.47     631.26      25.12
 23.57     641.00      25.32
 23.67     606.42      24.63
 23.77     631.00      25.12
 23.87     646.32      25.42
 23.97     667.50      25.84
 24.07     634.00      25.18
 24.17     657.00      25.63
 24.27     685.98      26.19
 24.37     650.00      25.50
 24.47     686.00      26.19
 24.57     686.00      26.19
 24.67     718.62      26.81
 24.77     653.08      25.56
 24.87     744.00      27.28
 24.97     696.00      26.38
 25.07     733.89      27.09
 25.17     694.07      26.35
 25.27     696.00      26.38
 25.37     716.73      26.77
 25.47     686.20      26.20
 25.57     627.00      25.04
 25.67     707.00      26.59
 25.77     643.78      25.37
 25.87     680.03      26.08
 25.97     696.10      26.38
 26.07     676.36      26.01
 26.17     640.00      25.30
 26.27     625.25      25.00
 26.37     660.00      25.69
 26.47     631.27      25.13
 26.57     630.88      25.12
 26.67     690.35      26.27
 26.77     680.00      26.08
 26.87     701.00      26.48
 26.97     656.17      25.62
 27.07     689.00      26.25
 27.17     712.00      26.68
 27.27     706.00      26.57
 27.37     723.00      26.89
 27.47     756.00      27.50
 27.57     802.00      28.32
 27.67     795.00      28.20
 27.77     878.37      29.64
 27.87    1083.00      32.91
 27.97    1337.00      36.57
 28.07    2110.78      45.94
 28.17    3295.00      57.40
 28.27    5335.00      73.04
 28.37    7692.00      87.70
 28.47    9093.00      95.36
 28.57    8638.00      92.94
 28.67    6694.82      81.82
 28.77    4647.52      68.17
 28.87    3875.00      62.25
 28.97    4010.00      63.32
 29.07    4685.00      68.45
 29.17    4982.70      70.59
 29.27    4702.00      68.57
 29.37    3748.00      61.22
 29.47    2475.00      49.75
 29.57    1771.00      42.08
 29.67    1396.21      37.37
 29.77    1057.00      32.51
 29.87     984.00      31.37
 29.97     911.00      30.18
 30.07     853.00      29.21
 30.17     799.00      28.27
 30.27     754.81      27.47
 30.37     755.04      27.48
 30.47     735.00      27.11
 30.57     733.00      27.07
 30.67     752.00      27.42
 30.77     718.00      26.80
 30.87     748.00      27.35
 30.97     733.19      27.08
 31.07     741.11      27.22
 31.17     813.00      28.51
 31.27     826.00      28.74
 31.37     787.00      28.05
 31.47     714.00      26.72
 31.57     682.42      26.12
 31.67     704.63      26.54
 31.77     706.00      26.57
 31.87     627.47      25.05
 31.97     642.90      25.36
 32.07     704.00      26.53
 32.17     625.62      25.01
 32.27     597.45      24.44
 32.37     686.00      26.19
 32.47     614.79      24.79
 32.57     669.36      25.87
 32.67     675.94      26.00
 32.77     616.53      24.83
 32.87     669.26      25.87
 32.97     644.27      25.38
 33.07     688.13      26.23
 33.17     630.00      25.10
 33.27     679.51      26.07
 33.37     669.00      25.87
 33.47     669.00      25.87
 33.57     658.00      25.65
 33.67     720.00      26.83
 33.77     753.00      27.44
 33.87     793.38      28.17
 33.97     872.51      29.54
 34.07    1019.64      31.93
 34.17    1076.75      32.81
 34.27    1260.49      35.50
 34.37    1286.00      35.86
 34.47    1206.00      34.73
 34.57    1085.00      32.94
 34.67    1003.00      31.67
 34.77     820.00      28.64
 34.87     808.00      28.43
 34.97     724.91      26.92
 35.07     752.00      27.42
 35.17     666.64      25.82
 35.27     691.00      26.29
 35.37     620.00      24.90
 35.47     643.00      25.36
 35.57     596.97      24.43
 35.67     649.00      25.48
 35.77     603.33      24.56
 35.87     624.00      24.98
 35.97     648.59      25.47
 36.07     654.00      25.57
 36.17     597.00      24.43
 36.27     611.00      24.72
 36.37     613.00      24.76
 36.47     607.00      24.64
 36.57     563.00      23.73
 36.67     583.71      24.16
 36.77     637.00      25.24
 36.87     637.00      25.24
 36.97     627.00      25.04
 37.07     617.00      24.84
 37.17     578.00      24.04
 37.27     620.00      24.90
 37.37     621.04      24.92
 37.47     641.00      25.32
 37.57     662.00      25.73
 37.67     661.00      25.71
 37.77     663.00      25.75
 37.87     709.00      26.63
 37.97     683.18      26.14
 38.07     760.42      27.58
 38.17     733.14      27.08
 38.27     826.19      28.74
 38.37     818.00      28.60
 38.47     756.00      27.50
 38.57     805.03      28.37
 38.67     730.00      27.02
 38.77     726.47      26.95
 38.87     655.00      25.59
 38.97     655.00      25.59
 39.07     680.92      26.09
 39.17     665.94      25.81
 39.27     661.00      25.71
 39.37     650.27      25.50
 39.47     616.00      24.82
 39.57     589.00      24.27
 39.67     643.80      25.37
 39.77     559.00      23.64
 39.87     661.85      25.73
 39.97     635.22      25.20
 40.07     603.00      24.56
 40.17     630.00      25.10
 40.27     573.01      23.94
 40.37     603.00      24.56
 40.47     622.00      24.94
 40.57     574.00      23.96
 40.67     550.00      23.45
 40.77     642.27      25.34
 40.87     610.00      24.70
 40.97     617.00      24.84
 41.07     647.00      25.44
 41.17     581.00      24.10
 41.27     591.00      24.31
 41.37     600.00      24.49
 41.47     595.00      24.39
 41.57     603.00      24.56
 41.67     657.00      25.63
 41.77     555.00      23.56
 41.87     615.00      24.80
 41.97     605.00      24.60
 42.07     568.32      23.84
 42.17     623.58      24.97
 42.27     600.00      24.49
 42.37     641.00      25.32
 42.47     668.44      25.85
 42.57     641.00      25.32
 42.67     615.00      24.80
 42.77     630.00      25.10
 42.87     629.00      25.08
 42.97     677.00      26.02
 43.07     717.00      26.78
 43.17     732.51      27.06
 43.27     713.00      26.70
 43.37     660.00      25.69
 43.47     659.00      25.67
 43.57     675.24      25.99
 43.67     624.82      25.00
 43.77     674.00      25.96
 43.87     583.85      24.16
 43.97     573.00      23.94
 44.07     607.01      24.64
 44.17     630.42      25.11
 44.27     578.00      24.04
 44.37     645.00      25.40
 44.47     675.00      25.98
 44.57     633.15      25.16
 44.67     615.00      24.80
 44.77     575.03      23.98
 44.87     615.00      24.80
 44.97     590.20      24.29
 45.07     592.00      24.33
 45.17     642.00      25.34
 45.27     620.00      24.90
 45.37     607.41      24.65
 45.47     638.00      25.26
 45.57     590.00      24.29
 45.67     665.00      25.79
 45.77     642.76      25.35
 45.87     613.00      24.76
 45.97     578.38      24.05
 46.07     630.00      25.10
 46.17     637.00      25.24
 46.27     630.25      25.10
 46.37     607.00      24.64
 46.47     636.55      25.23
 46.57     624.00      24.98
 46.67     644.04      25.38
 46.77     670.71      25.90
 46.87     598.00      24.45
 46.97     633.00      25.16
 47.07     613.00      24.76
 47.17     594.30      24.38
 47.27     613.00      24.76
 47.37     618.00      24.86
 47.47     668.45      25.85
 47.57     645.00      25.40
 47.67     667.61      25.84
 47.77     647.00      25.44
 47.87     662.00      25.73
 47.97     617.00      24.84
 48.07     694.00      26.34
 48.17     632.00      25.14
 48.27     670.84      25.90
 48.37     679.00      26.06
 48.47     698.00      26.42
 48.57     714.00      26.72
 48.67     690.00      26.27
 48.77     633.75      25.17
 48.87     639.00      25.28
 48.97     714.18      26.72
 49.07     662.00      25.73
 49.17     633.00      25.16
 49.27     687.87      26.23
 49.37     631.25      25.12
 49.47     675.96      26.00
 49.57     657.00      25.63
 49.67     731.00      27.04
 49.77     759.00      27.55
 49.87     793.01      28.16
 49.97     949.00      30.81
 50.07    1140.00      33.76
 50.17    1602.61      40.03
 50.27    1889.00      43.46
 50.37    2484.00      49.84
 50.47    2922.00      54.06
 50.57    3161.65      56.23
 50.67    3234.05      56.87
 50.77    2856.00      53.44
 50.87    2400.81      49.00
 50.97    1960.00      44.27
 51.07    1491.00      38.61
 51.17    1187.00      34.45
 51.27     996.00      31.56
 51.37     880.18      29.67
 51.47     796.24      28.22
 51.57     765.00      27.66
 51.67     742.00      27.24
 51.77     774.00      27.82
 51.87     782.00      27.96
 51.97     754.00      27.46
 52.07     676.47      26.01
 52.17     724.72      26.92
 52.27     730.00      27.02
 52.37     727.00      26.96
 52.47     725.00      26.93
 52.57     710.00      26.65
 52.67     728.00      26.98
 52.77     713.91      26.72
 52.87     680.89      26.09
 52.97     698.00      26.42
 53.07     703.00      26.51
 53.17     748.00      27.35
 53.27     742.00      27.24
 53.37     795.00      28.20
 53.47     847.00      29.10
 53.57     930.00      30.50
 53.67     986.00      31.40
 53.77    1127.00      33.57
 53.87    1164.00      34.12
 53.97    1363.00      36.92
 54.07    1291.00      35.93
 54.17    1235.00      35.14
 54.27    1227.12      35.03
 54.37    1142.05      33.79
 54.47     962.00      31.02
 54.57     911.00      30.18
 54.67     791.00      28.12
 54.77     767.00      27.69
 54.87     744.00      27.28
 54.97     680.03      26.08
 55.07     668.03      25.85
 55.17     707.00      26.59
 55.27     713.00      26.70
 55.37     648.62      25.47
 55.47     668.00      25.85
 55.57     727.49      26.97
 55.67     677.00      26.02
 55.77     720.00      26.83
 55.87     684.00      26.15
 55.97     754.91      27.48
 56.07     754.14      27.46
 56.17     736.79      27.14
 56.27     748.93      27.37
 56.37     718.00      26.80
 56.47     796.00      28.21
 56.57     876.00      29.60
 56.67    1014.00      31.84
 56.77    1210.00      34.79
 56.87    1388.62      37.26
 56.97    1776.00      42.14
 57.07    2112.97      45.97
 57.17    2360.22      48.58
 57.27    2662.00      51.59
 57.37    2856.00      53.44
 57.47    2676.63      51.74
 57.57    2421.45      49.21
 57.67    2258.00      47.52
 57.77    1741.89      41.74
 57.87    1474.07      38.39
 57.97    1265.73      35.58
 58.07    1109.62      33.31
 58.17     929.00      30.48
 58.27     915.33      30.25
 58.37     869.00      29.48
 58.47     798.00      28.25
 58.57     848.00      29.12
 58.67     873.00      29.55
 58.77     917.13      30.28
 58.87     983.00      31.35
 58.97    1045.00      32.33
 59.07    1072.00      32.74
 59.17    1240.00      35.21
 59.27    1210.00      34.79
 59.37    1306.00      36.14
 59.47    1321.00      36.35
 59.57    1338.68      36.59
 59.67    1415.72      37.63
 59.77    1362.00      36.91
 59.87    1342.77      36.64
 59.97    1285.00      35.85
 60.07    1302.00      36.08
 60.17    1328.43      36.45
 60.27    1265.76      35.58
 60.37    1386.00      37.23
 60.47    1542.00      39.27
 60.57    1574.00      39.67
 60.67    1624.00      40.30
 60.77    1698.13      41.21
 60.87    1545.00      39.31
 60.97    1506.00      38.81
 61.07    1354.41      36.80
 61.17    1297.54      36.02
 61.27    1041.00      32.26
 61.37     952.25      30.86
 61.47     910.00      30.17
 61.57     847.00      29.10
 61.67     833.47      28.87
 61.77     851.00      29.17
 61.87     830.32      28.82
 61.97     913.00      30.22
 62.07    1027.34      32.05
 62.17    1196.00      34.58
 62.27    1241.75      35.24
 62.37    1466.00      38.29
 62.47    1660.00      40.74
 62.57    1846.73      42.97
 62.67    1807.00      42.51
 62.77    1820.00      42.66
 62.87    1774.00      42.12
 62.97    1640.00      40.50
 63.07    1525.44      39.06
 63.17    1301.00      36.07
 63.27    1068.00      32.68
 63.37    1055.00      32.48
 63.47     914.00      30.23
 63.57     914.00      30.23
 63.67     799.59      28.28
 63.77     793.42      28.17
 63.87     759.00      27.55
 63.97     783.38      27.99
 64.07     725.80      26.94
 64.17     774.68      27.83
 64.27     751.05      27.41
 64.37     870.00      29.50
 64.47     842.04      29.02
 64.57     956.00      30.92
 64.67    1020.00      31.94
 64.77    1143.00      33.81
 64.87    1162.00      34.09
 64.97    1420.00      37.68
 65.07    1533.00      39.15
 65.17    1663.00      40.78
 65.27    1545.00      39.31
 65.37    1690.00      41.11
 65.47    1623.00      40.29
 65.57    1457.00      38.17
 65.67    1404.00      37.47
 65.77    1218.22      34.90
 65.87    1203.26      34.69
 65.97     976.00      31.24
 66.07    1011.56      31.80
 66.17     919.46      30.32
 66.27     878.82      29.64
 66.37     809.00      28.44
 66.47     736.00      27.13
 66.57     667.00      25.83
 66.67     687.00      26.21
 66.77     719.00      26.81
 66.87     713.00      26.70
 66.97     703.00      26.51
 67.07     720.14      26.84
 67.17     695.00      26.36
 67.27     792.81      28.16
 67.37     756.80      27.51
 67.47     783.12      27.98
 67.57     764.00      27.64
 67.67     796.77      28.23
 67.77     846.00      29.09
 67.87    1007.97      31.75
 67.97    1121.36      33.49
 68.07    1276.00      35.72
 68.17    1535.47      39.19
 68.27    1733.00      41.63
 68.37    1977.00      44.46
 68.47    2299.00      47.95
 68.57    2499.00      49.99
 68.67    2608.00      51.07
 68.77    2573.00      50.72
 68.87    2527.00      50.27
 68.97    2358.00      48.56
 69.07    2145.00      46.31
 69.17    1862.34      43.15
 69.27    1567.00      39.59
 69.37    1363.00      36.92
 69.47    1181.00      34.37
 69.57    1025.66      32.03
 69.67     888.06      29.80
 69.77     845.51      29.08
 69.87     831.82      28.84
 69.97     806.00      28.39
 70.07     762.90      27.62
 70.17     749.00      27.37
 70.27     773.00      27.80
 70.37     672.79      25.94
 70.47     769.00      27.73
 70.57     713.00      26.70
 70.67     732.57      27.07
 70.77     752.32      27.43
 70.87     736.00      27.13
 70.97     723.00      26.89
 71.07     718.00      26.80
 71.17     698.00      26.42
 71.27     741.00      27.22
 71.37     699.66      26.45
 71.47     748.00      27.35
 71.57     756.00      27.50
 71.67     834.00      28.88
 71.77     941.00      30.68
 71.87     989.00      31.45
 71.97    1119.87      33.46
 72.07    1184.00      34.41
 72.17    1378.00      37.12
 72.27    1487.00      38.56
 72.37    1667.00      40.83
 72.47    1839.00      42.88
 72.57    2075.00      45.55
 72.67    2062.00      45.41
 72.77    2004.00      44.77
 72.87    1940.00      44.05
 72.97    1857.21      43.10
 73.07    1744.81      41.77
 73.17    1565.37      39.56
 73.27    1373.00      37.05
 73.37    1174.00      34.26
 73.47    1040.69      32.26
 73.57    1025.00      32.02
 73.67     884.88      29.75
 73.77     835.00      28.90
 73.87     755.00      27.48
 73.97     764.00      27.64
 74.07     732.00      27.06
 74.17     747.00      27.33
 74.27     698.00      26.42
 74.37     708.00      26.61
 74.47     706.00      26.57
 74.57     717.00      26.78
 74.67     665.00      25.79
 74.77     685.38      26.18
 74.87     704.00      26.53
 74.97     665.00      25.79
 75.07     668.06      25.85
 75.17     709.00      26.63
 75.27     736.00      27.13
 75.37     832.00      28.84
 75.47     741.00      27.22
 75.57     706.00      26.57
 75.67     732.36      27.06
 75.77     647.12      25.44
 75.87     687.00      26.21
 75.97     775.00      27.84
 76.07     700.99      26.48
 76.17     701.00      26.48
 76.27     749.00      27.37
 76.37     743.00      27.26
 76.47     736.00      27.13
 76.57     787.00      28.05
 76.67     875.00      29.58
 76.77     882.00      29.70
 76.87     911.00      30.18
 76.97     949.00      30.81
 77.07    1050.79      32.42
 77.17    1029.03      32.08
 77.27    1087.00      32.97
 77.37    1082.00      32.89
 77.47    1090.11      33.02
 77.57     983.29      31.36
 77.67     924.41      30.40
 77.77     936.00      30.59
 77.87     870.00      29.50
 77.97     829.00      28.79
 78.07     755.00      27.48
 78.17     764.00      27.64
 78.27     719.00      26.81
 78.37     679.00      26.06
 78.47     686.35      26.20
 78.57     670.00      25.88
 78.67     642.13      25.34
 78.77     656.96      25.63
 78.87     667.00      25.83
 78.97     630.00      25.10
 79.07     680.46      26.09
 79.17     641.00      25.32
 79.27     618.00      24.86
 79.37     648.00      25.46
 79.47     637.00      25.24
 79.57     673.58      25.95
 79.67     664.14      25.77
 79.77     603.00      24.56
 79.87     642.14      25.34
 79.97     632.00      25.14
 80.07     654.78      25.59
 80.17     613.97      24.78
 80.27     641.00      25.32
 80.37     693.00      26.32
 80.47     653.00      25.55
 80.57     690.00      26.27
 80.67     774.00      27.82
 80.77     730.51      27.03
 80.87     892.00      29.87
 80.97     920.00      30.33
 81.07     960.00      30.98
 81.17    1064.00      32.62
 81.27    1251.00      35.37
 81.37    1253.90      35.41
 81.47    1359.00      36.86
 81.57    1432.00      37.84
 81.67    1591.00      39.89
 81.77    1597.00      39.96
 81.87    1615.00      40.19
 81.97    1548.00      39.34
 82.07    1447.24      38.04
 82.17    1478.00      38.44
 82.27    1348.00      36.72
 82.37    1260.23      35.50
 82.47    1230.92      35.08
 82.57    1105.52      33.25
 82.67    1062.00      32.59
 82.77    1018.00      31.91
 82.87     914.00      30.23
 82.97     893.88      29.90
 83.07     798.00      28.25
 83.17     736.00      27.13
 83.27     751.92      27.42
 83.37     718.00      26.80
 83.47     774.75      27.83
 83.57     666.00      25.81
 83.67     663.00      25.75
 83.77     657.00      25.63
 83.87     735.16      27.11
 83.97     666.00      25.81
 84.07     675.00      25.98
 84.17     657.00      25.63
 84.27     655.77      25.61
 84.37     651.89      25.53
 84.47     757.24      27.52
 84.57     756.00      27.50
 84.67     721.18      26.85
 84.77     684.00      26.15
 84.87     697.42      26.41
 84.97     658.00      25.65
 85.07     670.03      25.89
 85.17     750.40      27.39
 85.27     686.00      26.19
 85.37     698.05      26.42
 85.47     714.73      26.73
 85.57     637.00      25.24
 85.67     690.02      26.27
 85.77     643.00      25.36
 85.87     682.44      26.12
 85.97     626.00      25.02
 86.07     634.00      25.18
 86.17     638.00      25.26
 86.27     597.85      24.45
 86.37     607.00      24.64
 86.47     630.00      25.10
 86.57     633.44      25.17
 86.67     722.00      26.87
 86.77     677.29      26.02
 86.87     676.00      26.00
 86.97     690.52      26.28
 87.07     691.00      26.29
 87.17     645.59      25.41
 87.27     733.00      27.07
 87.37     649.23      25.48
 87.47     698.00      26.42
 87.57     692.00      26.31
 87.67     705.56      26.56
 87.77     670.21      25.89
 87.87     752.00      27.42
 87.97     743.00      27.26
 88.07     749.00      27.37
 88.17     738.00      27.17
 88.27     806.00      28.39
 88.37     752.00      27.42
 88.47     721.84      26.87
 88.57     738.00      27.17
 88.67     795.00      28.20
 88.77     712.00      26.68
 88.87     711.31      26.67
 88.97     679.00      26.06
 89.07     670.08      25.89
 89.17     715.00      26.74
 89.27     640.00      25.30
 89.37     694.00      26.34
 89.47     694.00      26.34
 89.57     690.00      26.27
 89.67     669.00      25.87
 89.77     628.19      25.06
 89.87     649.00      25.48
 89.97     726.00      26.94
 90.07     749.00      27.37
 90.17     691.00      26.29
 90.27     680.00      26.08
 90.37     708.00      26.61
 90.47     686.84      26.21
 90.57     695.00      26.36
 90.67     672.00      25.92
 90.77     680.00      26.08
 90.87     632.00      25.14
 90.97     557.00      23.60
 91.07     677.90      26.04
 91.17     657.19      25.64
 91.27     680.00      26.08
 91.37     625.00      25.00
 91.47     578.94      24.06
 91.57     596.00      24.41
 91.67     635.97      25.22
 91.77     623.85      24.98
 91.87     594.00      24.37
 91.97     606.00      24.62
 92.07     562.26      23.71
 92.17     576.00      24.00
 92.27     634.00      25.18
 92.37     571.00      23.90
 92.47     608.00      24.66
 92.57     619.78      24.90
 92.67     610.00      24.70
 92.77     580.00      24.08
 92.87     659.00      25.67
 92.97     647.00      25.44
 93.07     665.00      25.79
 93.17     681.00      26.10
 93.27     642.00      25.34
 93.37     645.90      25.41
 93.47     687.00      26.21
 93.57     734.09      27.09
 93.67     736.47      27.14
 93.77     748.00      27.35
 93.87     808.68      28.44
 93.97     776.32      27.86
 94.07     842.00      29.02
 94.17     906.88      30.11
 94.27     845.00      29.07
 94.37     859.99      29.33
 94.47     926.00      30.43
 94.57     897.00      29.95
 94.67     861.00      29.34
 94.77     902.11      30.04
 94.87     974.00      31.21
 94.97    1032.00      32.12
 95.07     940.28      30.66
 95.17     977.81      31.27
 95.27    1089.85      33.01
 95.37     990.60      31.47
 95.47    1036.26      32.19
 95.57    1083.00      32.91
 95.67    1082.00      32.89
 95.77    1036.53      32.20
 95.87    1113.00      33.36
 95.97    1061.00      32.57
 96.07    1045.00      32.33
 96.17    1023.00      31.98
 96.27     935.57      30.59
 96.37     926.53      30.44
 96.47     905.00      30.08
 96.57     956.00      30.92
 96.67     865.00      29.41
 96.77     821.65      28.66
 96.87     851.00      29.17
 96.97     802.19      28.32
 97.07     836.68      28.93
 97.17     859.00      29.31
 97.27     906.00      30.10
 97.37     960.00      30.98
 97.47    1015.98      31.87
 97.57    1041.00      32.26
 97.67    1109.00      33.30
 97.77    1112.52      33.35
 97.87    1254.13      35.41
 97.97    1318.28      36.31
 98.07    1320.00      36.33
 98.17    1404.33      37.47
 98.27    1442.28      37.98
 98.37    1595.70      39.95
 98.47    1589.00      39.86
 98.57    1594.00      39.92
 98.67    1677.44      40.96
 98.77    1634.00      40.42
 98.87    1562.00      39.52
 98.97    1404.00      37.47
 99.07    1425.00      37.75
 99.17    1398.11      37.39
 99.27    1305.00      36.12
 99.37    1242.00      35.24
 99.47    1131.60      33.64
 99.57    1102.01      33.20
 99.67    1059.00      32.54
 99.77    1009.54      31.77
 99.87    1013.00      31.83
 99.97    1009.00      31.76
100.07    1020.00      31.94
100.17    1047.00      32.36
100.27     993.00      31.51
100.37    1120.00      33.47
100.47    1133.52      33.67
100.57    1239.00      35.20
100.67    1345.00      36.67
100.77    1379.71      37.14
100.87    1540.00      39.24
100.97    1510.31      38.86
101.07    1709.00      41.34
101.17    1707.66      41.32
101.27    1870.06      43.24
101.37    1978.00      44.47
101.47    1963.00      44.31
101.57    2029.58      45.05
101.67    2149.01      46.36
101.77    2125.97      46.11
101.87    2222.13      47.14
101.97    2076.00      45.56
102.07    2103.55      45.86
102.17    2070.00      45.50
102.27    2104.75      45.88
102.37    2014.90      44.89
102.47    1937.19      44.01
102.57    1819.00      42.65
102.67    1875.41      43.31
102.77    1763.00      41.99
102.87    1652.00      40.64
102.97    1576.00      39.70
103.07    1544.00      39.29
103.17    1517.89      38.96
103.27    1386.39      37.23
103.37    1374.00      37.07
103.47    1359.00      36.86
103.57    1288.98      35.90
103.67    1358.00      36.85
103.77    1191.00      34.51
103.87    1215.00      34.86
103.97    1124.00      33.53
104.07    1150.00      33.91
104.17    1116.00      33.41
104.27    1103.00      33.21
104.37    1029.88      32.09
104.47     981.00      31.32
104.57     939.00      30.64
104.67     853.01      29.21
104.77     818.51      28.61
104.87     825.70      28.74
104.97     831.45      28.83
105.07     827.00      28.76
105.17     760.00      27.57
105.27     742.00      27.24
105.37     744.00      27.28
105.47     700.29      26.46
105.57     704.00      26.53
105.67     633.09      25.16
105.77     704.00      26.53
105.87     657.00      25.63
105.97     676.00      26.00
106.07     686.00      26.19
106.17     580.50      24.09
106.27     662.16      25.73
106.37     615.00      24.80
106.47     636.95      25.24
106.57     634.00      25.18
106.67     675.00      25.98
106.77     613.00      24.76
106.87     616.00      24.82
106.97     607.86      24.65
107.07     637.00      25.24
107.17     654.00      25.57
107.27     682.99      26.13
107.37     683.00      26.13
107.47     736.00      27.13
107.57     735.00      27.11
107.67     707.26      26.59
107.77     681.33      26.10
107.87     775.00      27.84
107.97     726.00      26.94
108.07     812.00      28.50
108.17     752.83      27.44
108.27     743.00      27.26
108.37     803.00      28.34
108.47     857.00      29.27
108.57     743.00      27.26
108.67     805.00      28.37
108.77     798.00      28.25
108.87     835.00      28.90
108.97     783.00      27.98
109.07     800.00      28.28
109.17     814.00      28.53
109.27     760.00      27.57
109.37     816.87      28.58
109.47     746.00      27.31
109.57     821.76      28.67
109.67     725.00      26.93
109.77     753.14      27.44
109.87     827.22      28.76
109.97     818.73      28.61
110.07     755.98      27.50
110.17     809.00      28.44
110.27     815.00      28.55
110.37     787.00      28.05
110.47     751.42      27.41
110.57     833.75      28.87
110.67     777.00      27.87
110.77     793.00      28.16
110.87     727.50      26.97
110.97     793.87      28.18
111.07     754.00      27.46
111.17     676.32      26.01
111.27     729.00      27.00
111.37     677.78      26.03
111.47     706.00      26.57
111.57     653.19      25.56
111.67     657.16      25.64
111.77     691.65      26.30
111.87     634.00      25.18
111.97     646.00      25.42
112.07     658.00      25.65
112.17     592.99      24.35
112.27     595.29      24.40
112.37     613.63      24.77
112.47     625.00      25.00
112.57     600.42      24.50
112.67     656.00      25.61
112.77     642.00      25.34
112.87     588.85      24.27
112.97     638.00      25.26
113.07     656.34      25.62
113.17     620.00      24.90
113.27     642.00      25.34
113.37     638.00      25.26
113.47     606.00      24.62
113.57     623.06      24.96
113.67     596.00      24.41
113.77     621.00      24.92
113.87     630.30      25.11
113.97     618.00      24.86
114.07     629.00      25.08
114.17     702.00      26.50
114.27     672.00      25.92
114.37     705.00      26.55
114.47     651.76      25.53
114.57     709.00      26.63
114.67     700.00      26.46
114.77     782.85      27.98
114.87     719.81      26.83
114.97     737.00      27.15
115.07     833.00      28.86
115.17     886.00      29.77
115.27     866.00      29.43
115.37    1013.00      31.83
115.47    1024.00      32.00
115.57    1206.00      34.73
115.67    1202.00      34.67
115.77    1400.00      37.42
115.87    1451.84      38.10
115.97    1599.00      39.99
116.07    1790.00      42.31
116.17    2105.00      45.88
116.27    2340.00      48.37
116.37    2511.57      50.12
116.47    2969.00      54.49
116.57    3253.00      57.04
116.67    3434.00      58.60
116.77    3736.00      61.12
116.87    4066.66      63.77
116.97    4701.43      68.57
117.07    4987.81      70.62
117.17    5322.00      72.95
117.27    5819.00      76.28
117.37    6136.00      78.33
117.47    6626.94      81.41
117.57    6732.66      82.05
117.67    7160.00      84.62
117.77    7259.00      85.20
117.87    7455.66      86.35
117.97    7425.78      86.17
118.07    7620.00      87.29
118.17    7714.00      87.83
118.27    7553.26      86.91
118.37    7210.00      84.91
118.47    7048.00      83.95
118.57    6874.68      82.91
118.67    6460.38      80.38
118.77    6240.20      78.99
118.87    5910.97      76.88
118.97    5303.00      72.82
119.07    4976.05      70.54
119.17    4642.00      68.13
119.27    4202.00      64.82
119.37    3985.32      63.13
119.47    3508.66      59.23
119.57    3352.06      57.90
119.67    2867.83      53.55
119.77    2698.00      51.94
119.87    2467.00      49.67
119.97    2160.00      46.48
120.07    2056.66      45.35
120.17    1858.00      43.10
120.27    1631.00      40.39
120.37    1549.00      39.36
120.47    1422.00      37.71
120.57    1269.95      35.64
120.67    1252.59      35.39
120.77    1135.44      33.70
120.87    1122.00      33.50
120.97    1071.00      32.73
121.07     895.98      29.93
121.17     919.00      30.32
121.27     930.00      30.50
121.37     889.07      29.82
121.47     790.13      28.11
121.57     795.00      28.20
121.67     796.00      28.21
121.77     727.02      26.96
121.87     763.00      27.62
121.97     729.54      27.01
122.07     771.80      27.78
122.17     744.18      27.28
122.27     690.52      26.28
122.37     722.00      26.87
122.47     733.00      27.07
122.57     707.00      26.59
122.67     659.00      25.67
122.77     720.72      26.85
122.87     728.00      26.98
122.97     777.01      27.87
123.07     728.92      27.00
123.17     691.00      26.29
123.27     799.28      28.27
123.37     756.00      27.50
123.47     699.00      26.44
123.57     703.00      26.51
123.67     734.32      27.10
123.77     762.00      27.60
123.87     767.00      27.69
123.97     734.01      27.09
124.07     787.00      28.05
124.17     785.00      28.02
124.27     849.00      29.14
124.37     844.00      29.05
124.47     876.00      29.60
124.57     819.00      28.62
124.67     865.00      29.41
124.77     727.95      26.98
124.87     827.00      28.76
124.97     762.77      27.62
