  9.97     673.49      25.95
 10.07     752.00      27.42
 10.17     705.47      26.56
 10.27     702.38      26.50
 10.37     708.00      26.61
 10.47     737.00      27.15
 10.57     690.00      26.27
 10.67     687.64      26.22
 10.77     695.00      26.36
 10.87     671.63      25.92
 10.97     747.97      27.35
 11.07     713.00      26.70
 11.17     713.00      26.70
 11.27     717.00      26.78
 11.37     717.00      26.78
 11.47     726.26      26.95
 11.57     649.84      25.49
 11.67     761.00      27.59
 11.77     739.00      27.18
 11.87     735.69      27.12
 11.97     691.22      26.29
 12.07     815.00      28.55
 12.17     818.25      28.61
 12.27     824.56      28.72
 12.37     819.30      28.62
 12.47     802.00      28.32
 12.57     771.16      27.77
 12.67     740.00      27.20
 12.77     720.00      26.83
 12.87     643.66      25.37
 12.97     689.00      26.25
 13.07     692.34      26.31
 13.17     668.65      25.86
 13.27     671.00      25.90
 13.37     669.00      25.87
 13.47     639.00      25.28
 13.57     627.60      25.05
 13.67     688.89      26.25
 13.77     714.00      26.72
 13.87     669.39      25.87
 13.97     664.00      25.77
 14.07     696.00      26.38
 14.17     667.00      25.83
 14.27     707.12      26.59
 14.37     709.00      26.63
 14.47     687.00      26.21
 14.57     649.00      25.48
 14.67     636.00      25.22
 14.77     619.45      24.89
 14.87     651.00      25.51
 14.97     636.64      25.23
 15.07     686.20      26.20
 15.17     632.00      25.14
 15.27     659.00      25.67
 15.37     626.00      25.02
 15.47     645.00      25.40
 15.57     600.00      24.49
 15.67     702.37      26.50
 15.77     650.87      25.51
 15.87     612.88      24.76
 15.97     646.00      25.42
 16.07     655.60      25.60
 16.17     644.00      25.38
 16.27     623.83      24.98
 16.37     700.25      26.46
 16.47     664.88      25.79
 16.57     686.25      26.20
 16.67     664.00      25.77
 16.77     664.54      25.78
 16.87     655.29      25.60
 16.97     585.00      24.19
 17.07     654.42      25.58
 17.17     681.80      26.11
 17.27     630.01      25.10
 17.37     661.00      25.71
 17.47     599.07      24.48
 17.57     635.00      25.20
 17.67     590.80      24.31
 17.77     691.30      26.29
 17.87     620.02      24.90
 17.97     620.00      24.90
 18.07     671.42      25.91
 18.17     600.00      24.49
 18.27     606.00      24.62
 18.37     621.00      24.92
 18.47     631.00      25.12
 18.57     629.00      25.08
 18.67     662.24      25.73
 18.77     649.00      25.48
 18.87     639.64      25.29
 18.97     569.00      23.85
 19.07     656.33      25.62
 19.17     650.00      25.50
 19.27     624.98      25.00
 19.37     612.18      24.74
 19.47     588.00      24.25
 19.57     610.00      24.70
 19.67     593.00      24.35
 19.77     624.68      24.99
 19.87     617.89      24.86
 19.97     572.00      23.92
 20.07     607.00      24.64
 20.17     602.66      24.55
 20.27     595.68      24.41
 20.37     606.10      24.62
 20.47     587.85      24.25
 20.57     607.00      24.64
 20.67     606.41      24.63
 20.77     598.00      24.45
 20.87     646.00      25.42
 20.97     597.00      24.43
 21.07     609.00      24.68
 21.17     674.21      25.97
 21.27     582.00      24.12
 21.37     627.00      25.04
 21.47     636.00      25.22
 21.57     618.00      24.86
 21.67     645.00      25.40
 21.77     627.00      25.04
 21.87     600.00      24.49
 21.97     596.00      24.41
 22.07     615.00      24.80
 22.17     601.80      24.53
 22.27     595.00      24.39
 22.37     639.00      25.28
 22.47     648.07      25.46
 22.57     590.00      24.29
 22.67     603.00      24.56
 22.77     599.00      24.47
 22.87     623.00      24.96
 22.97     637.00      25.24
 23.07     656.08      25.61
 23.17     591.52      24.32
 23.27     621.00      24.92
 23.37     657.00      25.63
 23.47     611.38      24.73
 23.57     605.40      24.60
 23.67     609.00      24.68
 23.77     641.00      25.32
 23.87     621.00      24.92
 23.97     590.26      24.30
 24.07     668.00      25.85
 24.17     617.00      24.84
 24.27     651.00      25.51
 24.37     653.00      25.55
 24.47     630.00      25.10
 24.57     690.11      26.27
 24.67     685.72      26.19
 24.77     672.00      25.92
 24.87     671.40      25.91
 24.97     746.00      27.31
 25.07     706.00      26.57
 25.17     676.63      26.01
 25.27     644.00      25.38
 25.37     667.73      25.84
 25.47     665.00      25.79
 25.57     663.00      25.75
 25.67     630.00      25.10
 25.77     659.00      25.67
 25.87     609.00      24.68
 25.97     597.00      24.43
 26.07     590.09      24.29
 26.17     677.00      26.02
 26.27     630.00      25.10
 26.37     663.79      25.76
 26.47     646.00      25.42
 26.57     692.00      26.31
 26.67     618.00      24.86
 26.77     667.00      25.83
 26.87     696.00      26.38
 26.97     663.00      25.75
 27.07     652.00      25.53
 27.17     689.10      26.25
 27.27     679.00      26.06
 27.37     698.36      26.43
 27.47     759.58      27.56
 27.57     801.00      28.30
 27.67     823.00      28.69
 27.77     920.00      30.33
 27.87    1056.04      32.50
 27.97    1305.00      36.12
 28.07    1847.00      42.98
 28.17    3407.77      58.38
 28.27    5186.32      72.02
 28.37    6631.00      81.43
 28.47    7404.00      86.05
 28.57    6706.00      81.89
 28.67    4866.00      69.76
 28.77    3553.00      59.61
 28.87    3139.00      56.03
 28.97    3315.60      57.58
 29.07    3944.00      62.80
 29.17    4193.69      64.76
 29.27    3555.13      59.62
 29.37    2824.02      53.14
 29.47    1931.61      43.95
 29.57    1398.00      37.39
 29.67    1051.00      32.42
 29.77     965.00      31.06
 29.87     837.00      28.93
 29.97     824.00      28.71
 30.07     817.00      28.58
 30.17     669.31      25.87
 30.27     705.54      26.56
 30.37     694.52      26.35
 30.47     621.70      24.93
 30.57     623.62      24.97
 30.67     692.58      26.32
 30.77     702.00      26.50
 30.87     710.00      26.65
 30.97     684.94      26.17
 31.07     708.69      26.62
 31.17     773.00      27.80
 31.27     729.08      27.00
 31.37     695.40      26.37
 31.47     718.00      26.80
 31.57     668.53      25.86
 31.67     689.00      26.25
 31.77     715.00      26.74
 31.87     639.00      25.28
 31.97     642.00      25.34
 32.07     694.00      26.34
 32.17     653.00      25.55
 32.27     649.00      25.48
 32.37     621.11      24.92
 32.47     645.00      25.40
 32.57     576.69      24.01
 32.67     651.00      25.51
 32.77     666.00      25.81
 32.87     643.00      25.36
 32.97     662.00      25.73
 33.07     655.00      25.59
 33.17     663.00      25.75
 33.27     620.88      24.92
 33.37     650.00      25.50
 33.47     586.94      24.23
 33.57     667.52      25.84
 33.67     606.22      24.62
 33.77     691.00      26.29
 33.87     739.00      27.18
 33.97     905.99      30.10
 34.07     931.99      30.53
 34.17    1073.31      32.76
 34.27    1227.01      35.03
 34.37    1156.52      34.01
 34.47    1070.00      32.71
 34.57    1012.00      31.81
 34.67     849.29      29.14
 34.77     732.00      27.06
 34.87     724.35      26.91
 34.97     612.94      24.76
 35.07     669.43      25.87
 35.17     653.00      25.55
 35.27     649.13      25.48
 35.37     624.00      24.98
 35.47     612.98      24.76
 35.57     613.00      24.76
 35.67     646.00      25.42
 35.77     611.17      24.72
 35.87     630.95      25.12
 35.97     595.47      24.40
 36.07     646.00      25.42
 36.17     571.00      23.90
 36.27     628.00      25.06
 36.37     624.00      24.98
 36.47     547.25      23.39
 36.57     574.15      23.96
 36.67     590.00      24.29
 36.77     599.00      24.47
 36.87     607.00      24.64
 36.97     590.49      24.30
 37.07     626.00      25.02
 37.17     592.00      24.33
 37.27     601.00      24.52
 37.37     612.81      24.76
 37.47     614.00      24.78
 37.57     613.00      24.76
 37.67     576.00      24.00
 37.77     623.00      24.96
 37.87     658.00      25.65
 37.97     698.19      26.42
 38.07     691.00      26.29
 38.17     736.35      27.14
 38.27     691.81      26.30
 38.37     708.00      26.61
 38.47     755.84      27.49
 38.57     703.48      26.52
 38.67     644.00      25.38
 38.77     624.00      24.98
 38.87     592.00      24.33
 38.97     596.51      24.42
 39.07     621.00      24.92
 39.17     586.00      24.21
 39.27     560.00      23.66
 39.37     572.00      23.92
 39.47     599.00      24.47
 39.57     612.77      24.75
 39.67     614.00      24.78
 39.77     566.68      23.80
 39.87     636.00      25.22
 39.97     581.04      24.10
 40.07     575.00      23.98
 40.17     571.82      23.91
 40.27     622.81      24.96
 40.37     534.62      23.12
 40.47     569.15      23.86
 40.57     612.83      24.76
 40.67     563.00      23.73
 40.77     582.00      24.12
 40.87     583.16      24.15
 40.97     575.00      23.98
 41.07     606.00      24.62
 41.17     589.00      24.27
 41.27     588.44      24.26
 41.37     594.00      24.37
 41.47     542.00      23.28
 41.57     566.00      23.79
 41.67     554.07      23.54
 41.77     554.00      23.54
 41.87     584.00      24.17
 41.97     581.00      24.10
 42.07     554.74      23.55
 42.17     543.00      23.30
 42.27     582.00      24.12
 42.37     603.00      24.56
 42.47     590.00      24.29
 42.57     575.22      23.98
 42.67     663.00      25.75
 42.77     619.00      24.88
 42.87     637.00      25.24
 42.97     685.00      26.17
 43.07     714.75      26.73
 43.17     695.88      26.38
 43.27     685.23      26.18
 43.37     640.85      25.32
 43.47     623.00      24.96
 43.57     655.75      25.61
 43.67     606.00      24.62
 43.77     617.67      24.85
 43.87     549.00      23.43
 43.97     540.60      23.25
 44.07     557.00      23.60
 44.17     544.03      23.32
 44.27     586.00      24.21
 44.37     547.91      23.41
 44.47     611.00      24.72
 44.57     643.00      25.36
 44.67     597.00      24.43
 44.77     579.00      24.06
 44.87     557.00      23.60
 44.97     554.28      23.54
 45.07     581.18      24.11
 45.17     604.00      24.58
 45.27     552.00      23.49
 45.37     606.00      24.62
 45.47     585.22      24.19
 45.57     559.00      23.64
 45.67     635.36      25.21
 45.77     570.00      23.87
 45.87     604.87      24.59
 45.97     600.00      24.49
 46.07     576.00      24.00
 46.17     640.00      25.30
 46.27     542.00      23.28
 46.37     543.00      23.30
 46.47     606.43      24.63
 46.57     568.13      23.84
 46.67     585.00      24.19
 46.77     570.00      23.87
 46.87     582.03      24.13
 46.97     567.00      23.81
 47.07     573.00      23.94
 47.17     613.36      24.77
 47.27     621.00      24.92
 47.37     608.00      24.66
 47.47     607.07      24.64
 47.57     581.00      24.10
 47.67     587.00      24.23
 47.77     602.00      24.54
 47.87     640.59      25.31
 47.97     677.70      26.03
 48.07     667.00      25.83
 48.17     673.00      25.94
 48.27     678.00      26.04
 48.37     638.50      25.27
 48.47     678.00      26.04
 48.57     670.00      25.88
 48.67     602.00      24.54
 48.77     588.58      24.26
 48.87     644.54      25.39
 48.97     624.00      24.98
 49.07     568.00      23.83
 49.17     619.00      24.88
 49.27     667.95      25.84
 49.37     614.00      24.78
 49.47     635.00      25.20
 49.57     675.00      25.98
 49.67     679.00      26.06
 49.77     796.00      28.21
 49.87     808.00      28.43
 49.97     984.00      31.37
 50.07    1176.00      34.29
 50.17    1578.00      39.72
 50.27    2062.00      45.41
 50.37    2572.00      50.71
 50.47    2855.00      53.43
 50.57    3059.00      55.31
 50.67    2928.00      54.11
 50.77    2602.00      51.01
 50.87    2047.22      45.25
 50.97    1693.39      41.15
 51.07    1265.00      35.57
 51.17    1064.00      32.62
 51.27     897.40      29.96
 51.37     767.12      27.70
 51.47     795.00      28.20
 51.57     737.00      27.15
 51.67     724.00      26.91
 51.77     663.87      25.77
 51.87     692.00      26.31
 51.97     720.00      26.83
 52.07     692.00      26.31
 52.17     670.00      25.88
 52.27     636.58      25.23
 52.37     650.00      25.50
 52.47     712.00      26.68
 52.57     713.00      26.70
 52.67     627.00      25.04
 52.77     702.81      26.51
 52.87     690.00      26.27
 52.97     665.00      25.79
 53.07     683.00      26.13
 53.17     728.00      26.98
 53.27     686.34      26.20
 53.37     796.00      28.21
 53.47     808.33      28.43
 53.57    1000.00      31.62
 53.67    1091.00      33.03
 53.77    1221.00      34.94
 53.87    1271.00      35.65
 53.97    1279.82      35.77
 54.07    1251.45      35.38
 54.17    1184.00      34.41
 54.27    1096.70      33.12
 54.37     931.00      30.51
 54.47     825.41      28.73
 54.57     847.02      29.10
 54.67     702.00      26.50
 54.77     657.29      25.64
 54.87     728.91      27.00
 54.97     687.00      26.21
 55.07     723.00      26.89
 55.17     669.00      25.87
 55.27     658.00      25.65
 55.37     705.00      26.55
 55.47     697.00      26.40
 55.57     687.00      26.21
 55.67     673.00      25.94
 55.77     670.00      25.88
 55.87     710.00      26.65
 55.97     650.00      25.50
 56.07     670.00      25.88
 56.17     684.00      26.15
 56.27     753.77      27.45
 56.37     752.00      27.42
 56.47     895.32      29.92
 56.57     942.00      30.69
 56.67    1057.00      32.51
 56.77    1286.59      35.87
 56.87    1526.00      39.06
 56.97    1898.57      43.57
 57.07    2193.00      46.83
 57.17    2551.00      50.51
 57.27    2696.00      51.92
 57.37    2550.00      50.50
 57.47    2541.00      50.41
 57.57    2127.90      46.13
 57.67    1858.00      43.10
 57.77    1522.00      39.01
 57.87    1292.00      35.94
 57.97    1059.00      32.54
 58.07     940.00      30.66
 58.17     894.91      29.91
 58.27     768.00      27.71
 58.37     827.04      28.76
 58.47     784.00      28.00
 58.57     831.00      28.83
 58.67     898.78      29.98
 58.77     949.46      30.81
 58.87     963.00      31.03
 58.97    1018.00      31.91
 59.07    1196.00      34.58
 59.17    1209.00      34.77
 59.27    1317.00      36.29
 59.37    1299.31      36.05
 59.47    1326.00      36.41
 59.57    1232.00      35.10
 59.67    1357.00      36.84
 59.77    1286.00      35.86
 59.87    1297.00      36.01
 59.97    1275.00      35.71
 60.07    1234.00      35.13
 60.17    1291.00      35.93
 60.27    1363.00      36.92
 60.37    1361.52      36.90
 60.47    1503.00      38.77
 60.57    1606.00      40.07
 60.67    1583.00      39.79
 60.77    1565.00      39.56
 60.87    1530.00      39.12
 60.97    1350.00      36.74
 61.07    1279.29      35.77
 61.17    1107.00      33.27
 61.27     932.63      30.54
 61.37     860.00      29.33
 61.47     869.00      29.48
 61.57     846.79      29.10
 61.67     804.00      28.35
 61.77     855.96      29.26
 61.87     868.40      29.47
 61.97     869.00      29.48
 62.07    1054.89      32.48
 62.17    1158.00      34.03
 62.27    1270.00      35.64
 62.37    1400.00      37.42
 62.47    1581.00      39.76
 62.57    1661.95      40.77
 62.67    1776.67      42.15
 62.77    1648.00      40.60
 62.87    1530.00      39.12
 62.97    1453.00      38.12
 63.07    1196.47      34.59
 63.17    1049.00      32.39
 63.27     943.00      30.71
 63.37     918.69      30.31
 63.47     802.00      28.32
 63.57     757.00      27.51
 63.67     691.68      26.30
 63.77     711.92      26.68
 63.87     757.00      27.51
 63.97     647.71      25.45
 64.07     706.38      26.58
 64.17     734.00      27.09
 64.27     731.80      27.05
 64.37     796.00      28.21
 64.47     850.75      29.17
 64.57     972.70      31.19
 64.67    1039.00      32.23
 64.77    1094.00      33.08
 64.87    1242.00      35.24
 64.97    1337.00      36.57
 65.07    1343.51      36.65
 65.17    1414.79      37.61
 65.27    1498.22      38.71
 65.37    1562.00      39.52
 65.47    1390.00      37.28
 65.57    1255.00      35.43
 65.67    1177.00      34.31
 65.77    1064.00      32.62
 65.87     918.00      30.30
 65.97     916.68      30.28
 66.07     797.79      28.25
 66.17     809.34      28.45
 66.27     760.00      27.57
 66.37     690.38      26.28
 66.47     738.92      27.18
 66.57     745.02      27.30
 66.67     655.00      25.59
 66.77     677.00      26.02
 66.87     612.00      24.74
 66.97     611.00      24.72
 67.07     649.00      25.48
 67.17     680.77      26.09
 67.27     750.43      27.39
 67.37     701.47      26.49
 67.47     775.05      27.84
 67.57     844.00      29.05
 67.67     840.00      28.98
 67.77     904.00      30.07
 67.87    1040.00      32.25
 67.97    1179.00      34.34
 68.07    1426.00      37.76
 68.17    1664.00      40.79
 68.27    1955.66      44.22
 68.37    2123.74      46.08
 68.47    2412.31      49.12
 68.57    2516.00      50.16
 68.67    2559.00      50.59
 68.77    2385.00      48.84
 68.87    2377.00      48.75
 68.97    2000.53      44.73
 69.07    1863.00      43.16
 69.17    1546.79      39.33
 69.27    1339.00      36.59
 69.37    1155.00      33.99
 69.47    1059.00      32.54
 69.57     842.87      29.03
 69.67     880.99      29.68
 69.77     799.00      28.27
 69.87     800.00      28.28
 69.97     709.53      26.64
 70.07     738.09      27.17
 70.17     712.00      26.68
 70.27     640.35      25.31
 70.37     745.00      27.29
 70.47     698.00      26.42
 70.57     659.00      25.67
 70.67     625.13      25.00
 70.77     683.73      26.15
 70.87     690.00      26.27
 70.97     711.00      26.66
 71.07     674.00      25.96
 71.17     641.01      25.32
 71.27     703.00      26.51
 71.37     710.00      26.65
 71.47     746.00      27.31
 71.57     837.00      28.93
 71.67     842.00      29.02
 71.77     901.68      30.03
 71.87    1013.00      31.83
 71.97    1145.00      33.84
 72.07    1262.12      35.53
 72.17    1387.95      37.26
 72.27    1698.44      41.21
 72.37    1734.00      41.64
 72.47    1902.00      43.61
 72.57    1953.00      44.19
 72.67    1979.88      44.50
 72.77    1898.00      43.57
 72.87    1875.11      43.30
 72.97    1729.19      41.58
 73.07    1424.88      37.75
 73.17    1335.00      36.54
 73.27    1198.00      34.61
 73.37    1022.00      31.97
 73.47     963.83      31.05
 73.57     866.00      29.43
 73.67     847.00      29.10
 73.77     769.00      27.73
 73.87     722.00      26.87
 73.97     699.00      26.44
 74.07     695.00      26.36
 74.17     678.00      26.04
 74.27     680.27      26.08
 74.37     632.00      25.14
 74.47     647.00      25.44
 74.57     646.00      25.42
 74.67     595.00      24.39
 74.77     663.00      25.75
 74.87     644.00      25.38
 74.97     700.00      26.46
 75.07     664.00      25.77
 75.17     688.00      26.23
 75.27     635.00      25.20
 75.37     679.94      26.08
 75.47     746.00      27.31
 75.57     732.00      27.06
 75.67     668.00      25.85
 75.77     686.00      26.19
 75.87     735.00      27.11
 75.97     660.00      25.69
 76.07     640.00      25.30
 76.17     659.86      25.69
 76.27     622.00      24.94
 76.37     726.00      26.94
 76.47     734.98      27.11
 76.57     798.01      28.25
 76.67     803.00      28.34
 76.77     828.22      28.78
 76.87     894.00      29.90
 76.97     977.94      31.27
 77.07     965.00      31.06
 77.17     979.00      31.29
 77.27     982.00      31.34
 77.37     947.11      30.78
 77.47     945.00      30.74
 77.57     890.00      29.83
 77.67     864.00      29.39
 77.77     801.00      28.30
 77.87     776.22      27.86
 77.97     697.38      26.41
 78.07     693.00      26.32
 78.17     666.31      25.81
 78.27     638.84      25.28
 78.37     605.00      24.60
 78.47     636.00      25.22
 78.57     659.59      25.68
 78.67     601.00      24.52
 78.77     579.00      24.06
 78.87     633.28      25.17
 78.97     645.00      25.40
 79.07     561.17      23.69
 79.17     621.49      24.93
 79.27     622.00      24.94
 79.37     563.92      23.75
 79.47     603.00      24.56
 79.57     649.90      25.49
 79.67     593.00      24.35
 79.77     612.00      24.74
 79.87     618.00      24.86
 79.97     648.00      25.46
 80.07     627.00      25.04
 80.17     608.00      24.66
 80.27     623.00      24.96
 80.37     605.00      24.60
 80.47     675.00      25.98
 80.57     698.84      26.44
 80.67     770.21      27.75
 80.77     768.00      27.71
 80.87     815.00      28.55
 80.97     889.83      29.83
 81.07     952.00      30.85
 81.17    1000.35      31.63
 81.27    1164.00      34.12
 81.37    1115.54      33.40
 81.47    1289.00      35.90
 81.57    1309.93      36.19
 81.67    1343.00      36.65
 81.77    1322.30      36.36
 81.87    1296.08      36.00
 81.97    1331.09      36.48
 82.07    1202.72      34.68
 82.17    1206.02      34.73
 82.27    1194.00      34.55
 82.37    1075.52      32.80
 82.47    1015.00      31.86
 82.57     961.51      31.01
 82.67     891.63      29.86
 82.77     883.00      29.72
 82.87     772.00      27.78
 82.97     787.24      28.06
 83.07     745.12      27.30
 83.17     733.00      27.07
 83.27     760.56      27.58
 83.37     650.00      25.50
 83.47     659.75      25.69
 83.57     565.00      23.77
 83.67     585.00      24.19
 83.77     634.00      25.18
 83.87     625.00      25.00
 83.97     629.00      25.08
 84.07     687.97      26.23
 84.17     652.00      25.53
 84.27     594.00      24.37
 84.37     662.00      25.73
 84.47     663.00      25.75
 84.57     606.00      24.62
 84.67     722.20      26.87
 84.77     609.00      24.68
 84.87     712.93      26.70
 84.97     589.00      24.27
 85.07     644.00      25.38
 85.17     577.00      24.02
 85.27     610.05      24.70
 85.37     587.93      24.25
 85.47     633.00      25.16
 85.57     583.55      24.16
 85.67     629.00      25.08
 85.77     568.00      23.83
 85.87     660.00      25.69
 85.97     629.00      25.08
 86.07     574.00      23.96
 86.17     623.86      24.98
 86.27     613.63      24.77
 86.37     607.00      24.64
 86.47     623.00      24.96
 86.57     604.00      24.58
 86.67     636.00      25.22
 86.77     663.00      25.75
 86.87     594.41      24.38
 86.97     626.73      25.03
 87.07     595.32      24.40
 87.17     702.00      26.50
 87.27     680.19      26.08
 87.37     680.00      26.08
 87.47     676.78      26.01
 87.57     678.75      26.05
 87.67     760.00      27.57
 87.77     722.00      26.87
 87.87     717.37      26.78
 87.97     688.51      26.24
 88.07     734.00      27.09
 88.17     754.00      27.46
 88.27     676.69      26.01
 88.37     733.76      27.09
 88.47     657.00      25.63
 88.57     702.00      26.50
 88.67     715.00      26.74
 88.77     650.00      25.50
 88.87     660.00      25.69
 88.97     668.00      25.85
 89.07     690.00      26.27
 89.17     610.84      24.72
 89.27     691.00      26.29
 89.37     617.00      24.84
 89.47     653.00      25.55
 89.57     666.04      25.81
 89.67     699.09      26.44
 89.77     688.75      26.24
 89.87     659.00      25.67
 89.97     636.00      25.22
 90.07     636.09      25.22
 90.17     635.00      25.20
 90.27     660.89      25.71
 90.37     632.00      25.14
 90.47     647.00      25.44
 90.57     621.00      24.92
 90.67     662.50      25.74
 90.77     606.00      24.62
 90.87     672.69      25.94
 90.97     638.54      25.27
 91.07     574.51      23.97
 91.17     561.74      23.70
 91.27     556.00      23.58
 91.37     628.32      25.07
 91.47     624.44      24.99
 91.57     625.00      25.00
 91.67     592.00      24.33
 91.77     548.57      23.42
 91.87     591.66      24.32
 91.97     592.00      24.33
 92.07     565.00      23.77
 92.17     612.00      24.74
 92.27     574.50      23.97
 92.37     563.40      23.74
 92.47     642.00      25.34
 92.57     633.84      25.18
 92.67     618.75      24.87
 92.77     653.00      25.55
 92.87     640.00      25.30
 92.97     703.00      26.51
 93.07     652.00      25.53
 93.17     674.00      25.96
 93.27     671.00      25.90
 93.37     695.00      26.36
 93.47     686.52      26.20
 93.57     725.00      26.93
 93.67     728.00      26.98
 93.77     724.90      26.92
 93.87     837.08      28.93
 93.97     824.00      28.71
 94.07     842.00      29.02
 94.17     878.23      29.64
 94.27     806.98      28.41
 94.37     879.31      29.65
 94.47     884.00      29.73
 94.57     910.00      30.17
 94.67     942.00      30.69
 94.77     905.62      30.09
 94.87     891.00      29.85
 94.97     947.00      30.77
 95.07    1034.00      32.16
 95.17    1038.11      32.22
 95.27     977.00      31.26
 95.37    1006.00      31.72
 95.47    1020.00      31.94
 95.57     996.00      31.56
 95.67    1057.68      32.52
 95.77    1037.00      32.20
 95.87     978.37      31.28
 95.97    1003.00      31.67
 96.07     911.00      30.18
 96.17     876.00      29.60
 96.27     861.00      29.34
 96.37     954.00      30.89
 96.47     843.16      29.04
 96.57     851.00      29.17
 96.67     826.00      28.74
 96.77     818.00      28.60
 96.87     752.56      27.43
 96.97     839.00      28.97
 97.07     794.01      28.18
 97.17     891.00      29.85
 97.27     927.74      30.46
 97.37     996.00      31.56
 97.47    1094.00      33.08
 97.57    1060.65      32.57
 97.67    1123.91      33.52
 97.77    1313.00      36.24
 97.87    1362.51      36.91
 97.97    1376.00      37.09
 98.07    1445.00      38.01
 98.17    1506.31      38.81
 98.27    1559.28      39.49
 98.37    1561.82      39.52
 98.47    1662.00      40.77
 98.57    1556.00      39.45
 98.67    1490.00      38.60
 98.77    1472.00      38.37
 98.87    1384.00      37.20
 98.97    1302.47      36.09
 99.07    1322.59      36.37
 99.17    1280.00      35.78
 99.27    1138.59      33.74
 99.37    1133.00      33.66
 99.47    1079.34      32.85
 99.57    1101.46      33.19
 99.67     959.00      30.97
 99.77    1003.00      31.67
 99.87     960.00      30.98
 99.97    1058.39      32.53
100.07     999.00      31.61
100.17    1092.00      33.05
100.27    1043.61      32.30
100.37    1200.00      34.64
100.47    1258.00      35.47
100.57    1335.00      36.54
100.67    1311.93      36.22
100.77    1452.00      38.11
100.87    1520.39      38.99
100.97    1606.64      40.08
101.07    1781.00      42.20
101.17    1838.00      42.87
101.27    1858.85      43.11
101.37    2057.00      45.35
101.47    2015.09      44.89
101.57    2129.00      46.14
101.67    2234.00      47.27
101.77    2104.00      45.87
101.87    2169.67      46.58
101.97    2094.23      45.76
102.07    2080.60      45.61
102.17    1963.00      44.31
102.27    1908.00      43.68
102.37    1820.84      42.67
102.47    1628.00      40.35
102.57    1788.46      42.29
102.67    1543.00      39.28
102.77    1645.43      40.56
102.87    1435.00      37.88
102.97    1418.26      37.66
103.07    1312.00      36.22
103.17    1414.87      37.61
103.27    1274.00      35.69
103.37    1332.00      36.50
103.47    1236.00      35.16
103.57    1204.67      34.71
103.67    1175.00      34.28
103.77    1166.34      34.15
103.87    1220.44      34.93
103.97    1100.00      33.17
104.07    1006.00      31.72
104.17    1039.00      32.23
104.27     972.00      31.18
104.37     961.00      31.00
104.47     921.00      30.35
104.57     844.00      29.05
104.67     801.00      28.30
104.77     811.00      28.48
104.87     766.00      27.68
104.97     743.07      27.26
105.07     750.00      27.39
105.17     693.00      26.32
105.27     705.00      26.55
105.37     671.96      25.92
105.47     647.00      25.44
105.57     691.00      26.29
105.67     619.00      24.88
105.77     641.00      25.32
105.87     596.00      24.41
105.97     556.86      23.60
106.07     623.00      24.96
106.17     597.00      24.43
106.27     618.00      24.86
106.37     632.84      25.16
106.47     561.38      23.69
106.57     612.00      24.74
106.67     628.05      25.06
106.77     664.38      25.78
106.87     646.52      25.43
106.97     650.00      25.50
107.07     636.00      25.22
107.17     666.00      25.81
107.27     723.77      26.90
107.37     700.00      26.46
107.47     729.00      27.00
107.57     752.00      27.42
107.67     714.63      26.73
107.77     690.47      26.28
107.87     764.00      27.64
107.97     702.95      26.51
108.07     706.00      26.57
108.17     751.00      27.40
108.27     760.00      27.57
108.37     753.20      27.44
108.47     685.00      26.17
108.57     750.00      27.39
108.67     807.00      28.41
108.77     821.42      28.66
108.87     773.20      27.81
108.97     771.00      27.77
109.07     753.00      27.44
109.17     761.00      27.59
109.27     774.00      27.82
109.37     735.00      27.11
109.47     746.69      27.33
109.57     827.32      28.76
109.67     691.00      26.29
109.77     823.71      28.70
109.87     814.41      28.54
109.97     777.00      27.87
110.07     815.21      28.55
110.17     795.86      28.21
110.27     793.40      28.17
110.37     722.00      26.87
110.47     770.78      27.76
110.57     768.00      27.71
110.67     696.77      26.40
110.77     673.71      25.96
110.87     699.00      26.44
110.97     719.00      26.81
111.07     684.91      26.17
111.17     682.00      26.12
111.27     671.00      25.90
111.37     615.56      24.81
111.47     649.66      25.49
111.57     628.80      25.08
111.67     623.00      24.96
111.77     609.13      24.68
111.87     596.00      24.41
111.97     658.73      25.67
112.07     640.00      25.30
112.17     624.00      24.98
112.27     617.05      24.84
112.37     564.46      23.76
112.47     620.00      24.90
112.57     565.87      23.79
112.67     574.00      23.96
112.77     557.00      23.60
112.87     623.00      24.96
112.97     612.14      24.74
113.07     571.00      23.90
113.17     592.00      24.33
113.27     622.79      24.96
113.37     579.45      24.07
113.47     628.00      25.06
113.57     666.00      25.81
113.67     612.00      24.74
113.77     652.00      25.53
113.87     639.00      25.28
113.97     648.00      25.46
114.07     592.00      24.33
114.17     679.55      26.07
114.27     658.00      25.65
114.37     696.00      26.38
114.47     694.73      26.36
114.57     696.00      26.38
114.67     723.00      26.89
114.77     749.00      27.37
114.87     785.00      28.02
114.97     781.74      27.96
115.07     906.71      30.11
115.17     868.00      29.46
115.27     999.00      31.61
115.37    1046.00      32.34
115.47    1160.00      34.06
115.57    1269.00      35.62
115.67    1447.23      38.04
115.77    1529.00      39.10
115.87    1689.00      41.10
115.97    1974.00      44.43
116.07    2153.00      46.40
116.17    2390.00      48.89
116.27    2768.00      52.61
116.37    3014.00      54.90
116.47    3421.71      58.50
116.57    3580.00      59.83
116.67    3900.00      62.45
116.77    4449.29      66.70
116.87    4929.00      70.21
116.97    5206.77      72.16
117.07    5500.00      74.16
117.17    6109.13      78.16
117.27    6254.00      79.08
117.37    6575.30      81.09
117.47    6959.00      83.42
117.57    7150.28      84.56
117.67    7461.00      86.38
117.77    7538.70      86.83
117.87    7490.00      86.54
117.97    7559.00      86.94
118.07    7390.93      85.97
118.17    7021.00      83.79
118.27    6918.00      83.17
118.37    6588.00      81.17
118.47    6338.00      79.61
118.57    5954.00      77.16
118.67    5733.00      75.72
118.77    5391.00      73.42
118.87    4951.00      70.36
118.97    4588.00      67.73
119.07    4318.00      65.71
119.17    3862.72      62.15
119.27    3487.00      59.05
119.37    3277.00      57.25
119.47    2855.00      53.43
119.57    2641.00      51.39
119.67    2366.00      48.64
119.77    2014.24      44.88
119.87    1918.09      43.80
119.97    1770.00      42.07
120.07    1521.40      39.01
120.17    1480.42      38.48
120.27    1372.90      37.05
120.37    1261.00      35.51
120.47    1185.00      34.42
120.57    1122.43      33.50
120.67     947.07      30.77
120.77     974.95      31.22
120.87     856.00      29.26
120.97     880.00      29.66
121.07     881.00      29.68
121.17     853.76      29.22
121.27     846.00      29.09
121.37     773.00      27.80
121.47     781.00      27.95
121.57     709.00      26.63
121.67     739.10      27.19
121.77     701.00      26.48
121.87     681.51      26.11
121.97     697.00      26.40
122.07     653.00      25.55
122.17     717.00      26.78
122.27     663.00      25.75
122.37     715.27      26.74
122.47     675.00      25.98
122.57     645.62      25.41
122.67     660.92      25.71
122.77     654.00      25.57
122.87     667.00      25.83
122.97     675.00      25.98
123.07     733.00      27.07
123.17     662.00      25.73
123.27     711.71      26.68
123.37     704.54      26.54
123.47     719.00      26.81
123.57     732.00      27.06
123.67     792.00      28.14
123.77     749.00      27.37
123.87     811.00      28.48
123.97     757.00      27.51
124.07     774.37      27.83
124.17     754.00      27.46
124.27     784.34      28.01
124.37     777.00      27.87
124.47     823.00      28.69
124.57     736.00      27.13
124.67     794.00      28.18
124.77     776.00      27.86
124.87     749.80      27.38
124.97     791.00      28.12
