  9.97     763.90      27.64
 10.07     785.00      28.02
 10.17     725.36      26.93
 10.27     746.00      27.31
 10.37     757.00      27.51
 10.47     730.00      27.02
 10.57     750.00      27.39
 10.67     713.15      26.70
 10.77     743.00      27.26
 10.87     785.00      28.02
 10.97     709.00      26.63
 11.07     751.00      27.40
 11.17     736.00      27.13
 11.27     778.00      27.89
 11.37     697.61      26.41
 11.47     744.00      27.28
 11.57     717.13      26.78
 11.67     725.00      26.93
 11.77     751.00      27.40
 11.87     783.61      27.99
 11.97     818.00      28.60
 12.07     794.00      28.18
 12.17     810.00      28.46
 12.27     809.00      28.44
 12.37     877.44      29.62
 12.47     821.00      28.65
 12.57     783.82      28.00
 12.67     771.62      27.78
 12.77     700.00      26.46
 12.87     676.00      26.00
 12.97     695.22      26.37
 13.07     637.00      25.24
 13.17     723.03      26.89
 13.27     673.46      25.95
 13.37     693.00      26.32
 13.47     613.00      24.76
 13.57     670.75      25.90
 13.67     638.00      25.26
 13.77     665.00      25.79
 13.87     648.37      25.46
 13.97     692.00      26.31
 14.07     744.00      27.28
 14.17     631.91      25.14
 14.27     702.75      26.51
 14.37     637.00      25.24
 14.47     665.00      25.79
 14.57     676.94      26.02
 14.67     695.00      26.36
 14.77     683.00      26.13
 14.87     627.05      25.04
 14.97     668.62      25.86
 15.07     660.47      25.70
 15.17     647.50      25.45
 15.27     639.34      25.29
 15.37     669.00      25.87
 15.47     684.00      26.15
 15.57     664.00      25.77
 15.67     633.00      25.16
 15.77     703.00      26.51
 15.87     663.00      25.75
 15.97     682.67      26.13
 16.07     626.00      25.02
 16.17     665.00      25.79
 16.27     626.00      25.02
 16.37     689.00      26.25
 16.47     642.00      25.34
 16.57     674.46      25.97
 16.67     636.83      25.24
 16.77     690.62      26.28
 16.87     628.00      25.06
 16.97     645.00      25.40
 17.07     608.00      24.66
 17.17     666.27      25.81
 17.27     636.33      25.23
 17.37     659.00      25.67
 17.47     601.00      24.52
 17.57     611.00      24.72
 17.67     649.00      25.48
 17.77     639.00      25.28
 17.87     613.17      24.76
 17.97     659.00      25.67
 18.07     710.00      26.65
 18.17     643.00      25.36
 18.27     668.83      25.86
 18.37     666.68      25.82
 18.47     674.45      25.97
 18.57     643.70      25.37
 18.67     673.00      25.94
 18.77     641.00      25.32
 18.87     700.00      26.46
 18.97     641.00      25.32
 19.07     627.44      25.05
 19.17     657.64      25.64
 19.27     582.00      24.12
 19.37     651.00      25.51
 19.47     663.16      25.75
 19.57     675.14      25.98
 19.67     644.00      25.38
 19.77     660.00      25.69
 19.87     603.00      24.56
 19.97     588.00      24.25
 20.07     604.00      24.58
 20.17     669.43      25.87
 20.27     647.00      25.44
 20.37     616.00      24.82
 20.47     601.00      24.52
 20.57     654.00      25.57
 20.67     601.00      24.52
 20.77     594.00      24.37
 20.87     580.00      24.08
 20.97     642.00      25.34
 21.07     689.35      26.26
 21.17     690.71      26.28
 21.27     603.69      24.57
 21.37     605.38      24.60
 21.47     601.00      24.52
 21.57     622.87      24.96
 21.67     653.00      25.55
 21.77     661.00      25.71
 21.87     655.00      25.59
 21.97     650.00      25.50
 22.07     590.89      24.31
 22.17     636.55      25.23
 22.27     593.00      24.35
 22.37     680.52      26.09
 22.47     657.82      25.65
 22.57     683.09      26.14
 22.67     636.00      25.22
 22.77     594.81      24.39
 22.87     589.72      24.28
 22.97     602.00      24.54
 23.07     600.00      24.49
 23.17     607.00      24.64
 23.27     620.00      24.90
 23.37     597.00      24.43
 23.47     622.00      24.94
 23.57     624.00      24.98
 23.67     577.30      24.03
 23.77     654.00      25.57
 23.87     644.00      25.38
 23.97     638.00      25.26
 24.07     607.00      24.64
 24.17     651.00      25.51
 24.27     630.00      25.10
 24.37     660.00      25.69
 24.47     644.00      25.38
 24.57     675.00      25.98
 24.67     637.05      25.24
 24.77     694.37      26.35
 24.87     681.00      26.10
 24.97     761.04      27.59
 25.07     726.00      26.94
 25.17     713.89      26.72
 25.27     653.68      25.57
 25.37     686.00      26.19
 25.47     684.00      26.15
 25.57     603.92      24.57
 25.67     630.00      25.10
 25.77     680.00      26.08
 25.87     695.00      26.36
 25.97     679.66      26.07
 26.07     619.79      24.90
 26.17     669.00      25.87
 26.27     686.00      26.19
 26.37     631.99      25.14
 26.47     626.72      25.03
 26.57     616.00      24.82
 26.67     660.00      25.69
 26.77     648.00      25.46
 26.87     703.28      26.52
 26.97     685.00      26.17
 27.07     695.00      26.36
 27.17     695.00      26.36
 27.27     742.89      27.26
 27.37     735.00      27.11
 27.47     765.00      27.66
 27.57     868.00      29.46
 27.67     843.00      29.03
 27.77     936.00      30.59
 27.87    1025.00      32.02
 27.97    1361.00      36.89
 28.07    2055.28      45.34
 28.17    3362.00      57.98
 28.27    5458.00      73.88
 28.37    7830.56      88.49
 28.47    8691.95      93.23
 28.57    8055.30      89.75
 28.67    6431.00      80.19
 28.77    4581.00      67.68
 28.87    3763.00      61.34
 28.97    4061.93      63.73
 29.07    4513.00      67.18
 29.17    5078.00      71.26
 29.27    4532.00      67.32
 29.37    3542.00      59.51
 29.47    2530.82      50.31
 29.57    1737.00      41.68
 29.67    1335.00      36.54
 29.77     979.00      31.29
 29.87     869.49      29.49
 29.97     850.65      29.17
 30.07     824.00      28.71
 30.17     791.71      28.14
 30.27     755.00      27.48
 30.37     713.57      26.71
 30.47     655.03      25.59
 30.57     711.00      26.66
 30.67     722.47      26.88
 30.77     692.00      26.31
 30.87     753.00      27.44
 30.97     697.00      26.40
 31.07     832.00      28.84
 31.17     840.00      28.98
 31.27     822.00      28.67
 31.37     768.00      27.71
 31.47     688.05      26.23
 31.57     674.82      25.98
 31.67     694.69      26.36
 31.77     660.00      25.69
 31.87     645.00      25.40
 31.97     681.00      26.10
 32.07     652.60      25.55
 32.17     667.00      25.83
 32.27     648.00      25.46
 32.37     610.00      24.70
 32.47     692.00      26.31
 32.57     681.00      26.10
 32.67     596.70      24.43
 32.77     672.00      25.92
 32.87     665.57      25.80
 32.97     626.78      25.04
 33.07     676.00      26.00
 33.17     680.00      26.08
 33.27     626.00      25.02
 33.37     590.45      24.30
 33.47     646.00      25.42
 33.57     673.00      25.94
 33.67     672.00      25.92
 33.77     693.00      26.32
 33.87     700.62      26.47
 33.97     828.25      28.78
 34.07     923.18      30.38
 34.17    1183.44      34.40
 34.27    1239.00      35.20
 34.37    1287.00      35.87
 34.47    1166.00      34.15
 34.57    1164.00      34.12
 34.67     936.80      30.61
 34.77     831.00      28.83
 34.87     782.88      27.98
 34.97     704.00      26.53
 35.07     606.74      24.63
 35.17     667.81      25.84
 35.27     691.00      26.29
 35.37     646.00      25.42
 35.47     621.00      24.92
 35.57     647.00      25.44
 35.67     626.00      25.02
 35.77     577.04      24.02
 35.87     636.00      25.22
 35.97     630.00      25.10
 36.07     646.68      25.43
 36.17     589.00      24.27
 36.27     632.00      25.14
 36.37     590.00      24.29
 36.47     595.84      24.41
 36.57     657.37      25.64
 36.67     587.00      24.23
 36.77     676.00      26.00
 36.87     620.77      24.92
 36.97     614.00      24.78
 37.07     599.00      24.47
 37.17     616.00      24.82
 37.27     608.00      24.66
 37.37     614.00      24.78
 37.47     627.93      25.06
 37.57     662.00      25.73
 37.67     645.00      25.40
 37.77     640.00      25.30
 37.87     668.25      25.85
 37.97     663.00      25.75
 38.07     716.00      26.76
 38.17     752.00      27.42
 38.27     778.00      27.89
 38.37     776.96      27.87
 38.47     752.00      27.42
 38.57     783.93      28.00
 38.67     724.35      26.91
 38.77     663.00      25.75
 38.87     625.00      25.00
 38.97     632.00      25.14
 39.07     609.00      24.68
 39.17     616.00      24.82
 39.27     612.00      24.74
 39.37     577.50      24.03
 39.47     629.43      25.09
 39.57     614.00      24.78
 39.67     641.99      25.34
 39.77     640.99      25.32
 39.87     608.33      24.66
 39.97     595.00      24.39
 40.07     583.00      24.15
 40.17     608.00      24.66
 40.27     622.00      24.94
 40.37     599.00      24.47
 40.47     598.00      24.45
 40.57     590.00      24.29
 40.67     570.00      23.87
 40.77     581.00      24.10
 40.87     555.00      23.56
 40.97     618.00      24.86
 41.07     588.00      24.25
 41.17     565.74      23.79
 41.27     574.30      23.96
 41.37     584.00      24.17
 41.47     610.00      24.70
 41.57     665.00      25.79
 41.67     583.00      24.15
 41.77     610.00      24.70
 41.87     656.54      25.62
 41.97     627.00      25.04
 42.07     648.00      25.46
 42.17     631.00      25.12
 42.27     658.86      25.67
 42.37     622.00      24.94
 42.47     578.00      24.04
 42.57     602.00      24.54
 42.67     702.59      26.51
 42.77     643.00      25.36
 42.87     725.58      26.94
 42.97     717.41      26.78
 43.07     681.94      26.11
 43.17     775.06      27.84
 43.27     685.00      26.17
 43.37     678.00      26.04
 43.47     688.58      26.24
 43.57     688.08      26.23
 43.67     635.00      25.20
 43.77     595.29      24.40
 43.87     630.00      25.10
 43.97     642.36      25.34
 44.07     640.00      25.30
 44.17     640.00      25.30
 44.27     629.85      25.10
 44.37     626.28      25.03
 44.47     659.77      25.69
 44.57     567.71      23.83
 44.67     640.06      25.30
 44.77     639.00      25.28
 44.87     627.51      25.05
 44.97     629.00      25.08
 45.07     543.00      23.30
 45.17     665.00      25.79
 45.27     673.00      25.94
 45.37     641.67      25.33
 45.47     577.71      24.04
 45.57     635.00      25.20
 45.67     656.00      25.61
 45.77     624.00      24.98
 45.87     633.00      25.16
 45.97     626.00      25.02
 46.07     605.00      24.60
 46.17     582.00      24.12
 46.27     653.98      25.57
 46.37     633.00      25.16
 46.47     618.00      24.86
 46.57     594.78      24.39
 46.67     581.48      24.11
 46.77     667.00      25.83
 46.87     646.00      25.42
 46.97     610.00      24.70
 47.07     606.00      24.62
 47.17     588.00      24.25
 47.27     589.00      24.27
 47.37     599.00      24.47
 47.47     607.38      24.65
 47.57     635.00      25.20
 47.67     588.22      24.25
 47.77     648.50      25.47
 47.87     617.63      24.85
 47.97     667.00      25.83
 48.07     690.00      26.27
 48.17     693.00      26.32
 48.27     715.00      26.74
 48.37     752.93      27.44
 48.47     653.78      25.57
 48.57     708.00      26.61
 48.67     692.76      26.32
 48.77     711.00      26.66
 48.87     592.00      24.33
 48.97     639.00      25.28
 49.07     637.00      25.24
 49.17     615.24      24.80
 49.27     653.42      25.56
 49.37     627.00      25.04
 49.47     681.00      26.10
 49.57     735.93      27.13
 49.67     732.36      27.06
 49.77     760.00      27.57
 49.87     857.02      29.27
 49.97    1036.90      32.20
 50.07    1196.00      34.58
 50.17    1525.00      39.05
 50.27    1895.00      43.53
 50.37    2549.68      50.49
 50.47    2978.00      54.57
 50.57    3132.00      55.96
 50.67    3187.00      56.45
 50.77    2898.00      53.83
 50.87    2428.00      49.27
 50.97    1961.00      44.28
 51.07    1587.90      39.85
 51.17    1223.00      34.97
 51.27    1002.00      31.65
 51.37     880.00      29.66
 51.47     858.00      29.29
 51.57     788.00      28.07
 51.67     770.54      27.76
 51.77     753.00      27.44
 51.87     691.00      26.29
 51.97     763.61      27.63
 52.07     732.98      27.07
 52.17     708.00      26.61
 52.27     709.70      26.64
 52.37     701.00      26.48
 52.47     701.00      26.48
 52.57     727.28      26.97
 52.67     723.00      26.89
 52.77     725.77      26.94
 52.87     718.17      26.80
 52.97     683.36      26.14
 53.07     731.00      27.04
 53.17     748.96      27.37
 53.27     696.88      26.40
 53.37     727.00      26.96
 53.47     908.13      30.14
 53.57     930.00      30.50
 53.67    1006.00      31.72
 53.77    1158.00      34.03
 53.87    1304.00      36.11
 53.97    1328.00      36.44
 54.07    1305.00      36.12
 54.17    1348.00      36.72
 54.27    1164.00      34.12
 54.37    1040.18      32.25
 54.47    1005.97      31.72
 54.57     812.00      28.50
 54.67     773.04      27.80
 54.77     736.00      27.13
 54.87     742.00      27.24
 54.97     732.00      27.06
 55.07     652.00      25.53
 55.17     641.09      25.32
 55.27     673.02      25.94
 55.37     713.84      26.72
 55.47     643.06      25.36
 55.57     728.00      26.98
 55.67     723.00      26.89
 55.77     730.00      27.02
 55.87     751.63      27.42
 55.97     652.52      25.54
 56.07     719.37      26.82
 56.17     673.14      25.94
 56.27     691.73      26.30
 56.37     767.00      27.69
 56.47     805.00      28.37
 56.57     892.00      29.87
 56.67    1022.00      31.97
 56.77    1246.72      35.31
 56.87    1447.00      38.04
 56.97    1722.30      41.50
 57.07    2181.15      46.70
 57.17    2446.71      49.46
 57.27    2735.46      52.30
 57.37    2630.00      51.28
 57.47    2693.00      51.89
 57.57    2426.67      49.26
 57.67    2102.00      45.85
 57.77    1787.00      42.27
 57.87    1538.08      39.22
 57.97    1222.00      34.96
 58.07     986.00      31.40
 58.17     912.03      30.20
 58.27     871.00      29.51
 58.37     825.00      28.72
 58.47     873.00      29.55
 58.57     822.00      28.67
 58.67     832.33      28.85
 58.77     935.90      30.59
 58.87     934.00      30.56
 58.97    1036.00      32.19
 59.07    1132.00      33.65
 59.17    1159.00      34.04
 59.27    1289.00      35.90
 59.37    1313.00      36.24
 59.47    1349.00      36.73
 59.57    1345.74      36.68
 59.67    1360.00      36.88
 59.77    1355.79      36.82
 59.87    1314.00      36.25
 59.97    1249.00      35.34
 60.07    1228.06      35.04
 60.17    1289.95      35.92
 60.27    1342.77      36.64
 60.37    1399.00      37.40
 60.47    1416.00      37.63
 60.57    1604.00      40.05
 60.67    1680.00      40.99
 60.77    1650.00      40.62
 60.87    1591.00      39.89
 60.97    1539.93      39.24
 61.07    1371.00      37.03
 61.17    1255.00      35.43
 61.27    1044.00      32.31
 61.37    1011.94      31.81
 61.47     919.31      30.32
 61.57     877.18      29.62
 61.67     774.13      27.82
 61.77     801.27      28.31
 61.87     867.00      29.44
 61.97     952.00      30.85
 62.07     983.00      31.35
 62.17    1136.88      33.72
 62.27    1320.00      36.33
 62.37    1464.00      38.26
 62.47    1717.15      41.44
 62.57    1746.00      41.79
 62.67    1810.00      42.54
 62.77    1778.03      42.17
 62.87    1771.33      42.09
 62.97    1589.00      39.86
 63.07    1411.00      37.56
 63.17    1279.24      35.77
 63.27    1113.00      33.36
 63.37    1008.43      31.76
 63.47     887.93      29.80
 63.57     814.18      28.53
 63.67     761.00      27.59
 63.77     740.00      27.20
 63.87     743.00      27.26
 63.97     728.00      26.98
 64.07     695.47      26.37
 64.17     797.46      28.24
 64.27     764.00      27.64
 64.37     804.75      28.37
 64.47     868.00      29.46
 64.57     944.81      30.74
 64.67    1065.43      32.64
 64.77    1090.00      33.02
 64.87    1203.00      34.68
 64.97    1372.00      37.04
 65.07    1525.00      39.05
 65.17    1556.47      39.45
 65.27    1693.00      41.15
 65.37    1661.00      40.76
 65.47    1515.29      38.93
 65.57    1489.00      38.59
 65.67    1354.27      36.80
 65.77    1261.98      35.52
 65.87    1115.00      33.39
 65.97     984.00      31.37
 66.07     860.00      29.33
 66.17     860.00      29.33
 66.27     775.04      27.84
 66.37     789.00      28.09
 66.47     710.00      26.65
 66.57     673.00      25.94
 66.67     709.00      26.63
 66.77     716.00      26.76
 66.87     689.00      26.25
 66.97     720.58      26.84
 67.07     692.00      26.31
 67.17     735.87      27.13
 67.27     734.28      27.10
 67.37     726.00      26.94
 67.47     731.40      27.04
 67.57     817.00      28.58
 67.67     853.01      29.21
 67.77     929.00      30.48
 67.87    1011.00      31.80
 67.97    1135.00      33.69
 68.07    1351.00      36.76
 68.17    1503.00      38.77
 68.27    1733.00      41.63
 68.37    2051.00      45.29
 68.47    2203.00      46.94
 68.57    2394.00      48.93
 68.67    2533.00      50.33
 68.77    2585.00      50.84
 68.87    2471.00      49.71
 68.97    2283.00      47.78
 69.07    2037.00      45.13
 69.17    1747.74      41.81
 69.27    1560.00      39.50
 69.37    1338.00      36.58
 69.47    1126.00      33.56
 69.57    1077.00      32.82
 69.67     890.00      29.83
 69.77     874.00      29.56
 69.87     867.00      29.44
 69.97     810.43      28.47
 70.07     810.00      28.46
 70.17     797.00      28.23
 70.27     709.00      26.63
 70.37     775.00      27.84
 70.47     684.00      26.15
 70.57     698.05      26.42
 70.67     710.14      26.65
 70.77     727.00      26.96
 70.87     675.64      25.99
 70.97     664.10      25.77
 71.07     734.00      27.09
 71.17     769.00      27.73
 71.27     678.00      26.04
 71.37     760.00      27.57
 71.47     748.46      27.36
 71.57     755.30      27.48
 71.67     830.00      28.81
 71.77     883.00      29.72
 71.87    1027.76      32.06
 71.97    1149.62      33.91
 72.07    1221.00      34.94
 72.17    1376.00      37.09
 72.27    1471.39      38.36
 72.37    1661.00      40.76
 72.47    1791.04      42.32
 72.57    1964.39      44.32
 72.67    2031.00      45.07
 72.77    2035.58      45.12
 72.87    1950.00      44.16
 72.97    1817.00      42.63
 73.07    1684.27      41.04
 73.17    1519.11      38.98
 73.27    1349.00      36.73
 73.37    1168.00      34.18
 73.47    1032.00      32.12
 73.57     946.56      30.77
 73.67     897.88      29.96
 73.77     780.00      27.93
 73.87     775.00      27.84
 73.97     789.16      28.09
 74.07     664.32      25.77
 74.17     738.45      27.17
 74.27     673.00      25.94
 74.37     713.41      26.71
 74.47     633.00      25.16
 74.57     635.00      25.20
 74.67     712.00      26.68
 74.77     694.00      26.34
 74.87     665.27      25.79
 74.97     698.00      26.42
 75.07     684.00      26.15
 75.17     733.00      27.07
 75.27     737.60      27.16
 75.37     658.51      25.66
 75.47     684.86      26.17
 75.57     755.00      27.48
 75.67     704.84      26.55
 75.77     686.00      26.19
 75.87     714.00      26.72
 75.97     711.24      26.67
 76.07     653.78      25.57
 76.17     725.00      26.93
 76.27     720.00      26.83
 76.37     696.00      26.38
 76.47     776.00      27.86
 76.57     792.00      28.14
 76.67     803.00      28.34
 76.77     873.00      29.55
 76.87     885.01      29.75
 76.97     914.00      30.23
 77.07     998.19      31.59
 77.17    1052.00      32.43
 77.27    1054.00      32.47
 77.37    1094.00      33.08
 77.47     998.00      31.59
 77.57    1024.61      32.01
 77.67     984.00      31.37
 77.77     923.00      30.38
 77.87     848.92      29.14
 77.97     761.04      27.59
 78.07     747.34      27.34
 78.17     716.00      26.76
 78.27     753.50      27.45
 78.37     664.00      25.77
 78.47     675.00      25.98
 78.57     638.70      25.27
 78.67     670.65      25.90
 78.77     618.10      24.86
 78.87     634.00      25.18
 78.97     630.11      25.10
 79.07     642.00      25.34
 79.17     662.91      25.75
 79.27     621.00      24.92
 79.37     641.16      25.32
 79.47     607.00      24.64
 79.57     638.00      25.26
 79.67     641.56      25.33
 79.77     635.55      25.21
 79.87     627.00      25.04
 79.97     603.91      24.57
 80.07     643.00      25.36
 80.17     683.76      26.15
 80.27     611.00      24.72
 80.37     682.00      26.12
 80.47     684.37      26.16
 80.57     751.00      27.40
 80.67     716.00      26.76
 80.77     775.11      27.84
 80.87     812.00      28.50
 80.97     952.00      30.85
 81.07     953.25      30.87
 81.17    1026.06      32.03
 81.27    1041.33      32.27
 81.37    1281.00      35.79
 81.47    1444.00      38.00
 81.57    1308.13      36.17
 81.67    1463.00      38.25
 81.77    1411.64      37.57
 81.87    1537.37      39.21
 81.97    1560.00      39.50
 82.07    1358.44      36.86
 82.17    1481.00      38.48
 82.27    1366.00      36.96
 82.37    1352.00      36.77
 82.47    1205.49      34.72
 82.57    1150.00      33.91
 82.67    1039.70      32.24
 82.77     984.12      31.37
 82.87     881.79      29.69
 82.97     908.05      30.13
 83.07     790.00      28.11
 83.17     763.00      27.62
 83.27     724.00      26.91
 83.37     709.00      26.63
 83.47     733.78      27.09
 83.57     676.99      26.02
 83.67     700.00      26.46
 83.77     665.00      25.79
 83.87     698.89      26.44
 83.97     695.85      26.38
 84.07     726.73      26.96
 84.17     641.00      25.32
 84.27     659.00      25.67
 84.37     647.79      25.45
 84.47     715.30      26.75
 84.57     656.13      25.62
 84.67     638.00      25.26
 84.77     729.91      27.02
 84.87     679.00      26.06
 84.97     601.00      24.52
 85.07     696.04      26.38
 85.17     676.00      26.00
 85.27     663.00      25.75
 85.37     644.00      25.38
 85.47     658.00      25.65
 85.57     573.00      23.94
 85.67     614.00      24.78
 85.77     631.00      25.12
 85.87     649.00      25.48
 85.97     605.41      24.61
 86.07     598.87      24.47
 86.17     637.00      25.24
 86.27     646.00      25.42
 86.37     679.00      26.06
 86.47     628.64      25.07
 86.57     633.00      25.16
 86.67     594.38      24.38
 86.77     669.00      25.87
 86.87     663.00      25.75
 86.97     670.00      25.88
 87.07     694.00      26.34
 87.17     719.67      26.83
 87.27     640.15      25.30
 87.37     672.00      25.92
 87.47     684.00      26.15
 87.57     719.00      26.81
 87.67     732.00      27.06
 87.77     709.94      26.64
 87.87     736.73      27.14
 87.97     780.00      27.93
 88.07     772.00      27.78
 88.17     767.00      27.69
 88.27     716.00      26.76
 88.37     672.95      25.94
 88.47     725.00      26.93
 88.57     769.27      27.74
 88.67     728.00      26.98
 88.77     689.00      26.25
 88.87     714.58      26.73
 88.97     727.00      26.96
 89.07     656.00      25.61
 89.17     647.00      25.44
 89.27     655.00      25.59
 89.37     656.00      25.61
 89.47     614.68      24.79
 89.57     671.00      25.90
 89.67     690.00      26.27
 89.77     684.27      26.16
 89.87     702.00      26.50
 89.97     694.00      26.34
 90.07     724.00      26.91
 90.17     712.00      26.68
 90.27     753.00      27.44
 90.37     672.00      25.92
 90.47     680.00      26.08
 90.57     714.39      26.73
 90.67     660.00      25.69
 90.77     714.91      26.74
 90.87     690.00      26.27
 90.97     614.00      24.78
 91.07     642.00      25.34
 91.17     636.00      25.22
 91.27     605.33      24.60
 91.37     571.00      23.90
 91.47     641.84      25.33
 91.57     576.00      24.00
 91.67     612.00      24.74
 91.77     566.45      23.80
 91.87     599.10      24.48
 91.97     639.60      25.29
 92.07     606.96      24.64
 92.17     621.00      24.92
 92.27     577.00      24.02
 92.37     611.00      24.72
 92.47     629.36      25.09
 92.57     599.00      24.47
 92.67     615.00      24.80
 92.77     657.90      25.65
 92.87     671.84      25.92
 92.97     691.00      26.29
 93.07     631.58      25.13
 93.17     671.02      25.90
 93.27     627.00      25.04
 93.37     697.00      26.40
 93.47     693.00      26.32
 93.57     729.03      27.00
 93.67     725.00      26.93
 93.77     770.00      27.75
 93.87     736.80      27.14
 93.97     761.00      27.59
 94.07     848.75      29.13
 94.17     855.00      29.24
 94.27     834.00      28.88
 94.37     845.00      29.07
 94.47     916.00      30.27
 94.57     947.00      30.77
 94.67     990.00      31.46
 94.77     942.03      30.69
 94.87     992.00      31.50
 94.97     971.00      31.16
 95.07     989.00      31.45
 95.17    1056.00      32.50
 95.27     992.00      31.50
 95.37     977.00      31.26
 95.47    1087.00      32.97
 95.57    1100.00      33.17
 95.67    1001.52      31.65
 95.77    1079.00      32.85
 95.87    1017.37      31.90
 95.97    1016.64      31.88
 96.07    1028.58      32.07
 96.17     956.00      30.92
 96.27     979.33      31.29
 96.37     924.00      30.40
 96.47     879.00      29.65
 96.57     890.00      29.83
 96.67     841.00      29.00
 96.77     825.00      28.72
 96.87     863.00      29.38
 96.97     847.00      29.10
 97.07     824.00      28.71
 97.17     830.91      28.83
 97.27     964.00      31.05
 97.37     966.00      31.08
 97.47     920.09      30.33
 97.57    1089.26      33.00
 97.67    1150.00      33.91
 97.77    1183.00      34.39
 97.87    1207.69      34.75
 97.97    1340.00      36.61
 98.07    1443.26      37.99
 98.17    1479.55      38.46
 98.27    1540.43      39.25
 98.37    1521.00      39.00
 98.47    1636.00      40.45
 98.57    1676.49      40.94
 98.67    1665.55      40.81
 98.77    1563.00      39.53
 98.87    1505.40      38.80
 98.97    1485.00      38.54
 99.07    1414.53      37.61
 99.17    1297.37      36.02
 99.27    1276.00      35.72
 99.37    1300.48      36.06
 99.47    1195.00      34.57
 99.57    1104.00      33.23
 99.67    1095.00      33.09
 99.77    1031.00      32.11
 99.87    1045.42      32.33
 99.97    1007.00      31.73
100.07    1047.95      32.37
100.17    1080.00      32.86
100.27    1094.00      33.08
100.37    1139.00      33.75
100.47    1167.95      34.18
100.57    1279.79      35.77
100.67    1344.00      36.66
100.77    1481.00      38.48
100.87    1443.60      37.99
100.97    1644.00      40.55
101.07    1704.57      41.29
101.17    1724.00      41.52
101.27    1945.00      44.10
101.37    1982.53      44.53
101.47    1886.00      43.43
101.57    2156.00      46.43
101.67    2063.29      45.42
101.77    2187.00      46.77
101.87    2200.83      46.91
101.97    2094.00      45.76
102.07    2088.67      45.70
102.17    2212.00      47.03
102.27    2065.00      45.44
102.37    1915.34      43.76
102.47    1907.00      43.67
102.57    1815.00      42.60
102.67    1795.00      42.37
102.77    1633.16      40.41
102.87    1610.00      40.12
102.97    1549.00      39.36
103.07    1464.00      38.26
103.17    1489.14      38.59
103.27    1473.49      38.39
103.37    1387.00      37.24
103.47    1329.00      36.46
103.57    1278.00      35.75
103.67    1292.59      35.95
103.77    1231.00      35.09
103.87    1218.00      34.90
103.97    1202.65      34.68
104.07    1089.11      33.00
104.17    1091.33      33.04
104.27    1075.74      32.80
104.37    1011.62      31.81
104.47     962.65      31.03
104.57     905.00      30.08
104.67     836.39      28.92
104.77     906.00      30.10
104.87     802.00      28.32
104.97     763.82      27.64
105.07     745.00      27.29
105.17     763.00      27.62
105.27     692.00      26.31
105.37     663.00      25.75
105.47     642.60      25.35
105.57     648.60      25.47
105.67     651.42      25.52
105.77     593.38      24.36
105.87     664.00      25.77
105.97     683.00      26.13
106.07     614.70      24.79
106.17     651.00      25.51
106.27     624.00      24.98
106.37     662.00      25.73
106.47     633.00      25.16
106.57     652.00      25.53
106.67     636.00      25.22
106.77     661.91      25.73
106.87     675.00      25.98
106.97     700.00      26.46
107.07     625.00      25.00
107.17     624.67      24.99
107.27     693.15      26.33
107.37     701.00      26.48
107.47     667.02      25.83
107.57     725.00      26.93
107.67     699.80      26.45
107.77     712.00      26.68
107.87     777.00      27.87
107.97     772.00      27.78
108.07     781.93      27.96
108.17     834.49      28.89
108.27     781.00      27.95
108.37     793.00      28.16
108.47     781.00      27.95
108.57     854.65      29.23
108.67     774.00      27.82
108.77     773.00      27.80
108.87     806.42      28.40
108.97     796.60      28.22
109.07     767.00      27.69
109.17     759.00      27.55
109.27     799.00      28.27
109.37     819.00      28.62
109.47     781.00      27.95
109.57     735.00      27.11
109.67     759.13      27.55
109.77     819.00      28.62
109.87     779.00      27.91
109.97     808.00      28.43
110.07     818.00      28.60
110.17     764.00      27.64
110.27     814.00      28.53
110.37     799.00      28.27
110.47     794.00      28.18
110.57     767.00      27.69
110.67     750.00      27.39
110.77     715.00      26.74
110.87     705.00      26.55
110.97     703.00      26.51
111.07     716.00      26.76
111.17     702.00      26.50
111.27     751.00      27.40
111.37     734.21      27.10
111.47     685.00      26.17
111.57     650.11      25.50
111.67     647.42      25.44
111.77     659.94      25.69
111.87     607.10      24.64
111.97     690.00      26.27
112.07     614.00      24.78
112.17     589.50      24.28
112.27     663.56      25.76
112.37     643.00      25.36
112.47     648.00      25.46
112.57     626.00      25.02
112.67     612.13      24.74
112.77     628.00      25.06
112.87     624.00      24.98
112.97     582.87      24.14
113.07     619.00      24.88
113.17     637.00      25.24
113.27     597.00      24.43
113.37     619.00      24.88
113.47     666.12      25.81
113.57     625.21      25.00
113.67     671.27      25.91
113.77     597.00      24.43
113.87     657.00      25.63
113.97     620.30      24.91
114.07     661.00      25.71
114.17     598.00      24.45
114.27     732.00      27.06
114.37     681.00      26.10
114.47     673.15      25.95
114.57     718.00      26.80
114.67     725.33      26.93
114.77     735.00      27.11
114.87     767.00      27.69
114.97     752.43      27.43
115.07     770.00      27.75
115.17     838.97      28.96
115.27     895.00      29.92
115.37     899.00      29.98
115.47    1114.27      33.38
115.57    1118.00      33.44
115.67    1258.00      35.47
115.77    1357.00      36.84
115.87    1485.00      38.54
115.97    1706.35      41.31
116.07    1929.00      43.92
116.17    2064.00      45.43
116.27    2324.88      48.22
116.37    2655.00      51.53
116.47    2990.00      54.68
116.57    3293.00      57.38
116.67    3491.00      59.08
116.77    3858.93      62.12
116.87    4193.00      64.75
116.97    4665.00      68.30
117.07    4960.00      70.43
117.17    5497.22      74.14
117.27    5880.00      76.68
117.37    6183.13      78.63
117.47    6546.00      80.91
117.57    6928.54      83.24
117.67    7270.00      85.26
117.77    7369.00      85.84
117.87    7356.00      85.77
117.97    7498.00      86.59
118.07    7548.00      86.88
118.17    7324.62      85.58
118.27    7409.00      86.08
118.37    7345.00      85.70
118.47    7134.31      84.46
118.57    6502.00      80.63
118.67    6236.00      78.97
118.77    5844.00      76.45
118.87    5576.00      74.67
118.97    5139.00      71.69
119.07    4884.00      69.89
119.17    4409.29      66.40
119.27    4230.00      65.04
119.37    3844.00      62.00
119.47    3492.00      59.09
119.57    3242.00      56.94
119.67    2816.00      53.07
119.77    2584.00      50.83
119.87    2279.00      47.74
119.97    2066.00      45.45
120.07    1984.00      44.54
120.17    1733.87      41.64
120.27    1650.11      40.62
120.37    1423.90      37.73
120.47    1386.29      37.23
120.57    1189.76      34.49
120.67    1222.00      34.96
120.77    1178.00      34.32
120.87    1089.89      33.01
120.97    1014.00      31.84
121.07     870.39      29.50
121.17     862.00      29.36
121.27     845.00      29.07
121.37     776.08      27.86
121.47     782.00      27.96
121.57     780.11      27.93
121.67     749.00      27.37
121.77     794.51      28.19
121.87     803.91      28.35
121.97     697.00      26.40
122.07     723.13      26.89
122.17     696.00      26.38
122.27     772.30      27.79
122.37     683.00      26.13
122.47     663.00      25.75
122.57     671.49      25.91
122.67     724.08      26.91
122.77     723.00      26.89
122.87     712.00      26.68
122.97     648.00      25.46
123.07     691.00      26.29
123.17     737.00      27.15
123.27     713.00      26.70
123.37     791.02      28.13
123.47     718.00      26.80
123.57     738.00      27.17
123.67     812.66      28.51
123.77     790.00      28.11
123.87     730.67      27.03
123.97     764.00      27.64
124.07     835.00      28.90
124.17     807.00      28.41
124.27     722.14      26.87
124.37     729.44      27.01
124.47     835.93      28.91
124.57     800.11      28.29
124.67     732.92      27.07
124.77     725.25      26.93
124.87     794.45      28.19
124.97     828.00      28.77
