  9.97     787.00      28.05
 10.07     712.56      26.69
 10.17     707.95      26.61
 10.27     744.00      27.28
 10.37     735.00      27.11
 10.47     750.00      27.39
 10.57     689.01      26.25
 10.67     754.00      27.46
 10.77     686.06      26.19
 10.87     755.17      27.48
 10.97     737.00      27.15
 11.07     728.86      27.00
 11.17     713.16      26.71
 11.27     733.00      27.07
 11.37     732.00      27.06
 11.47     745.00      27.29
 11.57     776.00      27.86
 11.67     744.00      27.28
 11.77     721.46      26.86
 11.87     838.00      28.95
 11.97     778.00      27.89
 12.07     824.14      28.71
 12.17     788.88      28.09
 12.27     843.35      29.04
 12.37     872.00      29.53
 12.47     824.78      28.72
 12.57     841.00      29.00
 12.67     749.00      27.37
 12.77     770.20      27.75
 12.87     661.00      25.71
 12.97     718.00      26.80
 13.07     717.81      26.79
 13.17     672.00      25.92
 13.27     654.00      25.57
 13.37     655.50      25.60
 13.47     690.00      26.27
 13.57     672.00      25.92
 13.67     667.00      25.83
 13.77     621.00      24.92
 13.87     686.00      26.19
 13.97     696.45      26.39
 14.07     644.80      25.39
 14.17     688.00      26.23
 14.27     713.35      26.71
 14.37     706.00      26.57
 14.47     706.88      26.59
 14.57     693.00      26.32
 14.67     683.61      26.15
 14.77     639.00      25.28
 14.87     643.49      25.37
 14.97     634.00      25.18
 15.07     693.53      26.33
 15.17     669.00      25.87
 15.27     678.77      26.05
 15.37     698.00      26.42
 15.47     640.00      25.30
 15.57     690.29      26.27
 15.67     646.07      25.42
 15.77     665.58      25.80
 15.87     660.00      25.69
 15.97     621.90      24.94
 16.07     628.00      25.06
 16.17     674.00      25.96
 16.27     642.60      25.35
 16.37     688.00      26.23
 16.47     710.00      26.65
 16.57     652.00      25.53
 16.67     717.50      26.79
 16.77     714.20      26.72
 16.87     647.00      25.44
 16.97     670.55      25.90
 17.07     685.00      26.17
 17.17     676.00      26.00
 17.27     647.17      25.44
 17.37     666.65      25.82
 17.47     629.06      25.08
 17.57     657.00      25.63
 17.67     664.00      25.77
 17.77     618.70      24.87
 17.87     680.68      26.09
 17.97     671.00      25.90
 18.07     614.74      24.79
 18.17     651.00      25.51
 18.27     648.37      25.46
 18.37     641.00      25.32
 18.47     671.00      25.90
 18.57     609.65      24.69
 18.67     623.00      24.96
 18.77     635.42      25.21
 18.87     630.00      25.10
 18.97     592.00      24.33
 19.07     601.00      24.52
 19.17     689.70      26.26
 19.27     690.03      26.27
 19.37     616.55      24.83
 19.47     661.00      25.71
 19.57     637.35      25.25
 19.67     660.00      25.69
 19.77     652.09      25.54
 19.87     631.63      25.13
 19.97     599.00      24.47
 20.07     673.55      25.95
 20.17     683.01      26.13
 20.27     653.00      25.55
 20.37     613.00      24.76
 20.47     651.00      25.51
 20.57     614.00      24.78
 20.67     647.51      25.45
 20.77     629.00      25.08
 20.87     573.00      23.94
 20.97     614.00      24.78
 21.07     635.00      25.20
 21.17     622.00      24.94
 21.27     656.91      25.63
 21.37     629.20      25.08
 21.47     638.00      25.26
 21.57     640.00      25.30
 21.67     586.60      24.22
 21.77     685.98      26.19
 21.87     606.00      24.62
 21.97     559.00      23.64
 22.07     638.00      25.26
 22.17     629.24      25.08
 22.27     593.55      24.36
 22.37     622.00      24.94
 22.47     612.00      24.74
 22.57     646.00      25.42
 22.67     666.00      25.81
 22.77     664.00      25.77
 22.87     628.00      25.06
 22.97     597.09      24.44
 23.07     595.23      24.40
 23.17     606.00      24.62
 23.27     591.00      24.31
 23.37     638.41      25.27
 23.47     630.80      25.12
 23.57     606.03      24.62
 23.67     637.00      25.24
 23.77     636.00      25.22
 23.87     652.56      25.55
 23.97     572.00      23.92
 24.07     638.00      25.26
 24.17     595.65      24.41
 24.27     620.00      24.90
 24.37     694.00      26.34
 24.47     653.24      25.56
 24.57     599.43      24.48
 24.67     707.04      26.59
 24.77     711.78      26.68
 24.87     669.00      25.87
 24.97     676.51      26.01
 25.07     684.72      26.17
 25.17     700.00      26.46
 25.27     663.33      25.76
 25.37     649.00      25.48
 25.47     651.00      25.51
 25.57     623.00      24.96
 25.67     710.00      26.65
 25.77     647.00      25.44
 25.87     673.00      25.94
 25.97     638.00      25.26
 26.07     667.00      25.83
 26.17     693.57      26.34
 26.27     648.34      25.46
 26.37     622.00      24.94
 26.47     691.62      26.30
 26.57     673.04      25.94
 26.67     636.04      25.22
 26.77     639.08      25.28
 26.87     678.00      26.04
 26.97     681.16      26.10
 27.07     682.00      26.12
 27.17     676.00      26.00
 27.27     756.20      27.50
 27.37     757.00      27.51
 27.47     780.00      27.93
 27.57     821.87      28.67
 27.67     848.62      29.13
 27.77     955.00      30.90
 27.87    1032.00      32.12
 27.97    1323.71      36.38
 28.07    1977.12      44.46
 28.17    3356.62      57.94
 28.27    5396.00      73.46
 28.37    7608.78      87.23
 28.47    8921.00      94.45
 28.57    8169.00      90.38
 28.67    6509.00      80.68
 28.77    4604.00      67.85
 28.87    3714.37      60.95
 28.97    4009.85      63.32
 29.07    4619.00      67.96
 29.17    4981.00      70.58
 29.27    4551.02      67.46
 29.37    3560.00      59.67
 29.47    2434.00      49.34
 29.57    1677.00      40.95
 29.67    1371.00      37.03
 29.77     979.06      31.29
 29.87     979.00      31.29
 29.97     784.89      28.02
 30.07     843.00      29.03
 30.17     809.00      28.44
 30.27     769.22      27.73
 30.37     682.71      26.13
 30.47     748.00      27.35
 30.57     713.00      26.70
 30.67     727.00      26.96
 30.77     712.25      26.69
 30.87     748.00      27.35
 30.97     769.00      27.73
 31.07     787.00      28.05
 31.17     810.00      28.46
 31.27     822.11      28.67
 31.37     742.73      27.25
 31.47     774.98      27.84
 31.57     750.00      27.39
 31.67     695.00      26.36
 31.77     687.00      26.21
 31.87     652.00      25.53
 31.97     663.00      25.75
 32.07     584.76      24.18
 32.17     627.47      25.05
 32.27     665.00      25.79
 32.37     606.23      24.62
 32.47     654.47      25.58
 32.57     602.00      24.54
 32.67     666.38      25.81
 32.77     671.20      25.91
 32.87     654.75      25.59
 32.97     668.00      25.85
 33.07     661.00      25.71
 33.17     691.00      26.29
 33.27     674.00      25.96
 33.37     674.00      25.96
 33.47     620.00      24.90
 33.57     623.00      24.96
 33.67     673.39      25.95
 33.77     758.15      27.53
 33.87     803.00      28.34
 33.97     897.41      29.96
 34.07     999.00      31.61
 34.17    1138.00      33.73
 34.27    1190.39      34.50
 34.37    1336.25      36.55
 34.47    1197.36      34.60
 34.57    1141.06      33.78
 34.67     911.00      30.18
 34.77     815.00      28.55
 34.87     786.94      28.05
 34.97     678.35      26.05
 35.07     703.00      26.51
 35.17     621.73      24.93
 35.27     706.00      26.57
 35.37     653.00      25.55
 35.47     655.49      25.60
 35.57     644.00      25.38
 35.67     633.00      25.16
 35.77     593.00      24.35
 35.87     646.00      25.42
 35.97     631.00      25.12
 36.07     601.00      24.52
 36.17     568.59      23.85
 36.27     618.42      24.87
 36.37     605.00      24.60
 36.47     624.00      24.98
 36.57     577.62      24.03
 36.67     617.00      24.84
 36.77     597.00      24.43
 36.87     606.00      24.62
 36.97     608.00      24.66
 37.07     598.46      24.46
 37.17     619.00      24.88
 37.27     624.84      25.00
 37.37     589.00      24.27
 37.47     669.00      25.87
 37.57     667.51      25.84
 37.67     626.00      25.02
 37.77     622.00      24.94
 37.87     649.30      25.48
 37.97     705.49      26.56
 38.07     676.00      26.00
 38.17     714.35      26.73
 38.27     733.61      27.09
 38.37     785.51      28.03
 38.47     774.00      27.82
 38.57     698.20      26.42
 38.67     651.90      25.53
 38.77     639.00      25.28
 38.87     608.00      24.66
 38.97     661.00      25.71
 39.07     610.07      24.70
 39.17     662.00      25.73
 39.27     662.25      25.73
 39.37     620.00      24.90
 39.47     614.00      24.78
 39.57     629.00      25.08
 39.67     598.00      24.45
 39.77     609.00      24.68
 39.87     579.00      24.06
 39.97     611.00      24.72
 40.07     608.00      24.66
 40.17     602.00      24.54
 40.27     581.00      24.10
 40.37     594.00      24.37
 40.47     634.00      25.18
 40.57     599.00      24.47
 40.67     592.68      24.35
 40.77     598.56      24.47
 40.87     559.38      23.65
 40.97     665.00      25.79
 41.07     654.00      25.57
 41.17     559.66      23.66
 41.27     561.60      23.70
 41.37     651.91      25.53
 41.47     634.00      25.18
 41.57     613.00      24.76
 41.67     559.00      23.64
 41.77     589.00      24.27
 41.87     599.00      24.47
 41.97     637.53      25.25
 42.07     582.00      24.12
 42.17     576.00      24.00
 42.27     596.00      24.41
 42.37     641.00      25.32
 42.47     629.36      25.09
 42.57     617.00      24.84
 42.67     663.00      25.75
 42.77     705.42      26.56
 42.87     690.00      26.27
 42.97     673.00      25.94
 43.07     723.00      26.89
 43.17     711.48      26.67
 43.27     701.00      26.48
 43.37     699.00      26.44
 43.47     652.00      25.53
 43.57     592.91      24.35
 43.67     592.00      24.33
 43.77     641.51      25.33
 43.87     573.23      23.94
 43.97     681.00      26.10
 44.07     647.00      25.44
 44.17     570.00      23.87
 44.27     614.00      24.78
 44.37     621.25      24.92
 44.47     563.42      23.74
 44.57     602.00      24.54
 44.67     633.00      25.16
 44.77     612.61      24.75
 44.87     640.00      25.30
 44.97     635.72      25.21
 45.07     589.13      24.27
 45.17     604.00      24.58
 45.27     645.84      25.41
 45.37     589.00      24.27
 45.47     613.43      24.77
 45.57     683.00      26.13
 45.67     630.00      25.10
 45.77     605.00      24.60
 45.87     617.00      24.84
 45.97     642.97      25.36
 46.07     653.00      25.55
 46.17     558.00      23.62
 46.27     667.00      25.83
 46.37     606.36      24.62
 46.47     643.00      25.36
 46.57     652.00      25.53
 46.67     620.00      24.90
 46.77     611.00      24.72
 46.87     656.00      25.61
 46.97     595.00      24.39
 47.07     625.86      25.02
 47.17     635.92      25.22
 47.27     635.75      25.21
 47.37     580.79      24.10
 47.47     587.15      24.23
 47.57     679.91      26.08
 47.67     589.00      24.27
 47.77     650.79      25.51
 47.87     673.00      25.94
 47.97     636.00      25.22
 48.07     670.60      25.90
 48.17     718.00      26.80
 48.27     713.41      26.71
 48.37     741.00      27.22
 48.47     666.00      25.81
 48.57     614.00      24.78
 48.67     712.00      26.68
 48.77     689.71      26.26
 48.87     644.00      25.38
 48.97     656.90      25.63
 49.07     645.00      25.40
 49.17     665.00      25.79
 49.27     618.00      24.86
 49.37     701.00      26.48
 49.47     709.51      26.64
 49.57     681.31      26.10
 49.67     716.00      26.76
 49.77     779.00      27.91
 49.87     815.00      28.55
 49.97     923.00      30.38
 50.07    1188.00      34.47
 50.17    1480.00      38.47
 50.27    1868.00      43.22
 50.37    2422.00      49.21
 50.47    2962.00      54.42
 50.57    3153.78      56.16
 50.67    3113.00      55.79
 50.77    3022.00      54.97
 50.87    2453.82      49.54
 50.97    1943.00      44.08
 51.07    1463.00      38.25
 51.17    1152.00      33.94
 51.27     970.00      31.14
 51.37     928.00      30.46
 51.47     861.40      29.35
 51.57     788.00      28.07
 51.67     775.25      27.84
 51.77     700.25      26.46
 51.87     757.32      27.52
 51.97     718.60      26.81
 52.07     726.00      26.94
 52.17     665.55      25.80
 52.27     714.00      26.72
 52.37     691.95      26.30
 52.47     639.00      25.28
 52.57     660.00      25.69
 52.67     698.00      26.42
 52.77     708.00      26.61
 52.87     719.45      26.82
 52.97     719.00      26.81
 53.07     722.00      26.87
 53.17     742.84      27.25
 53.27     750.00      27.39
 53.37     766.82      27.69
 53.47     827.00      28.76
 53.57     974.00      31.21
 53.67    1015.00      31.86
 53.77    1190.50      34.50
 53.87    1190.00      34.50
 53.97    1236.78      35.17
 54.07    1334.00      36.52
 54.17    1247.00      35.31
 54.27    1152.00      33.94
 54.37    1066.00      32.65
 54.47     951.00      30.84
 54.57     855.00      29.24
 54.67     788.00      28.07
 54.77     765.93      27.68
 54.87     739.00      27.18
 54.97     679.00      26.06
 55.07     702.00      26.50
 55.17     689.00      26.25
 55.27     652.63      25.55
 55.37     724.00      26.91
 55.47     674.73      25.98
 55.57     689.00      26.25
 55.67     655.00      25.59
 55.77     637.33      25.25
 55.87     674.00      25.96
 55.97     672.00      25.92
 56.07     695.00      26.36
 56.17     651.00      25.51
 56.27     768.00      27.71
 56.37     765.00      27.66
 56.47     814.00      28.53
 56.57     873.15      29.55
 56.67     991.34      31.49
 56.77    1178.12      34.32
 56.87    1531.92      39.14
 56.97    1743.54      41.76
 57.07    2020.00      44.94
 57.17    2352.00      48.50
 57.27    2649.48      51.47
 57.37    2741.39      52.36
 57.47    2715.00      52.11
 57.57    2419.38      49.19
 57.67    2200.00      46.90
 57.77    1838.00      42.87
 57.87    1444.00      38.00
 57.97    1205.00      34.71
 58.07    1116.06      33.41
 58.17     950.00      30.82
 58.27     885.82      29.76
 58.37     775.33      27.84
 58.47     782.00      27.96
 58.57     801.93      28.32
 58.67     821.00      28.65
 58.77     950.87      30.84
 58.87     966.00      31.08
 58.97     993.37      31.52
 59.07    1162.77      34.10
 59.17    1230.66      35.08
 59.27    1349.40      36.73
 59.37    1366.29      36.96
 59.47    1362.00      36.91
 59.57    1352.09      36.77
 59.67    1318.68      36.31
 59.77    1319.00      36.32
 59.87    1212.08      34.81
 59.97    1228.00      35.04
 60.07    1221.66      34.95
 60.17    1272.00      35.67
 60.27    1332.00      36.50
 60.37    1445.00      38.01
 60.47    1522.00      39.01
 60.57    1500.34      38.73
 60.67    1574.00      39.67
 60.77    1578.07      39.72
 60.87    1656.00      40.69
 60.97    1436.96      37.91
 61.07    1410.65      37.56
 61.17    1196.00      34.58
 61.27    1012.00      31.81
 61.37     959.00      30.97
 61.47     860.00      29.33
 61.57     886.00      29.77
 61.67     892.00      29.87
 61.77     834.77      28.89
 61.87     877.00      29.61
 61.97     926.00      30.43
 62.07    1034.00      32.16
 62.17    1145.00      33.84
 62.27    1315.56      36.27
 62.37    1486.45      38.55
 62.47    1657.37      40.71
 62.57    1703.62      41.27
 62.67    1782.00      42.21
 62.77    1765.00      42.01
 62.87    1703.00      41.27
 62.97    1649.00      40.61
 63.07    1413.00      37.59
 63.17    1245.00      35.28
 63.27    1083.00      32.91
 63.37     991.00      31.48
 63.47     845.06      29.07
 63.57     791.00      28.12
 63.67     787.85      28.07
 63.77     806.92      28.41
 63.87     744.00      27.28
 63.97     772.12      27.79
 64.07     809.00      28.44
 64.17     738.00      27.17
 64.27     791.00      28.12
 64.37     760.00      27.57
 64.47     867.00      29.44
 64.57     901.00      30.02
 64.67    1017.00      31.89
 64.77    1046.80      32.35
 64.87    1281.14      35.79
 64.97    1417.24      37.65
 65.07    1475.56      38.41
 65.17    1539.11      39.23
 65.27    1540.10      39.24
 65.37    1522.00      39.01
 65.47    1537.00      39.20
 65.57    1428.95      37.80
 65.67    1325.00      36.40
 65.77    1254.27      35.42
 65.87    1143.00      33.81
 65.97     986.00      31.40
 66.07     988.00      31.43
 66.17     831.00      28.83
 66.27     813.00      28.51
 66.37     822.00      28.67
 66.47     743.00      27.26
 66.57     704.00      26.53
 66.67     739.79      27.20
 66.77     699.00      26.44
 66.87     727.00      26.96
 66.97     732.15      27.06
 67.07     742.10      27.24
 67.17     680.00      26.08
 67.27     741.37      27.23
 67.37     703.00      26.51
 67.47     770.53      27.76
 67.57     812.00      28.50
 67.67     835.70      28.91
 67.77     896.00      29.93
 67.87    1076.14      32.80
 67.97    1080.00      32.86
 68.07    1326.00      36.41
 68.17    1516.10      38.94
 68.27    1728.00      41.57
 68.37    1894.00      43.52
 68.47    2263.00      47.57
 68.57    2455.00      49.55
 68.67    2435.91      49.35
 68.77    2517.00      50.17
 68.87    2379.00      48.77
 68.97    2204.72      46.95
 69.07    2017.01      44.91
 69.17    1867.00      43.21
 69.27    1565.38      39.56
 69.37    1331.00      36.48
 69.47    1188.89      34.48
 69.57    1021.00      31.95
 69.67     929.00      30.48
 69.77     895.00      29.92
 69.87     782.00      27.96
 69.97     719.05      26.82
 70.07     813.00      28.51
 70.17     677.12      26.02
 70.27     729.00      27.00
 70.37     718.00      26.80
 70.47     665.51      25.80
 70.57     779.00      27.91
 70.67     664.78      25.78
 70.77     721.00      26.85
 70.87     717.24      26.78
 70.97     685.00      26.17
 71.07     700.00      26.46
 71.17     732.00      27.06
 71.27     680.00      26.08
 71.37     733.00      27.07
 71.47     734.00      27.09
 71.57     818.00      28.60
 71.67     883.88      29.73
 71.77     929.91      30.49
 71.87    1011.00      31.80
 71.97    1138.43      33.74
 72.07    1201.85      34.67
 72.17    1357.53      36.84
 72.27    1561.00      39.51
 72.37    1742.00      41.74
 72.47    1816.00      42.61
 72.57    1979.00      44.49
 72.67    1988.00      44.59
 72.77    1956.00      44.23
 72.87    1970.41      44.39
 72.97    1759.84      41.95
 73.07    1676.00      40.94
 73.17    1464.71      38.27
 73.27    1253.79      35.41
 73.37    1151.00      33.93
 73.47    1089.00      33.00
 73.57     895.03      29.92
 73.67     856.00      29.26
 73.77     838.00      28.95
 73.87     798.56      28.26
 73.97     709.00      26.63
 74.07     690.55      26.28
 74.17     680.00      26.08
 74.27     713.00      26.70
 74.37     677.00      26.02
 74.47     708.00      26.61
 74.57     697.28      26.41
 74.67     628.92      25.08
 74.77     672.00      25.92
 74.87     728.69      26.99
 74.97     712.00      26.68
 75.07     729.00      27.00
 75.17     700.00      26.46
 75.27     704.00      26.53
 75.37     730.00      27.02
 75.47     683.51      26.14
 75.57     744.87      27.29
 75.67     739.00      27.18
 75.77     680.68      26.09
 75.87     684.00      26.15
 75.97     725.73      26.94
 76.07     635.71      25.21
 76.17     702.32      26.50
 76.27     689.00      26.25
 76.37     723.00      26.89
 76.47     734.97      27.11
 76.57     730.00      27.02
 76.67     847.00      29.10
 76.77     894.85      29.91
 76.87     912.28      30.20
 76.97     926.00      30.43
 77.07     954.60      30.90
 77.17    1023.00      31.98
 77.27     982.62      31.35
 77.37    1050.00      32.40
 77.47    1005.81      31.71
 77.57     965.00      31.06
 77.67     943.00      30.71
 77.77     945.00      30.74
 77.87     889.28      29.82
 77.97     846.05      29.09
 78.07     784.00      28.00
 78.17     691.80      26.30
 78.27     720.00      26.83
 78.37     671.63      25.92
 78.47     699.00      26.44
 78.57     641.00      25.32
 78.67     642.00      25.34
 78.77     655.00      25.59
 78.87     661.00      25.71
 78.97     685.00      26.17
 79.07     610.00      24.70
 79.17     637.00      25.24
 79.27     605.00      24.60
 79.37     648.57      25.47
 79.47     683.41      26.14
 79.57     658.00      25.65
 79.67     599.47      24.48
 79.77     665.05      25.79
 79.87     607.00      24.64
 79.97     694.00      26.34
 80.07     657.00      25.63
 80.17     587.00      24.23
 80.27     625.00      25.00
 80.37     657.00      25.63
 80.47     734.00      27.09
 80.57     706.00      26.57
 80.67     781.00      27.95
 80.77     784.00      28.00
 80.87     816.00      28.57
 80.97     976.00      31.24
 81.07     958.59      30.96
 81.17    1078.00      32.83
 81.27    1087.84      32.98
 81.37    1300.00      36.06
 81.47    1389.00      37.27
 81.57    1451.00      38.09
 81.67    1328.68      36.45
 81.77    1583.00      39.79
 81.87    1565.00      39.56
 81.97    1521.00      39.00
 82.07    1478.00      38.44
 82.17    1317.24      36.29
 82.27    1327.00      36.43
 82.37    1225.00      35.00
 82.47    1194.00      34.55
 82.57    1079.00      32.85
 82.67    1014.00      31.84
 82.77     941.00      30.68
 82.87     919.00      30.32
 82.97     786.00      28.04
 83.07     881.41      29.69
 83.17     776.66      27.87
 83.27     686.00      26.19
 83.37     697.00      26.40
 83.47     711.00      26.66
 83.57     703.00      26.51
 83.67     653.00      25.55
 83.77     720.75      26.85
 83.87     667.00      25.83
 83.97     635.00      25.20
 84.07     661.00      25.71
 84.17     642.00      25.34
 84.27     630.00      25.10
 84.37     670.00      25.88
 84.47     651.00      25.51
 84.57     715.00      26.74
 84.67     711.00      26.66
 84.77     687.77      26.23
 84.87     734.80      27.11
 84.97     678.56      26.05
 85.07     623.00      24.96
 85.17     643.75      25.37
 85.27     631.67      25.13
 85.37     650.64      25.51
 85.47     641.00      25.32
 85.57     601.00      24.52
 85.67     682.39      26.12
 85.77     675.02      25.98
 85.87     595.04      24.39
 85.97     678.48      26.05
 86.07     607.00      24.64
 86.17     622.00      24.94
 86.27     606.00      24.62
 86.37     605.00      24.60
 86.47     622.00      24.94
 86.57     674.00      25.96
 86.67     660.00      25.69
 86.77     652.00      25.53
 86.87     664.00      25.77
 86.97     632.05      25.14
 87.07     704.00      26.53
 87.17     668.00      25.85
 87.27     722.00      26.87
 87.37     674.65      25.97
 87.47     741.00      27.22
 87.57     666.22      25.81
 87.67     746.00      27.31
 87.77     774.00      27.82
 87.87     732.78      27.07
 87.97     714.00      26.72
 88.07     818.00      28.60
 88.17     778.00      27.89
 88.27     728.73      26.99
 88.37     750.00      27.39
 88.47     710.63      26.66
 88.57     756.00      27.50
 88.67     757.00      27.51
 88.77     733.56      27.08
 88.87     646.54      25.43
 88.97     652.00      25.53
 89.07     668.00      25.85
 89.17     690.47      26.28
 89.27     656.00      25.61
 89.37     680.00      26.08
 89.47     651.00      25.51
 89.57     649.00      25.48
 89.67     710.61      26.66
 89.77     647.00      25.44
 89.87     679.00      26.06
 89.97     732.00      27.06
 90.07     705.00      26.55
 90.17     739.00      27.18
 90.27     710.00      26.65
 90.37     706.59      26.58
 90.47     663.00      25.75
 90.57     683.00      26.13
 90.67     663.00      25.75
 90.77     714.04      26.72
 90.87     669.00      25.87
 90.97     661.00      25.71
 91.07     651.00      25.51
 91.17     625.06      25.00
 91.27     637.00      25.24
 91.37     645.81      25.41
 91.47     582.00      24.12
 91.57     604.75      24.59
 91.67     625.00      25.00
 91.77     579.00      24.06
 91.87     575.00      23.98
 91.97     579.25      24.07
 92.07     651.00      25.51
 92.17     593.93      24.37
 92.27     609.00      24.68
 92.37     591.46      24.32
 92.47     671.00      25.90
 92.57     648.00      25.46
 92.67     630.00      25.10
 92.77     592.83      24.35
 92.87     646.30      25.42
 92.97     674.00      25.96
 93.07     693.00      26.32
 93.17     681.45      26.10
 93.27     704.00      26.53
 93.37     677.00      26.02
 93.47     704.00      26.53
 93.57     787.50      28.06
 93.67     807.00      28.41
 93.77     743.80      27.27
 93.87     793.00      28.16
 93.97     817.40      28.59
 94.07     805.00      28.37
 94.17     856.00      29.26
 94.27     815.00      28.55
 94.37     888.00      29.80
 94.47     824.00      28.71
 94.57     863.00      29.38
 94.67     923.00      30.38
 94.77     880.22      29.67
 94.87     921.00      30.35
 94.97    1019.00      31.92
 95.07     969.00      31.13
 95.17    1046.00      32.34
 95.27    1051.00      32.42
 95.37    1048.00      32.37
 95.47    1054.00      32.47
 95.57    1106.84      33.27
 95.67    1165.00      34.13
 95.77    1057.98      32.53
 95.87    1090.00      33.02
 95.97    1092.84      33.06
 96.07    1060.00      32.56
 96.17    1002.00      31.65
 96.27     906.26      30.10
 96.37     960.20      30.99
 96.47     902.40      30.04
 96.57     903.00      30.05
 96.67     885.14      29.75
 96.77     867.00      29.44
 96.87     784.69      28.01
 96.97     838.00      28.95
 97.07     844.00      29.05
 97.17     848.00      29.12
 97.27     848.28      29.13
 97.37     959.66      30.98
 97.47     976.00      31.24
 97.57    1071.00      32.73
 97.67    1156.00      34.00
 97.77    1121.00      33.48
 97.87    1262.00      35.52
 97.97    1295.80      36.00
 98.07    1388.00      37.26
 98.17    1494.00      38.65
 98.27    1510.00      38.86
 98.37    1617.00      40.21
 98.47    1577.17      39.71
 98.57    1620.00      40.25
 98.67    1539.38      39.23
 98.77    1550.00      39.37
 98.87    1456.31      38.16
 98.97    1476.00      38.42
 99.07    1395.86      37.36
 99.17    1285.35      35.85
 99.27    1321.00      36.35
 99.37    1207.00      34.74
 99.47    1190.00      34.50
 99.57    1141.00      33.78
 99.67    1125.09      33.54
 99.77    1038.00      32.22
 99.87    1024.00      32.00
 99.97    1039.66      32.24
100.07    1065.00      32.63
100.17    1057.78      32.52
100.27    1026.00      32.03
100.37    1164.00      34.12
100.47    1172.00      34.23
100.57    1253.64      35.41
100.67    1291.23      35.93
100.77    1369.00      37.00
100.87    1495.19      38.67
100.97    1515.00      38.92
101.07    1621.97      40.27
101.17    1732.33      41.62
101.27    1850.00      43.01
101.37    1988.00      44.59
101.47    2015.00      44.89
101.57    2107.00      45.90
101.67    2174.47      46.63
101.77    2139.77      46.26
101.87    2081.07      45.62
101.97    2148.64      46.35
102.07    2106.00      45.89
102.17    2136.59      46.22
102.27    2040.58      45.17
102.37    1909.81      43.70
102.47    1883.00      43.39
102.57    1831.00      42.79
102.67    1701.00      41.24
102.77    1621.62      40.27
102.87    1664.00      40.79
102.97    1504.83      38.79
103.07    1509.00      38.85
103.17    1446.00      38.03
103.27    1431.09      37.83
103.37    1421.58      37.70
103.47    1338.00      36.58
103.57    1321.00      36.35
103.67    1246.00      35.30
103.77    1231.00      35.09
103.87    1195.00      34.57
103.97    1110.00      33.32
104.07    1156.00      34.00
104.17    1124.34      33.53
104.27    1072.00      32.74
104.37    1008.92      31.76
104.47     979.00      31.29
104.57     923.00      30.38
104.67     896.11      29.94
104.77     867.00      29.44
104.87     781.62      27.96
104.97     779.00      27.91
105.07     734.59      27.10
105.17     729.00      27.00
105.27     706.00      26.57
105.37     694.00      26.34
105.47     668.00      25.85
105.57     648.92      25.47
105.67     641.00      25.32
105.77     586.40      24.22
105.87     661.00      25.71
105.97     620.00      24.90
106.07     640.00      25.30
106.17     653.00      25.55
106.27     650.00      25.50
106.37     590.00      24.29
106.47     618.00      24.86
106.57     638.00      25.26
106.67     611.00      24.72
106.77     586.41      24.22
106.87     655.00      25.59
106.97     610.80      24.71
107.07     683.00      26.13
107.17     647.00      25.44
107.27     713.00      26.70
107.37     692.00      26.31
107.47     690.87      26.28
107.57     704.00      26.53
107.67     726.64      26.96
107.77     711.19      26.67
107.87     706.71      26.58
107.97     750.49      27.40
108.07     754.72      27.47
108.17     749.00      27.37
108.27     814.28      28.54
108.37     816.00      28.57
108.47     847.53      29.11
108.57     791.00      28.12
108.67     797.67      28.24
108.77     809.00      28.44
108.87     747.52      27.34
108.97     807.00      28.41
109.07     784.00      28.00
109.17     761.00      27.59
109.27     689.00      26.25
109.37     771.00      27.77
109.47     814.63      28.54
109.57     790.00      28.11
109.67     854.77      29.24
109.77     826.84      28.75
109.87     778.00      27.89
109.97     789.00      28.09
110.07     790.07      28.11
110.17     798.00      28.25
110.27     802.00      28.32
110.37     771.00      27.77
110.47     787.00      28.05
110.57     776.00      27.86
110.67     741.00      27.22
110.77     744.00      27.28
110.87     761.09      27.59
110.97     771.00      27.77
111.07     702.00      26.50
111.17     723.00      26.89
111.27     717.93      26.79
111.37     669.00      25.87
111.47     685.00      26.17
111.57     687.00      26.21
111.67     701.00      26.48
111.77     682.00      26.12
111.87     635.00      25.20
111.97     652.00      25.53
112.07     657.00      25.63
112.17     615.53      24.81
112.27     650.58      25.51
112.37     617.00      24.84
112.47     606.00      24.62
112.57     667.44      25.83
112.67     617.00      24.84
112.77     646.00      25.42
112.87     599.37      24.48
112.97     621.00      24.92
113.07     621.66      24.93
113.17     589.00      24.27
113.27     673.00      25.94
113.37     655.39      25.60
113.47     640.00      25.30
113.57     611.00      24.72
113.67     666.00      25.81
113.77     664.00      25.77
113.87     600.00      24.49
113.97     694.66      26.36
114.07     677.00      26.02
114.17     639.00      25.28
114.27     687.00      26.21
114.37     663.00      25.75
114.47     673.50      25.95
114.57     689.00      26.25
114.67     734.00      27.09
114.77     734.00      27.09
114.87     776.00      27.86
114.97     840.37      28.99
115.07     824.00      28.71
115.17     844.00      29.05
115.27     888.00      29.80
115.37    1005.00      31.70
115.47    1061.13      32.57
115.57    1145.00      33.84
115.67    1254.00      35.41
115.77    1331.00      36.48
115.87    1533.00      39.15
115.97    1664.00      40.79
116.07    1888.94      43.46
116.17    2078.00      45.59
116.27    2310.00      48.06
116.37    2588.00      50.87
116.47    2837.00      53.26
116.57    3282.21      57.29
116.67    3531.00      59.42
116.77    3889.00      62.36
116.87    4160.00      64.50
116.97    4580.00      67.68
117.07    4911.00      70.08
117.17    5428.00      73.67
117.27    5795.00      76.12
117.37    6172.00      78.56
117.47    6527.00      80.79
117.57    6921.92      83.20
117.67    7161.00      84.62
117.77    7420.00      86.14
117.87    7512.00      86.67
117.97    7544.00      86.86
118.07    7699.35      87.75
118.17    7591.00      87.13
118.27    7440.98      86.26
118.37    7271.00      85.27
118.47    6963.00      83.44
118.57    6592.00      81.19
118.67    6354.00      79.71
118.77    6103.00      78.12
118.87    5533.29      74.39
118.97    5399.53      73.48
119.07    4874.00      69.81
119.17    4615.00      67.93
119.27    4229.00      65.03
119.37    3809.00      61.72
119.47    3490.00      59.08
119.57    3267.43      57.16
119.67    2830.00      53.20
119.77    2593.93      50.93
119.87    2334.00      48.31
119.97    2097.00      45.79
120.07    1881.20      43.37
120.17    1738.00      41.69
120.27    1515.15      38.92
120.37    1507.18      38.82
120.47    1366.32      36.96
120.57    1381.00      37.16
120.67    1126.82      33.57
120.77    1157.09      34.02
120.87     984.56      31.38
120.97    1033.68      32.15
121.07     977.00      31.26
121.17     903.91      30.07
121.27     848.00      29.12
121.37     824.63      28.72
121.47     841.00      29.00
121.57     838.82      28.96
121.67     758.00      27.53
121.77     746.00      27.31
121.87     752.00      27.42
121.97     714.00      26.72
122.07     739.99      27.20
122.17     706.06      26.57
122.27     694.00      26.34
122.37     673.00      25.94
122.47     701.00      26.48
122.57     716.00      26.76
122.67     708.33      26.61
122.77     748.73      27.36
122.87     678.00      26.04
122.97     714.00      26.72
123.07     685.00      26.17
123.17     788.63      28.08
123.27     791.76      28.14
123.37     755.00      27.48
123.47     705.50      26.56
123.57     801.00      28.30
123.67     779.46      27.92
123.77     717.83      26.79
123.87     799.00      28.27
123.97     772.00      27.78
124.07     744.04      27.28
124.17     807.60      28.42
124.27     822.00      28.67
124.37     843.40      29.04
124.47     827.00      28.76
124.57     793.00      28.16
124.67     734.75      27.11
124.77     826.00      28.74
124.87     804.36      28.36
124.97     813.77      28.53
