  9.97     748.00      27.35
 10.07     757.00      27.51
 10.17     709.11      26.63
 10.27     785.02      28.02
 10.37     706.00      26.57
 10.47     760.00      27.57
 10.57     743.00      27.26
 10.67     730.75      27.03
 10.77     735.00      27.11
 10.87     709.33      26.63
 10.97     739.09      27.19
 11.07     724.00      26.91
 11.17     805.00      28.37
 11.27     737.00      27.15
 11.37     718.59      26.81
 11.47     755.00      27.48
 11.57     763.00      27.62
 11.67     767.00      27.69
 11.77     778.00      27.89
 11.87     813.00      28.51
 11.97     897.00      29.95
 12.07     737.60      27.16
 12.17     841.00      29.00
 12.27     815.18      28.55
 12.37     892.00      29.87
 12.47     887.00      29.78
 12.57     748.41      27.36
 12.67     746.00      27.31
 12.77     730.00      27.02
 12.87     671.00      25.90
 12.97     699.00      26.44
 13.07     741.33      27.23
 13.17     684.00      26.15
 13.27     673.00      25.94
 13.37     717.00      26.78
 13.47     658.40      25.66
 13.57     691.00      26.29
 13.67     688.23      26.23
 13.77     677.00      26.02
 13.87     745.23      27.30
 13.97     714.49      26.73
 14.07     726.00      26.94
 14.17     698.26      26.42
 14.27     692.00      26.31
 14.37     729.00      27.00
 14.47     743.74      27.27
 14.57     672.00      25.92
 14.67     671.00      25.90
 14.77     630.00      25.10
 14.87     715.17      26.74
 14.97     703.59      26.53
 15.07     690.00      26.27
 15.17     708.00      26.61
 15.27     714.60      26.73
 15.37     681.56      26.11
 15.47     715.00      26.74
 15.57     699.00      26.44
 15.67     703.00      26.51
 15.77     729.13      27.00
 15.87     690.00      26.27
 15.97     689.00      26.25
 16.07     654.36      25.58
 16.17     643.11      25.36
 16.27     702.12      26.50
 16.37     711.00      26.66
 16.47     644.00      25.38
 16.57     697.00      26.40
 16.67     684.00      26.15
 16.77     658.00      25.65
 16.87     633.00      25.16
 16.97     658.56      25.66
 17.07     654.10      25.58
 17.17     631.00      25.12
 17.27     659.11      25.67
 17.37     684.00      26.15
 17.47     705.08      26.55
 17.57     698.39      26.43
 17.67     688.00      26.23
 17.77     641.00      25.32
 17.87     638.40      25.27
 17.97     701.79      26.49
 18.07     649.60      25.49
 18.17     622.03      24.94
 18.27     610.00      24.70
 18.37     644.00      25.38
 18.47     689.00      26.25
 18.57     659.00      25.67
 18.67     614.19      24.78
 18.77     659.00      25.67
 18.87     702.00      26.50
 18.97     671.00      25.90
 19.07     663.46      25.76
 19.17     646.00      25.42
 19.27     671.14      25.91
 19.37     696.53      26.39
 19.47     679.00      26.06
 19.57     666.00      25.81
 19.67     696.00      26.38
 19.77     632.00      25.14
 19.87     676.00      26.00
 19.97     682.75      26.13
 20.07     702.00      26.50
 20.17     650.64      25.51
 20.27     647.00      25.44
 20.37     591.00      24.31
 20.47     650.00      25.50
 20.57     642.00      25.34
 20.67     618.00      24.86
 20.77     699.86      26.45
 20.87     678.12      26.04
 20.97     605.01      24.60
 21.07     653.00      25.55
 21.17     675.00      25.98
 21.27     633.06      25.16
 21.37     601.00      24.52
 21.47     598.00      24.45
 21.57     672.00      25.92
 21.67     674.40      25.97
 21.77     658.00      25.65
 21.87     604.00      24.58
 21.97     637.00      25.24
 22.07     695.00      26.36
 22.17     655.00      25.59
 22.27     626.00      25.02
 22.37     641.00      25.32
 22.47     643.00      25.36
 22.57     636.00      25.22
 22.67     654.00      25.57
 22.77     650.00      25.50
 22.87     631.00      25.12
 22.97     627.18      25.04
 23.07     610.00      24.70
 23.17     675.61      25.99
 23.27     662.18      25.73
 23.37     627.00      25.04
 23.47     683.32      26.14
 23.57     601.00      24.52
 23.67     658.00      25.65
 23.77     654.00      25.57
 23.87     601.23      24.52
 23.97     658.91      25.67
 24.07     663.00      25.75
 24.17     619.00      24.88
 24.27     639.49      25.29
 24.37     687.17      26.21
 24.47     677.00      26.02
 24.57     611.91      24.74
 24.67     738.00      27.17
 24.77     686.00      26.19
 24.87     727.00      26.96
 24.97     721.50      26.86
 25.07     729.00      27.00
 25.17     762.41      27.61
 25.27     703.38      26.52
 25.37     703.00      26.51
 25.47     694.63      26.36
 25.57     671.00      25.90
 25.67     675.00      25.98
 25.77     654.00      25.57
 25.87     676.00      26.00
 25.97     654.60      25.59
 26.07     634.00      25.18
 26.17     714.00      26.72
 26.27     606.00      24.62
 26.37     721.00      26.85
 26.47     698.00      26.42
 26.57     651.31      25.52
 26.67     722.03      26.87
 26.77     677.52      26.03
 26.87     750.36      27.39
 26.97     682.95      26.13
 27.07     701.76      26.49
 27.17     715.00      26.74
 27.27     772.89      27.80
 27.37     713.00      26.70
 27.47     811.00      28.48
 27.57     849.00      29.14
 27.67     836.05      28.91
 27.77     900.00      30.00
 27.87    1097.00      33.12
 27.97    1462.59      38.24
 28.07    2052.00      45.30
 28.17    3609.49      60.08
 28.27    5492.32      74.11
 28.37    7750.00      88.03
 28.47    9306.00      96.47
 28.57    8898.76      94.33
 28.67    7137.00      84.48
 28.77    5108.00      71.47
 28.87    3926.00      62.66
 28.97    4181.00      64.66
 29.07    4728.00      68.76
 29.17    5209.25      72.18
 29.27    4979.52      70.57
 29.37    3812.00      61.74
 29.47    2788.00      52.80
 29.57    1810.00      42.54
 29.67    1406.00      37.50
 29.77    1116.21      33.41
 29.87     947.44      30.78
 29.97     833.38      28.87
 30.07     861.00      29.34
 30.17     813.00      28.51
 30.27     807.00      28.41
 30.37     725.50      26.94
 30.47     750.15      27.39
 30.57     706.76      26.58
 30.67     769.00      27.73
 30.77     788.00      28.07
 30.87     743.00      27.26
 30.97     752.90      27.44
 31.07     830.00      28.81
 31.17     889.00      29.82
 31.27     812.00      28.50
 31.37     821.00      28.65
 31.47     748.00      27.35
 31.57     687.24      26.22
 31.67     675.61      25.99
 31.77     686.00      26.19
 31.87     720.00      26.83
 31.97     695.00      26.36
 32.07     607.19      24.64
 32.17     652.82      25.55
 32.27     677.09      26.02
 32.37     596.75      24.43
 32.47     649.76      25.49
 32.57     670.17      25.89
 32.67     711.00      26.66
 32.77     609.01      24.68
 32.87     662.00      25.73
 32.97     675.00      25.98
 33.07     607.15      24.64
 33.17     635.75      25.21
 33.27     696.94      26.40
 33.37     671.00      25.90
 33.47     665.53      25.80
 33.57     665.00      25.79
 33.67     658.14      25.65
 33.77     674.50      25.97
 33.87     735.00      27.11
 33.97     887.65      29.79
 34.07     938.00      30.63
 34.17    1147.03      33.87
 34.27    1334.49      36.53
 34.37    1377.89      37.12
 34.47    1243.00      35.26
 34.57    1101.61      33.19
 34.67    1047.41      32.36
 34.77     815.00      28.55
 34.87     768.00      27.71
 34.97     729.00      27.00
 35.07     717.00      26.78
 35.17     726.00      26.94
 35.27     630.47      25.11
 35.37     754.00      27.46
 35.47     689.00      26.25
 35.57     670.00      25.88
 35.67     609.04      24.68
 35.77     665.32      25.79
 35.87     608.04      24.66
 35.97     649.00      25.48
 36.07     591.00      24.31
 36.17     616.00      24.82
 36.27     670.15      25.89
 36.37     639.00      25.28
 36.47     585.50      24.20
 36.57     593.99      24.37
 36.67     631.00      25.12
 36.77     634.00      25.18
 36.87     619.00      24.88
 36.97     624.00      24.98
 37.07     655.00      25.59
 37.17     661.00      25.71
 37.27     644.04      25.38
 37.37     613.00      24.76
 37.47     622.00      24.94
 37.57     652.00      25.53
 37.67     668.14      25.85
 37.77     632.70      25.15
 37.87     650.87      25.51
 37.97     725.00      26.93
 38.07     783.46      27.99
 38.17     775.00      27.84
 38.27     757.79      27.53
 38.37     777.00      27.87
 38.47     795.00      28.20
 38.57     731.00      27.04
 38.67     740.00      27.20
 38.77     731.00      27.04
 38.87     642.06      25.34
 38.97     653.00      25.55
 39.07     584.00      24.17
 39.17     632.00      25.14
 39.27     611.00      24.72
 39.37     588.66      24.26
 39.47     618.00      24.86
 39.57     607.00      24.64
 39.67     608.54      24.67
 39.77     611.89      24.74
 39.87     638.00      25.26
 39.97     638.00      25.26
 40.07     624.00      24.98
 40.17     604.00      24.58
 40.27     605.00      24.60
 40.37     649.00      25.48
 40.47     635.00      25.20
 40.57     630.65      25.11
 40.67     620.63      24.91
 40.77     593.00      24.35
 40.87     605.00      24.60
 40.97     621.56      24.93
 41.07     599.00      24.47
 41.17     602.76      24.55
 41.27     635.00      25.20
 41.37     610.00      24.70
 41.47     578.74      24.06
 41.57     642.41      25.35
 41.67     589.00      24.27
 41.77     574.60      23.97
 41.87     634.40      25.19
 41.97     630.00      25.10
 42.07     669.77      25.88
 42.17     678.76      26.05
 42.27     660.00      25.69
 42.37     654.00      25.57
 42.47     655.89      25.61
 42.57     634.00      25.18
 42.67     666.11      25.81
 42.77     660.00      25.69
 42.87     673.00      25.94
 42.97     684.00      26.15
 43.07     706.00      26.57
 43.17     795.08      28.20
 43.27     750.00      27.39
 43.37     725.00      26.93
 43.47     641.00      25.32
 43.57     633.17      25.16
 43.67     652.00      25.53
 43.77     651.00      25.51
 43.87     589.00      24.27
 43.97     597.65      24.45
 44.07     636.00      25.22
 44.17     578.00      24.04
 44.27     656.08      25.61
 44.37     637.00      25.24
 44.47     650.00      25.50
 44.57     632.00      25.14
 44.67     633.00      25.16
 44.77     616.00      24.82
 44.87     698.00      26.42
 44.97     627.00      25.04
 45.07     661.76      25.72
 45.17     617.74      24.85
 45.27     618.00      24.86
 45.37     645.79      25.41
 45.47     637.00      25.24
 45.57     608.06      24.66
 45.67     638.00      25.26
 45.77     684.00      26.15
 45.87     674.98      25.98
 45.97     648.00      25.46
 46.07     606.00      24.62
 46.17     599.00      24.47
 46.27     628.00      25.06
 46.37     620.00      24.90
 46.47     659.00      25.67
 46.57     650.00      25.50
 46.67     662.00      25.73
 46.77     639.00      25.28
 46.87     629.00      25.08
 46.97     636.00      25.22
 47.07     627.00      25.04
 47.17     625.00      25.00
 47.27     641.06      25.32
 47.37     664.00      25.77
 47.47     633.00      25.16
 47.57     626.44      25.03
 47.67     658.00      25.65
 47.77     658.95      25.67
 47.87     665.00      25.79
 47.97     703.00      26.51
 48.07     709.06      26.63
 48.17     685.00      26.17
 48.27     745.00      27.29
 48.37     733.00      27.07
 48.47     768.00      27.71
 48.57     718.00      26.80
 48.67     705.52      26.56
 48.77     707.92      26.61
 48.87     655.57      25.60
 48.97     657.87      25.65
 49.07     730.12      27.02
 49.17     682.00      26.12
 49.27     630.00      25.10
 49.37     690.00      26.27
 49.47     667.00      25.83
 49.57     646.00      25.42
 49.67     707.00      26.59
 49.77     782.82      27.98
 49.87     828.00      28.77
 49.97     968.00      31.11
 50.07    1197.00      34.60
 50.17    1488.00      38.57
 50.27    1850.00      43.01
 50.37    2433.00      49.33
 50.47    3003.12      54.80
 50.57    3254.00      57.04
 50.67    3331.00      57.71
 50.77    3066.31      55.37
 50.87    2504.32      50.04
 50.97    2110.00      45.93
 51.07    1588.00      39.85
 51.17    1216.00      34.87
 51.27    1058.00      32.53
 51.37     932.73      30.54
 51.47     895.00      29.92
 51.57     816.00      28.57
 51.67     820.22      28.64
 51.77     812.00      28.50
 51.87     758.95      27.55
 51.97     759.00      27.55
 52.07     734.00      27.09
 52.17     705.46      26.56
 52.27     703.00      26.51
 52.37     755.00      27.48
 52.47     739.84      27.20
 52.57     715.00      26.74
 52.67     797.00      28.23
 52.77     704.00      26.53
 52.87     731.00      27.04
 52.97     750.00      27.39
 53.07     762.70      27.62
 53.17     727.69      26.98
 53.27     777.00      27.87
 53.37     802.00      28.32
 53.47     852.00      29.19
 53.57     903.50      30.06
 53.67    1051.80      32.43
 53.77    1186.00      34.44
 53.87    1297.61      36.02
 53.97    1369.26      37.00
 54.07    1417.12      37.64
 54.17    1302.00      36.08
 54.27    1277.00      35.74
 54.37    1076.68      32.81
 54.47     964.75      31.06
 54.57     916.00      30.27
 54.67     894.00      29.90
 54.77     785.06      28.02
 54.87     750.00      27.39
 54.97     723.00      26.89
 55.07     707.00      26.59
 55.17     730.83      27.03
 55.27     685.56      26.18
 55.37     712.00      26.68
 55.47     720.00      26.83
 55.57     656.00      25.61
 55.67     706.25      26.58
 55.77     742.48      27.25
 55.87     695.00      26.36
 55.97     686.32      26.20
 56.07     712.00      26.68
 56.17     753.00      27.44
 56.27     736.06      27.13
 56.37     754.00      27.46
 56.47     796.00      28.21
 56.57     939.36      30.65
 56.67     985.00      31.38
 56.77    1140.00      33.76
 56.87    1481.19      38.49
 56.97    1673.13      40.90
 57.07    2043.00      45.20
 57.17    2448.00      49.48
 57.27    2661.00      51.58
 57.37    2825.00      53.15
 57.47    2719.97      52.15
 57.57    2573.00      50.72
 57.67    2232.91      47.25
 57.77    1837.00      42.86
 57.87    1548.00      39.34
 57.97    1276.00      35.72
 58.07    1067.00      32.66
 58.17     987.00      31.42
 58.27     891.24      29.85
 58.37     836.00      28.91
 58.47     787.36      28.06
 58.57     800.53      28.29
 58.67     820.00      28.64
 58.77     853.79      29.22
 58.87     984.00      31.37
 58.97    1083.00      32.91
 59.07    1132.00      33.65
 59.17    1253.63      35.41
 59.27    1292.00      35.94
 59.37    1386.31      37.23
 59.47    1372.00      37.04
 59.57    1299.00      36.04
 59.67    1297.00      36.01
 59.77    1378.00      37.12
 59.87    1311.00      36.21
 59.97    1278.00      35.75
 60.07    1323.00      36.37
 60.17    1292.00      35.94
 60.27    1273.00      35.68
 60.37    1453.00      38.12
 60.47    1475.00      38.41
 60.57    1535.08      39.18
 60.67    1558.09      39.47
 60.77    1664.00      40.79
 60.87    1613.48      40.17
 60.97    1551.00      39.38
 61.07    1411.56      37.57
 61.17    1248.00      35.33
 61.27    1119.00      33.45
 61.37     937.00      30.61
 61.47     877.00      29.61
 61.57     875.16      29.58
 61.67     853.74      29.22
 61.77     848.00      29.12
 61.87     875.00      29.58
 61.97     974.62      31.22
 62.07     985.86      31.40
 62.17    1148.00      33.88
 62.27    1297.79      36.02
 62.37    1459.00      38.20
 62.47    1688.00      41.09
 62.57    1745.00      41.77
 62.67    1904.52      43.64
 62.77    1836.71      42.86
 62.87    1881.00      43.37
 62.97    1644.00      40.55
 63.07    1536.00      39.19
 63.17    1320.00      36.33
 63.27    1208.58      34.76
 63.37    1060.34      32.56
 63.47     894.22      29.90
 63.57     855.39      29.25
 63.67     859.15      29.31
 63.77     799.86      28.28
 63.87     802.52      28.33
 63.97     807.00      28.41
 64.07     814.00      28.53
 64.17     769.00      27.73
 64.27     841.23      29.00
 64.37     739.00      27.18
 64.47     868.00      29.46
 64.57     919.00      30.32
 64.67    1005.00      31.70
 64.77    1173.82      34.26
 64.87    1180.26      34.35
 64.97    1348.00      36.72
 65.07    1520.00      38.99
 65.17    1609.00      40.11
 65.27    1755.00      41.89
 65.37    1663.01      40.78
 65.47    1611.22      40.14
 65.57    1618.92      40.24
 65.67    1449.00      38.07
 65.77    1250.94      35.37
 65.87    1214.21      34.85
 65.97    1065.00      32.63
 66.07     984.00      31.37
 66.17     820.00      28.64
 66.27     861.00      29.34
 66.37     785.00      28.02
 66.47     771.00      27.77
 66.57     746.00      27.31
 66.67     682.00      26.12
 66.77     680.00      26.08
 66.87     733.17      27.08
 66.97     662.00      25.73
 67.07     719.00      26.81
 67.17     743.84      27.27
 67.27     733.00      27.07
 67.37     769.00      27.73
 67.47     744.00      27.28
 67.57     779.00      27.91
 67.67     811.00      28.48
 67.77     950.88      30.84
 67.87    1051.78      32.43
 67.97    1075.23      32.79
 68.07    1334.93      36.54
 68.17    1501.00      38.74
 68.27    1733.00      41.63
 68.37    1958.00      44.25
 68.47    2192.00      46.82
 68.57    2501.00      50.01
 68.67    2579.00      50.78
 68.77    2674.86      51.72
 68.87    2536.00      50.36
 68.97    2327.00      48.24
 69.07    2214.00      47.05
 69.17    1871.00      43.26
 69.27    1616.89      40.21
 69.37    1386.00      37.23
 69.47    1274.00      35.69
 69.57    1132.00      33.65
 69.67    1078.00      32.83
 69.77     829.05      28.79
 69.87     865.89      29.43
 69.97     898.00      29.97
 70.07     783.00      27.98
 70.17     718.00      26.80
 70.27     789.81      28.10
 70.37     797.00      28.23
 70.47     706.83      26.59
 70.57     732.00      27.06
 70.67     713.00      26.70
 70.77     679.98      26.08
 70.87     669.70      25.88
 70.97     774.28      27.83
 71.07     689.00      26.25
 71.17     762.78      27.62
 71.27     764.00      27.64
 71.37     779.00      27.91
 71.47     710.84      26.66
 71.57     790.16      28.11
 71.67     832.00      28.84
 71.77     884.38      29.74
 71.87     966.00      31.08
 71.97    1038.00      32.22
 72.07    1182.63      34.39
 72.17    1307.00      36.15
 72.27    1555.00      39.43
 72.37    1723.00      41.51
 72.47    1863.00      43.16
 72.57    2021.00      44.96
 72.67    2130.31      46.16
 72.77    2050.00      45.28
 72.87    2020.00      44.94
 72.97    1895.37      43.54
 73.07    1751.82      41.85
 73.17    1578.00      39.72
 73.27    1374.00      37.07
 73.37    1179.21      34.34
 73.47    1102.11      33.20
 73.57     998.41      31.60
 73.67     877.00      29.61
 73.77     859.00      29.31
 73.87     783.44      27.99
 73.97     769.00      27.73
 74.07     748.00      27.35
 74.17     744.00      27.28
 74.27     716.00      26.76
 74.37     760.00      27.57
 74.47     732.17      27.06
 74.57     677.93      26.04
 74.67     729.00      27.00
 74.77     661.00      25.71
 74.87     724.00      26.91
 74.97     710.00      26.65
 75.07     767.00      27.69
 75.17     750.00      27.39
 75.27     748.88      27.37
 75.37     762.52      27.61
 75.47     698.00      26.42
 75.57     756.51      27.50
 75.67     679.76      26.07
 75.77     752.00      27.42
 75.87     762.44      27.61
 75.97     743.00      27.26
 76.07     746.59      27.32
 76.17     725.00      26.93
 76.27     749.14      27.37
 76.37     774.57      27.83
 76.47     733.01      27.07
 76.57     832.72      28.86
 76.67     870.78      29.51
 76.77     870.00      29.50
 76.87     923.00      30.38
 76.97     949.74      30.82
 77.07     957.95      30.95
 77.17    1080.00      32.86
 77.27    1026.05      32.03
 77.37    1017.00      31.89
 77.47    1075.59      32.80
 77.57    1080.00      32.86
 77.67    1099.00      33.15
 77.77     968.47      31.12
 77.87     904.00      30.07
 77.97     839.07      28.97
 78.07     779.07      27.91
 78.17     827.23      28.76
 78.27     721.00      26.85
 78.37     720.30      26.84
 78.47     745.00      27.29
 78.57     716.35      26.76
 78.67     708.00      26.61
 78.77     644.00      25.38
 78.87     636.12      25.22
 78.97     678.00      26.04
 79.07     613.00      24.76
 79.17     644.00      25.38
 79.27     675.00      25.98
 79.37     634.00      25.18
 79.47     604.00      24.58
 79.57     619.00      24.88
 79.67     706.00      26.57
 79.77     705.99      26.57
 79.87     695.35      26.37
 79.97     698.00      26.42
 80.07     655.00      25.59
 80.17     697.00      26.40
 80.27     640.00      25.30
 80.37     698.00      26.42
 80.47     734.00      27.09
 80.57     765.95      27.68
 80.67     795.66      28.21
 80.77     755.58      27.49
 80.87     864.00      29.39
 80.97     933.00      30.55
 81.07    1030.00      32.09
 81.17    1034.00      32.16
 81.27    1168.26      34.18
 81.37    1363.00      36.92
 81.47    1392.00      37.31
 81.57    1310.45      36.20
 81.67    1542.00      39.27
 81.77    1499.89      38.73
 81.87    1564.00      39.55
 81.97    1626.00      40.32
 82.07    1590.00      39.87
 82.17    1521.00      39.00
 82.27    1494.00      38.65
 82.37    1361.00      36.89
 82.47    1188.50      34.47
 82.57    1185.00      34.42
 82.67    1065.61      32.64
 82.77    1072.00      32.74
 82.87     948.00      30.79
 82.97     884.00      29.73
 83.07     902.63      30.04
 83.17     830.77      28.82
 83.27     766.00      27.68
 83.37     731.00      27.04
 83.47     758.25      27.54
 83.57     673.00      25.94
 83.67     766.42      27.68
 83.77     687.00      26.21
 83.87     742.19      27.24
 83.97     702.35      26.50
 84.07     648.00      25.46
 84.17     710.58      26.66
 84.27     681.00      26.10
 84.37     649.00      25.48
 84.47     686.00      26.19
 84.57     717.00      26.78
 84.67     741.60      27.23
 84.77     726.00      26.94
 84.87     673.00      25.94
 84.97     688.00      26.23
 85.07     647.00      25.44
 85.17     658.00      25.65
 85.27     700.00      26.46
 85.37     695.63      26.37
 85.47     655.00      25.59
 85.57     659.00      25.67
 85.67     617.00      24.84
 85.77     618.00      24.86
 85.87     639.00      25.28
 85.97     626.00      25.02
 86.07     663.00      25.75
 86.17     638.89      25.28
 86.27     660.00      25.69
 86.37     610.23      24.70
 86.47     643.00      25.36
 86.57     675.87      26.00
 86.67     669.00      25.87
 86.77     670.00      25.88
 86.87     655.00      25.59
 86.97     758.00      27.53
 87.07     683.00      26.13
 87.17     732.00      27.06
 87.27     730.11      27.02
 87.37     707.33      26.60
 87.47     694.89      26.36
 87.57     715.58      26.75
 87.67     694.00      26.34
 87.77     705.45      26.56
 87.87     722.00      26.87
 87.97     725.00      26.93
 88.07     766.00      27.68
 88.17     739.00      27.18
 88.27     780.00      27.93
 88.37     758.00      27.53
 88.47     769.39      27.74
 88.57     717.00      26.78
 88.67     732.00      27.06
 88.77     730.00      27.02
 88.87     676.90      26.02
 88.97     703.00      26.51
 89.07     659.00      25.67
 89.17     699.00      26.44
 89.27     672.00      25.92
 89.37     731.00      27.04
 89.47     698.00      26.42
 89.57     623.00      24.96
 89.67     644.86      25.39
 89.77     675.83      26.00
 89.87     690.00      26.27
 89.97     721.30      26.86
 90.07     741.00      27.22
 90.17     737.22      27.15
 90.27     744.00      27.28
 90.37     655.00      25.59
 90.47     660.00      25.69
 90.57     688.00      26.23
 90.67     644.00      25.38
 90.77     653.00      25.55
 90.87     691.70      26.30
 90.97     687.31      26.22
 91.07     616.00      24.82
 91.17     602.00      24.54
 91.27     692.57      26.32
 91.37     618.84      24.88
 91.47     607.00      24.64
 91.57     615.67      24.81
 91.67     636.49      25.23
 91.77     619.00      24.88
 91.87     639.00      25.28
 91.97     631.00      25.12
 92.07     596.00      24.41
 92.17     656.97      25.63
 92.27     599.00      24.47
 92.37     636.00      25.22
 92.47     592.00      24.33
 92.57     599.00      24.47
 92.67     583.56      24.16
 92.77     585.98      24.21
 92.87     691.00      26.29
 92.97     611.85      24.74
 93.07     639.00      25.28
 93.17     731.00      27.04
 93.27     655.00      25.59
 93.37     719.00      26.81
 93.47     710.00      26.65
 93.57     772.00      27.78
 93.67     779.00      27.91
 93.77     754.00      27.46
 93.87     791.00      28.12
 93.97     790.45      28.11
 94.07     852.58      29.20
 94.17     824.00      28.71
 94.27     880.00      29.66
 94.37     841.00      29.00
 94.47     890.15      29.84
 94.57     936.03      30.59
 94.67     959.00      30.97
 94.77     972.00      31.18
 94.87     948.00      30.79
 94.97    1047.00      32.36
 95.07     944.02      30.72
 95.17    1034.00      32.16
 95.27    1067.00      32.66
 95.37    1101.00      33.18
 95.47    1103.12      33.21
 95.57    1033.70      32.15
 95.67    1103.00      33.21
 95.77    1074.00      32.77
 95.87    1004.24      31.69
 95.97    1081.40      32.88
 96.07    1087.00      32.97
 96.17     993.00      31.51
 96.27    1035.77      32.18
 96.37    1006.82      31.73
 96.47     874.99      29.58
 96.57     912.00      30.20
 96.67     928.00      30.46
 96.77     868.14      29.46
 96.87     811.34      28.48
 96.97     776.12      27.86
 97.07     850.00      29.15
 97.17     894.00      29.90
 97.27     857.00      29.27
 97.37     910.52      30.17
 97.47    1006.00      31.72
 97.57     997.38      31.58
 97.67    1107.85      33.28
 97.77    1162.00      34.09
 97.87    1248.97      35.34
 97.97    1264.00      35.55
 98.07    1385.65      37.22
 98.17    1370.00      37.01
 98.27    1551.00      39.38
 98.37    1604.00      40.05
 98.47    1593.78      39.92
 98.57    1593.28      39.92
 98.67    1673.00      40.90
 98.77    1551.00      39.38
 98.87    1567.67      39.59
 98.97    1547.00      39.33
 99.07    1453.00      38.12
 99.17    1395.00      37.35
 99.27    1324.86      36.40
 99.37    1290.00      35.92
 99.47    1199.00      34.63
 99.57    1174.83      34.28
 99.67    1105.00      33.24
 99.77    1063.00      32.60
 99.87    1075.00      32.79
 99.97    1102.75      33.21
100.07    1073.05      32.76
100.17    1106.00      33.26
100.27    1056.00      32.50
100.37    1100.84      33.18
100.47    1229.00      35.06
100.57    1193.00      34.54
100.67    1370.00      37.01
100.77    1361.00      36.89
100.87    1483.49      38.52
100.97    1570.00      39.62
101.07    1638.64      40.48
101.17    1811.00      42.56
101.27    1881.00      43.37
101.37    2009.00      44.82
101.47    1918.56      43.80
101.57    2038.00      45.14
101.67    2082.00      45.63
101.77    2171.25      46.60
101.87    2200.00      46.90
101.97    2108.00      45.91
102.07    2143.00      46.29
102.17    2164.23      46.52
102.27    2057.38      45.36
102.37    1914.00      43.75
102.47    2027.00      45.02
102.57    1811.00      42.56
102.67    1838.33      42.88
102.77    1802.90      42.46
102.87    1631.00      40.39
102.97    1603.00      40.04
103.07    1592.02      39.90
103.17    1485.22      38.54
103.27    1476.00      38.42
103.37    1463.35      38.25
103.47    1403.39      37.46
103.57    1319.00      36.32
103.67    1301.00      36.07
103.77    1258.00      35.47
103.87    1223.22      34.97
103.97    1179.00      34.34
104.07    1131.00      33.63
104.17    1147.00      33.87
104.27    1087.48      32.98
104.37    1106.00      33.26
104.47    1002.00      31.65
104.57     953.83      30.88
104.67     870.97      29.51
104.77     871.00      29.51
104.87     861.00      29.34
104.97     827.55      28.77
105.07     775.00      27.84
105.17     806.19      28.39
105.27     785.00      28.02
105.37     654.38      25.58
105.47     657.54      25.64
105.57     726.00      26.94
105.67     645.00      25.40
105.77     680.97      26.10
105.87     601.43      24.52
105.97     680.00      26.08
106.07     679.29      26.06
106.17     656.00      25.61
106.27     674.00      25.96
106.37     643.00      25.36
106.47     675.00      25.98
106.57     586.54      24.22
106.67     661.00      25.71
106.77     610.00      24.70
106.87     627.00      25.04
106.97     617.42      24.85
107.07     670.00      25.88
107.17     702.00      26.50
107.27     699.00      26.44
107.37     742.71      27.25
107.47     661.34      25.72
107.57     710.00      26.65
107.67     762.00      27.60
107.77     728.00      26.98
107.87     738.00      27.17
107.97     733.00      27.07
108.07     798.00      28.25
108.17     815.00      28.55
108.27     771.46      27.78
108.37     785.00      28.02
108.47     824.06      28.71
108.57     832.00      28.84
108.67     779.00      27.91
108.77     768.00      27.71
108.87     862.00      29.36
108.97     848.00      29.12
109.07     869.25      29.48
109.17     744.00      27.28
109.27     813.00      28.51
109.37     761.00      27.59
109.47     819.00      28.62
109.57     794.31      28.18
109.67     822.13      28.67
109.77     799.00      28.27
109.87     781.99      27.96
109.97     768.00      27.71
110.07     831.17      28.83
110.17     804.00      28.35
110.27     787.00      28.05
110.37     745.00      27.29
110.47     816.40      28.57
110.57     776.00      27.86
110.67     764.00      27.64
110.77     827.00      28.76
110.87     766.00      27.68
110.97     785.00      28.02
111.07     699.79      26.45
111.17     744.00      27.28
111.27     677.34      26.03
111.37     718.00      26.80
111.47     758.00      27.53
111.57     725.39      26.93
111.67     691.96      26.31
111.77     682.00      26.12
111.87     659.04      25.67
111.97     618.37      24.87
112.07     667.00      25.83
112.17     662.00      25.73
112.27     647.00      25.44
112.37     684.22      26.16
112.47     639.64      25.29
112.57     608.00      24.66
112.67     613.53      24.77
112.77     612.31      24.74
112.87     627.98      25.06
112.97     660.00      25.69
113.07     652.00      25.53
113.17     595.65      24.41
113.27     606.69      24.63
113.37     632.00      25.14
113.47     663.91      25.77
113.57     668.00      25.85
113.67     697.84      26.42
113.77     643.00      25.36
113.87     617.83      24.86
113.97     647.00      25.44
114.07     643.00      25.36
114.17     648.58      25.47
114.27     695.46      26.37
114.37     653.04      25.55
114.47     713.00      26.70
114.57     680.34      26.08
114.67     740.00      27.20
114.77     793.25      28.16
114.87     782.00      27.96
114.97     834.97      28.90
115.07     826.66      28.75
115.17     855.00      29.24
115.27     880.02      29.67
115.37     961.74      31.01
115.47    1071.22      32.73
115.57    1088.00      32.98
115.67    1166.08      34.15
115.77    1364.93      36.94
115.87    1404.99      37.48
115.97    1628.00      40.35
116.07    1886.00      43.43
116.17    2064.00      45.43
116.27    2303.00      47.99
116.37    2503.09      50.03
116.47    2872.00      53.59
116.57    3065.00      55.36
116.67    3317.00      57.59
116.77    3825.00      61.85
116.87    4066.00      63.77
116.97    4575.00      67.64
117.07    4783.94      69.17
117.17    5263.00      72.55
117.27    5643.00      75.12
117.37    6023.00      77.61
117.47    6380.00      79.87
117.57    6876.00      82.92
117.67    6999.00      83.66
117.77    7380.00      85.91
117.87    7569.00      87.00
117.97    7635.00      87.38
118.07    7730.00      87.92
118.17    7723.00      87.88
118.27    7586.00      87.10
118.37    7427.00      86.18
118.47    7194.17      84.82
118.57    6776.00      82.32
118.67    6621.00      81.37
118.77    6390.22      79.94
118.87    5724.00      75.66
118.97    5537.00      74.41
119.07    5291.69      72.74
119.17    4837.81      69.55
119.27    4506.66      67.13
119.37    4234.00      65.07
119.47    3757.00      61.29
119.57    3419.91      58.48
119.67    3025.00      55.00
119.77    2739.00      52.34
119.87    2484.00      49.84
119.97    2280.00      47.75
120.07    2161.00      46.49
120.17    1838.17      42.87
120.27    1781.90      42.21
120.37    1561.78      39.52
120.47    1472.00      38.37
120.57    1376.00      37.09
120.67    1304.96      36.12
120.77    1120.83      33.48
120.87    1137.48      33.73
120.97     975.91      31.24
121.07     999.00      31.61
121.17     958.00      30.95
121.27     915.87      30.26
121.37     839.00      28.97
121.47     815.00      28.55
121.57     811.00      28.48
121.67     818.00      28.60
121.77     768.00      27.71
121.87     781.00      27.95
121.97     817.50      28.59
122.07     792.76      28.16
122.17     736.00      27.13
122.27     728.58      26.99
122.37     706.00      26.57
122.47     704.29      26.54
122.57     709.00      26.63
122.67     749.00      27.37
122.77     781.14      27.95
122.87     710.00      26.65
122.97     727.47      26.97
123.07     733.00      27.07
123.17     734.00      27.09
123.27     707.60      26.60
123.37     769.92      27.75
123.47     830.33      28.82
123.57     768.00      27.71
123.67     809.00      28.44
123.77     843.00      29.03
123.87     748.72      27.36
123.97     817.00      28.58
124.07     789.00      28.09
124.17     784.00      28.00
124.27     841.00      29.00
124.37     803.97      28.35
124.47     854.00      29.22
124.57     867.00      29.44
124.67     874.00      29.56
124.77     757.19      27.52
124.87     756.41      27.50
124.97     781.00      27.95
