  9.97     668.10      25.85
 10.07     730.00      27.02
 10.17     685.00      26.17
 10.27     726.00      26.94
 10.37     771.00      27.77
 10.47     745.39      27.30
 10.57     702.00      26.50
 10.67     738.00      27.17
 10.77     677.55      26.03
 10.87     714.00      26.72
 10.97     685.00      26.17
 11.07     710.96      26.66
 11.17     702.26      26.50
 11.27     758.00      27.53
 11.37     729.00      27.00
 11.47     676.72      26.01
 11.57     738.00      27.17
 11.67     738.00      27.17
 11.77     723.69      26.90
 11.87     733.86      27.09
 11.97     835.00      28.90
 12.07     866.00      29.43
 12.17     816.00      28.57
 12.27     826.00      28.74
 12.37     854.45      29.23
 12.47     763.00      27.62
 12.57     776.76      27.87
 12.67     776.00      27.86
 12.77     735.00      27.11
 12.87     725.33      26.93
 12.97     698.00      26.42
 13.07     715.00      26.74
 13.17     630.00      25.10
 13.27     645.56      25.41
 13.37     734.82      27.11
 13.47     702.00      26.50
 13.57     696.00      26.38
 13.67     667.69      25.84
 13.77     719.00      26.81
 13.87     645.00      25.40
 13.97     666.00      25.81
 14.07     672.00      25.92
 14.17     701.00      26.48
 14.27     713.60      26.71
 14.37     710.81      26.66
 14.47     635.00      25.20
 14.57     654.00      25.57
 14.67     663.00      25.75
 14.77     646.00      25.42
 14.87     637.00      25.24
 14.97     670.00      25.88
 15.07     674.00      25.96
 15.17     665.96      25.81
 15.27     672.76      25.94
 15.37     656.26      25.62
 15.47     628.97      25.08
 15.57     659.00      25.67
 15.67     679.49      26.07
 15.77     664.01      25.77
 15.87     650.00      25.50
 15.97     661.00      25.71
 16.07     619.02      24.88
 16.17     672.00      25.92
 16.27     666.00      25.81
 16.37     673.00      25.94
 16.47     638.00      25.26
 16.57     630.00      25.10
 16.67     692.00      26.31
 16.77     703.68      26.53
 16.87     651.17      25.52
 16.97     662.00      25.73
 17.07     630.00      25.10
 17.17     707.66      26.60
 17.27     668.00      25.85
 17.37     682.58      26.13
 17.47     632.00      25.14
 17.57     653.00      25.55
 17.67     678.15      26.04
 17.77     669.78      25.88
 17.87     642.95      25.36
 17.97     642.00      25.34
 18.07     648.37      25.46
 18.17     659.00      25.67
 18.27     610.00      24.70
 18.37     641.93      25.34
 18.47     689.04      26.25
 18.57     609.44      24.69
 18.67     628.00      25.06
 18.77     671.00      25.90
 18.87     639.00      25.28
 18.97     677.27      26.02
 19.07     612.00      24.74
 19.17     648.58      25.47
 19.27     663.00      25.75
 19.37     617.00      24.84
 19.47     665.00      25.79
 19.57     610.00      24.70
 19.67     632.00      25.14
 19.77     600.00      24.49
 19.87     656.00      25.61
 19.97     658.74      25.67
 20.07     632.00      25.14
 20.17     655.42      25.60
 20.27     602.00      24.54
 20.37     638.00      25.26
 20.47     597.00      24.43
 20.57     619.33      24.89
 20.67     686.33      26.20
 20.77     618.00      24.86
 20.87     640.00      25.30
 20.97     599.21      24.48
 21.07     669.87      25.88
 21.17     624.00      24.98
 21.27     630.00      25.10
 21.37     632.00      25.14
 21.47     676.00      26.00
 21.57     640.00      25.30
 21.67     647.00      25.44
 21.77     667.00      25.83
 21.87     612.58      24.75
 21.97     667.85      25.84
 22.07     598.00      24.45
 22.17     677.68      26.03
 22.27     624.06      24.98
 22.37     612.00      24.74
 22.47     587.00      24.23
 22.57     624.00      24.98
 22.67     632.00      25.14
 22.77     617.00      24.84
 22.87     622.00      24.94
 22.97     658.96      25.67
 23.07     664.10      25.77
 23.17     657.00      25.63
 23.27     632.42      25.15
 23.37     659.83      25.69
 23.47     653.00      25.55
 23.57     624.89      25.00
 23.67     656.00      25.61
 23.77     638.00      25.26
 23.87     616.00      24.82
 23.97     601.07      24.52
 24.07     612.00      24.74
 24.17     655.00      25.59
 24.27     647.00      25.44
 24.37     632.60      25.15
 24.47     644.39      25.38
 24.57     625.46      25.01
 24.67     615.62      24.81
 24.77     686.50      26.20
 24.87     649.33      25.48
 24.97     713.13      26.70
 25.07     749.00      27.37
 25.17     713.10      26.70
 25.27     657.11      25.63
 25.37     626.33      25.03
 25.47     652.38      25.54
 25.57     662.23      25.73
 25.67     631.36      25.13
 25.77     693.00      26.32
 25.87     674.00      25.96
 25.97     668.00      25.85
 26.07     672.00      25.92
 26.17     621.00      24.92
 26.27     611.98      24.74
 26.37     655.00      25.59
 26.47     648.00      25.46
 26.57     707.48      26.60
 26.67     726.00      26.94
 26.77     664.00      25.77
 26.87     637.00      25.24
 26.97     674.64      25.97
 27.07     675.00      25.98
 27.17     724.41      26.91
 27.27     683.00      26.13
 27.37     710.50      26.66
 27.47     723.13      26.89
 27.57     846.03      29.09
 27.67     776.00      27.86
 27.77     929.00      30.48
 27.87    1047.00      32.36
 27.97    1334.94      36.54
 28.07    2026.00      45.01
 28.17    3192.00      56.50
 28.27    5303.00      72.82
 28.37    7598.00      87.17
 28.47    8544.00      92.43
 28.57    8076.00      89.87
 28.67    6176.00      78.59
 28.77    4446.47      66.68
 28.87    3605.95      60.05
 28.97    3887.00      62.35
 29.07    4435.00      66.60
 29.17    4913.00      70.09
 29.27    4465.00      66.82
 29.37    3485.97      59.04
 29.47    2409.00      49.08
 29.57    1625.00      40.31
 29.67    1252.00      35.38
 29.77    1052.00      32.43
 29.87     945.00      30.74
 29.97     863.00      29.38
 30.07     817.00      28.58
 30.17     813.00      28.51
 30.27     756.00      27.50
 30.37     692.00      26.31
 30.47     741.13      27.22
 30.57     709.65      26.64
 30.67     708.00      26.61
 30.77     669.29      25.87
 30.87     726.00      26.94
 30.97     797.00      28.23
 31.07     744.00      27.28
 31.17     830.00      28.81
 31.27     745.25      27.30
 31.37     788.00      28.07
 31.47     717.00      26.78
 31.57     649.68      25.49
 31.67     712.00      26.68
 31.77     659.00      25.67
 31.87     659.00      25.67
 31.97     660.03      25.69
 32.07     638.17      25.26
 32.17     665.00      25.79
 32.27     651.54      25.53
 32.37     713.00      26.70
 32.47     668.10      25.85
 32.57     645.00      25.40
 32.67     642.00      25.34
 32.77     583.71      24.16
 32.87     622.00      24.94
 32.97     654.00      25.57
 33.07     636.00      25.22
 33.17     638.00      25.26
 33.27     593.85      24.37
 33.37     597.00      24.43
 33.47     605.89      24.61
 33.57     642.00      25.34
 33.67     646.00      25.42
 33.77     728.00      26.98
 33.87     793.00      28.16
 33.97     845.00      29.07
 34.07     936.00      30.59
 34.17    1102.00      33.20
 34.27    1253.00      35.40
 34.37    1313.05      36.24
 34.47    1226.99      35.03
 34.57    1084.00      32.92
 34.67     947.00      30.77
 34.77     781.00      27.95
 34.87     751.76      27.42
 34.97     757.00      27.51
 35.07     713.00      26.70
 35.17     709.00      26.63
 35.27     751.00      27.40
 35.37     651.00      25.51
 35.47     615.32      24.81
 35.57     655.00      25.59
 35.67     621.27      24.93
 35.77     636.00      25.22
 35.87     641.00      25.32
 35.97     646.88      25.43
 36.07     634.00      25.18
 36.17     610.00      24.70
 36.27     618.00      24.86
 36.37     620.00      24.90
 36.47     576.00      24.00
 36.57     583.19      24.15
 36.67     596.63      24.43
 36.77     620.00      24.90
 36.87     626.00      25.02
 36.97     619.00      24.88
 37.07     589.00      24.27
 37.17     649.43      25.48
 37.27     628.00      25.06
 37.37     631.00      25.12
 37.47     585.00      24.19
 37.57     597.60      24.45
 37.67     622.05      24.94
 37.77     640.13      25.30
 37.87     648.00      25.46
 37.97     703.00      26.51
 38.07     691.00      26.29
 38.17     710.00      26.65
 38.27     785.28      28.02
 38.37     821.28      28.66
 38.47     769.00      27.73
 38.57     771.75      27.78
 38.67     685.00      26.17
 38.77     669.38      25.87
 38.87     664.00      25.77
 38.97     594.00      24.37
 39.07     572.24      23.92
 39.17     601.00      24.52
 39.27     617.00      24.84
 39.37     615.90      24.82
 39.47     614.17      24.78
 39.57     644.43      25.39
 39.67     592.00      24.33
 39.77     626.00      25.02
 39.87     595.00      24.39
 39.97     606.89      24.64
 40.07     570.00      23.87
 40.17     570.00      23.87
 40.27     625.00      25.00
 40.37     621.34      24.93
 40.47     575.00      23.98
 40.57     603.19      24.56
 40.67     563.00      23.73
 40.77     569.00      23.85
 40.87     581.00      24.10
 40.97     584.00      24.17
 41.07     573.00      23.94
 41.17     635.00      25.20
 41.27     601.00      24.52
 41.37     631.00      25.12
 41.47     590.00      24.29
 41.57     556.00      23.58
 41.67     602.00      24.54
 41.77     634.72      25.19
 41.87     647.04      25.44
 41.97     582.00      24.12
 42.07     604.27      24.58
 42.17     600.00      24.49
 42.27     578.00      24.04
 42.37     593.38      24.36
 42.47     619.68      24.89
 42.57     621.14      24.92
 42.67     627.00      25.04
 42.77     687.98      26.23
 42.87     678.00      26.04
 42.97     658.00      25.65
 43.07     689.00      26.25
 43.17     661.24      25.71
 43.27     676.00      26.00
 43.37     661.00      25.71
 43.47     645.00      25.40
 43.57     626.00      25.02
 43.67     596.00      24.41
 43.77     637.00      25.24
 43.87     584.95      24.19
 43.97     621.00      24.92
 44.07     643.00      25.36
 44.17     647.00      25.44
 44.27     661.00      25.71
 44.37     555.98      23.58
 44.47     614.00      24.78
 44.57     621.00      24.92
 44.67     633.00      25.16
 44.77     622.00      24.94
 44.87     585.00      24.19
 44.97     610.67      24.71
 45.07     597.00      24.43
 45.17     628.00      25.06
 45.27     602.00      24.54
 45.37     608.00      24.66
 45.47     575.00      23.98
 45.57     620.77      24.92
 45.67     617.00      24.84
 45.77     641.00      25.32
 45.87     642.84      25.35
 45.97     631.39      25.13
 46.07     617.00      24.84
 46.17     564.29      23.75
 46.27     620.00      24.90
 46.37     650.84      25.51
 46.47     597.00      24.43
 46.57     615.00      24.80
 46.67     582.00      24.12
 46.77     605.00      24.60
 46.87     589.00      24.27
 46.97     561.89      23.70
 47.07     614.00      24.78
 47.17     613.00      24.76
 47.27     573.00      23.94
 47.37     608.00      24.66
 47.47     606.00      24.62
 47.57     635.00      25.20
 47.67     592.00      24.33
 47.77     641.00      25.32
 47.87     688.47      26.24
 47.97     656.00      25.61
 48.07     627.22      25.04
 48.17     721.90      26.87
 48.27     660.25      25.70
 48.37     701.00      26.48
 48.47     738.00      27.17
 48.57     684.37      26.16
 48.67     691.00      26.29
 48.77     667.90      25.84
 48.87     634.00      25.18
 48.97     557.00      23.60
 49.07     617.00      24.84
 49.17     688.41      26.24
 49.27     642.00      25.34
 49.37     639.00      25.28
 49.47     679.33      26.06
 49.57     687.00      26.21
 49.67     728.00      26.98
 49.77     794.73      28.19
 49.87     779.00      27.91
 49.97     897.00      29.95
 50.07    1215.00      34.86
 50.17    1494.00      38.65
 50.27    2075.48      45.56
 50.37    2511.00      50.11
 50.47    2971.00      54.51
 50.57    3149.00      56.12
 50.67    3161.00      56.22
 50.77    2815.61      53.06
 50.87    2419.00      49.18
 50.97    1866.64      43.20
 51.07    1465.68      38.28
 51.17    1173.00      34.25
 51.27     948.13      30.79
 51.37     818.00      28.60
 51.47     825.00      28.72
 51.57     798.13      28.25
 51.67     778.00      27.89
 51.77     703.30      26.52
 51.87     785.00      28.02
 51.97     709.00      26.63
 52.07     705.90      26.57
 52.17     704.50      26.54
 52.27     707.00      26.59
 52.37     649.67      25.49
 52.47     708.62      26.62
 52.57     652.76      25.55
 52.67     698.32      26.43
 52.77     708.00      26.61
 52.87     728.00      26.98
 52.97     665.00      25.79
 53.07     727.00      26.96
 53.17     675.59      25.99
 53.27     712.26      26.69
 53.37     761.00      27.59
 53.47     825.00      28.72
 53.57     977.89      31.27
 53.67    1069.40      32.70
 53.77    1122.00      33.50
 53.87    1217.00      34.89
 53.97    1304.00      36.11
 54.07    1229.00      35.06
 54.17    1233.00      35.11
 54.27    1155.00      33.99
 54.37    1007.69      31.74
 54.47     904.00      30.07
 54.57     903.00      30.05
 54.67     731.00      27.04
 54.77     740.00      27.20
 54.87     686.00      26.19
 54.97     740.00      27.20
 55.07     731.00      27.04
 55.17     664.88      25.79
 55.27     684.00      26.15
 55.37     686.00      26.19
 55.47     671.91      25.92
 55.57     704.00      26.53
 55.67     672.00      25.92
 55.77     669.00      25.87
 55.87     701.00      26.48
 55.97     736.00      27.13
 56.07     733.55      27.08
 56.17     697.00      26.40
 56.27     730.95      27.04
 56.37     816.00      28.57
 56.47     806.00      28.39
 56.57     953.67      30.88
 56.67    1072.46      32.75
 56.77    1230.00      35.07
 56.87    1421.00      37.70
 56.97    1743.26      41.75
 57.07    2136.93      46.23
 57.17    2521.00      50.21
 57.27    2744.00      52.38
 57.37    2723.00      52.18
 57.47    2593.78      50.93
 57.57    2437.00      49.37
 57.67    2103.00      45.86
 57.77    1731.93      41.62
 57.87    1398.00      37.39
 57.97    1208.00      34.76
 58.07    1047.17      32.36
 58.17     865.00      29.41
 58.27     876.00      29.60
 58.37     801.00      28.30
 58.47     844.62      29.06
 58.57     822.00      28.67
 58.67     802.00      28.32
 58.77     929.00      30.48
 58.87    1004.75      31.70
 58.97    1014.00      31.84
 59.07    1196.16      34.59
 59.17    1221.79      34.95
 59.27    1296.00      36.00
 59.37    1316.00      36.28
 59.47    1343.00      36.65
 59.57    1365.57      36.95
 59.67    1376.00      37.09
 59.77    1298.45      36.03
 59.87    1248.00      35.33
 59.97    1159.09      34.05
 60.07    1269.90      35.64
 60.17    1269.00      35.62
 60.27    1350.00      36.74
 60.37    1325.63      36.41
 60.47    1457.46      38.18
 60.57    1591.45      39.89
 60.67    1673.00      40.90
 60.77    1645.08      40.56
 60.87    1519.00      38.97
 60.97    1474.00      38.39
 61.07    1319.00      36.32
 61.17    1117.52      33.43
 61.27    1100.00      33.17
 61.37     995.00      31.54
 61.47     886.31      29.77
 61.57     774.00      27.82
 61.67     853.00      29.21
 61.77     857.61      29.29
 61.87     905.00      30.08
 61.97     915.00      30.25
 62.07    1039.00      32.23
 62.17    1082.00      32.89
 62.27    1311.42      36.21
 62.37    1480.00      38.47
 62.47    1630.99      40.39
 62.57    1648.00      40.60
 62.67    1887.00      43.44
 62.77    1865.47      43.19
 62.87    1776.00      42.14
 62.97    1560.00      39.50
 63.07    1458.00      38.18
 63.17    1253.00      35.40
 63.27    1093.67      33.07
 63.37     950.00      30.82
 63.47     841.00      29.00
 63.57     766.48      27.69
 63.67     760.02      27.57
 63.77     742.71      27.25
 63.87     701.97      26.49
 63.97     773.80      27.82
 64.07     704.90      26.55
 64.17     758.00      27.53
 64.27     752.00      27.42
 64.37     808.83      28.44
 64.47     800.46      28.29
 64.57     900.00      30.00
 64.67     980.00      31.30
 64.77    1121.00      33.48
 64.87    1201.56      34.66
 64.97    1304.00      36.11
 65.07    1431.00      37.83
 65.17    1556.00      39.45
 65.27    1559.90      39.50
 65.37    1587.41      39.84
 65.47    1530.00      39.12
 65.57    1368.76      37.00
 65.67    1268.88      35.62
 65.77    1176.70      34.30
 65.87    1099.08      33.15
 65.97     910.00      30.17
 66.07     910.00      30.17
 66.17     807.53      28.42
 66.27     841.00      29.00
 66.37     738.00      27.17
 66.47     762.00      27.60
 66.57     713.00      26.70
 66.67     706.74      26.58
 66.77     675.00      25.98
 66.87     705.00      26.55
 66.97     752.36      27.43
 67.07     665.19      25.79
 67.17     745.42      27.30
 67.27     740.00      27.20
 67.37     672.00      25.92
 67.47     809.96      28.46
 67.57     751.87      27.42
 67.67     840.00      28.98
 67.77     910.00      30.17
 67.87     969.00      31.13
 67.97    1164.00      34.12
 68.07    1421.50      37.70
 68.17    1553.00      39.41
 68.27    1753.05      41.87
 68.37    2048.00      45.25
 68.47    2328.00      48.25
 68.57    2491.98      49.92
 68.67    2549.00      50.49
 68.77    2569.00      50.69
 68.87    2464.00      49.64
 68.97    2191.13      46.81
 69.07    2046.00      45.23
 69.17    1684.24      41.04
 69.27    1543.00      39.28
 69.37    1311.00      36.21
 69.47    1097.50      33.13
 69.57    1037.00      32.20
 69.67     859.42      29.32
 69.77     900.00      30.00
 69.87     876.00      29.60
 69.97     784.01      28.00
 70.07     731.43      27.05
 70.17     711.00      26.66
 70.27     732.84      27.07
 70.37     694.24      26.35
 70.47     730.67      27.03
 70.57     658.75      25.67
 70.67     687.00      26.21
 70.77     682.17      26.12
 70.87     659.06      25.67
 70.97     648.77      25.47
 71.07     740.00      27.20
 71.17     701.00      26.48
 71.27     710.56      26.66
 71.37     767.00      27.69
 71.47     730.00      27.02
 71.57     820.00      28.64
 71.67     793.00      28.16
 71.77     913.00      30.22
 71.87     944.00      30.72
 71.97    1070.00      32.71
 72.07    1287.00      35.87
 72.17    1349.43      36.73
 72.27    1553.00      39.41
 72.37    1729.00      41.58
 72.47    1806.46      42.50
 72.57    1957.00      44.24
 72.67    1971.00      44.40
 72.77    1996.00      44.68
 72.87    1943.00      44.08
 72.97    1742.00      41.74
 73.07    1636.00      40.45
 73.17    1462.00      38.24
 73.27    1284.00      35.83
 73.37    1201.00      34.66
 73.47    1026.00      32.03
 73.57     885.00      29.75
 73.67     852.00      29.19
 73.77     825.68      28.73
 73.87     770.00      27.75
 73.97     788.00      28.07
 74.07     777.00      27.87
 74.17     732.18      27.06
 74.27     678.00      26.04
 74.37     700.00      26.46
 74.47     652.00      25.53
 74.57     689.00      26.25
 74.67     725.25      26.93
 74.77     617.00      24.84
 74.87     627.00      25.04
 74.97     725.69      26.94
 75.07     700.00      26.46
 75.17     695.00      26.36
 75.27     698.49      26.43
 75.37     719.00      26.81
 75.47     647.25      25.44
 75.57     689.00      26.25
 75.67     654.35      25.58
 75.77     683.00      26.13
 75.87     717.00      26.78
 75.97     693.00      26.32
 76.07     691.00      26.29
 76.17     663.00      25.75
 76.27     689.00      26.25
 76.37     679.12      26.06
 76.47     798.00      28.25
 76.57     752.00      27.42
 76.67     788.00      28.07
 76.77     878.00      29.63
 76.87     941.43      30.68
 76.97     899.93      30.00
 77.07     933.90      30.56
 77.17    1023.00      31.98
 77.27    1043.00      32.30
 77.37    1009.57      31.77
 77.47     987.88      31.43
 77.57     931.33      30.52
 77.67     896.00      29.93
 77.77     870.00      29.50
 77.87     829.00      28.79
 77.97     780.31      27.93
 78.07     731.00      27.04
 78.17     731.00      27.04
 78.27     702.00      26.50
 78.37     684.00      26.15
 78.47     690.28      26.27
 78.57     657.00      25.63
 78.67     660.00      25.69
 78.77     604.21      24.58
 78.87     642.00      25.34
 78.97     628.00      25.06
 79.07     611.00      24.72
 79.17     644.49      25.39
 79.27     590.00      24.29
 79.37     602.00      24.54
 79.47     606.00      24.62
 79.57     636.71      25.23
 79.67     628.12      25.06
 79.77     603.93      24.57
 79.87     618.00      24.86
 79.97     654.00      25.57
 80.07     601.00      24.52
 80.17     640.00      25.30
 80.27     669.00      25.87
 80.37     639.00      25.28
 80.47     638.00      25.26
 80.57     754.09      27.46
 80.67     789.00      28.09
 80.77     750.00      27.39
 80.87     775.00      27.84
 80.97     921.26      30.35
 81.07    1011.00      31.80
 81.17    1088.00      32.98
 81.27    1068.78      32.69
 81.37    1212.83      34.83
 81.47    1312.00      36.22
 81.57    1261.92      35.52
 81.67    1346.31      36.69
 81.77    1453.23      38.12
 81.87    1398.14      37.39
 81.97    1554.00      39.42
 82.07    1406.00      37.50
 82.17    1430.00      37.82
 82.27    1307.00      36.15
 82.37    1206.57      34.74
 82.47    1068.10      32.68
 82.57    1010.16      31.78
 82.67     989.00      31.45
 82.77     975.67      31.24
 82.87     903.00      30.05
 82.97     881.49      29.69
 83.07     786.71      28.05
 83.17     792.00      28.14
 83.27     750.16      27.39
 83.37     756.90      27.51
 83.47     748.16      27.35
 83.57     644.00      25.38
 83.67     654.79      25.59
 83.77     669.00      25.87
 83.87     659.00      25.67
 83.97     672.00      25.92
 84.07     630.33      25.11
 84.17     648.00      25.46
 84.27     649.18      25.48
 84.37     658.00      25.65
 84.47     685.00      26.17
 84.57     640.00      25.30
 84.67     707.37      26.60
 84.77     705.39      26.56
 84.87     673.00      25.94
 84.97     634.00      25.18
 85.07     648.00      25.46
 85.17     644.00      25.38
 85.27     679.86      26.07
 85.37     632.00      25.14
 85.47     596.00      24.41
 85.57     609.00      24.68
 85.67     622.00      24.94
 85.77     597.11      24.44
 85.87     590.82      24.31
 85.97     630.64      25.11
 86.07     629.76      25.10
 86.17     624.00      24.98
 86.27     627.00      25.04
 86.37     657.00      25.63
 86.47     677.43      26.03
 86.57     673.38      25.95
 86.67     676.00      26.00
 86.77     651.00      25.51
 86.87     658.00      25.65
 86.97     641.36      25.33
 87.07     655.00      25.59
 87.17     648.00      25.46
 87.27     705.00      26.55
 87.37     727.81      26.98
 87.47     685.00      26.17
 87.57     727.00      26.96
 87.67     691.00      26.29
 87.77     713.00      26.70
 87.87     709.00      26.63
 87.97     694.00      26.34
 88.07     764.00      27.64
 88.17     756.00      27.50
 88.27     759.00      27.55
 88.37     736.00      27.13
 88.47     686.00      26.19
 88.57     710.00      26.65
 88.67     719.00      26.81
 88.77     708.38      26.62
 88.87     707.00      26.59
 88.97     688.00      26.23
 89.07     644.27      25.38
 89.17     674.67      25.97
 89.27     656.34      25.62
 89.37     662.00      25.73
 89.47     630.77      25.12
 89.57     656.00      25.61
 89.67     650.00      25.50
 89.77     688.34      26.24
 89.87     667.00      25.83
 89.97     711.81      26.68
 90.07     720.00      26.83
 90.17     726.49      26.95
 90.27     642.05      25.34
 90.37     699.00      26.44
 90.47     686.40      26.20
 90.57     639.00      25.28
 90.67     622.84      24.96
 90.77     631.00      25.12
 90.87     673.00      25.94
 90.97     639.33      25.28
 91.07     654.08      25.58
 91.17     660.00      25.69
 91.27     632.00      25.14
 91.37     599.00      24.47
 91.47     611.00      24.72
 91.57     563.00      23.73
 91.67     651.00      25.51
 91.77     603.00      24.56
 91.87     602.00      24.54
 91.97     601.00      24.52
 92.07     558.33      23.63
 92.17     616.00      24.82
 92.27     621.08      24.92
 92.37     587.00      24.23
 92.47     570.00      23.87
 92.57     654.89      25.59
 92.67     601.00      24.52
 92.77     658.00      25.65
 92.87     641.00      25.32
 92.97     658.00      25.65
 93.07     676.40      26.01
 93.17     708.78      26.62
 93.27     683.00      26.13
 93.37     690.58      26.28
 93.47     693.00      26.32
 93.57     689.56      26.26
 93.67     731.00      27.04
 93.77     752.82      27.44
 93.87     802.00      28.32
 93.97     796.00      28.21
 94.07     785.00      28.02
 94.17     861.00      29.34
 94.27     899.31      29.99
 94.37     922.00      30.36
 94.47     899.00      29.98
 94.57     908.00      30.13
 94.67     887.00      29.78
 94.77     914.00      30.23
 94.87     971.00      31.16
 94.97     918.00      30.30
 95.07    1001.00      31.64
 95.17    1049.40      32.39
 95.27     966.00      31.08
 95.37    1008.00      31.75
 95.47    1044.28      32.32
 95.57    1032.00      32.12
 95.67    1020.15      31.94
 95.77    1102.40      33.20
 95.87    1110.00      33.32
 95.97    1017.00      31.89
 96.07    1021.23      31.96
 96.17     951.00      30.84
 96.27     934.00      30.56
 96.37     948.00      30.79
 96.47     877.00      29.61
 96.57     927.00      30.45
 96.67     813.89      28.53
 96.77     874.89      29.58
 96.87     799.00      28.27
 96.97     851.00      29.17
 97.07     910.00      30.17
 97.17     887.00      29.78
 97.27     946.49      30.77
 97.37    1005.00      31.70
 97.47    1021.75      31.96
 97.57     995.32      31.55
 97.67    1096.90      33.12
 97.77    1161.70      34.08
 97.87    1323.00      36.37
 97.97    1377.09      37.11
 98.07    1397.00      37.38
 98.17    1470.00      38.34
 98.27    1573.95      39.67
 98.37    1561.00      39.51
 98.47    1608.00      40.10
 98.57    1654.91      40.68
 98.67    1594.00      39.92
 98.77    1539.48      39.24
 98.87    1477.00      38.43
 98.97    1425.71      37.76
 99.07    1428.00      37.79
 99.17    1290.00      35.92
 99.27    1220.80      34.94
 99.37    1208.00      34.76
 99.47    1221.00      34.94
 99.57    1093.00      33.06
 99.67    1039.15      32.24
 99.77    1104.10      33.23
 99.87    1038.16      32.22
 99.97     984.00      31.37
100.07    1085.31      32.94
100.17    1079.00      32.85
100.27    1151.00      33.93
100.37    1066.63      32.66
100.47    1170.64      34.21
100.57    1231.16      35.09
100.67    1361.00      36.89
100.77    1478.00      38.44
100.87    1536.00      39.19
100.97    1707.00      41.32
101.07    1787.00      42.27
101.17    1809.00      42.53
101.27    1864.00      43.17
101.37    1955.00      44.22
101.47    2088.16      45.70
101.57    2014.10      44.88
101.67    2081.00      45.62
101.77    2055.03      45.33
101.87    2057.48      45.36
101.97    2169.00      46.57
102.07    2168.96      46.57
102.17    2066.00      45.45
102.27    2033.00      45.09
102.37    2039.59      45.16
102.47    1892.07      43.50
102.57    1781.00      42.20
102.67    1792.74      42.34
102.77    1649.00      40.61
102.87    1578.00      39.72
102.97    1560.15      39.50
103.07    1423.00      37.72
103.17    1524.95      39.05
103.27    1423.00      37.72
103.37    1329.00      36.46
103.47    1360.66      36.89
103.57    1327.00      36.43
103.67    1261.00      35.51
103.77    1241.00      35.23
103.87    1177.00      34.31
103.97    1114.00      33.38
104.07    1104.00      33.23
104.17    1143.49      33.82
104.27    1037.00      32.20
104.37    1028.00      32.06
104.47     948.06      30.79
104.57     916.00      30.27
104.67     943.00      30.71
104.77     867.00      29.44
104.87     762.96      27.62
104.97     796.00      28.21
105.07     761.96      27.60
105.17     702.96      26.51
105.27     705.00      26.55
105.37     702.00      26.50
105.47     736.00      27.13
105.57     697.16      26.40
105.67     630.31      25.11
105.77     670.20      25.89
105.87     610.78      24.71
105.97     643.60      25.37
106.07     576.10      24.00
106.17     628.00      25.06
106.27     638.00      25.26
106.37     637.00      25.24
106.47     645.03      25.40
106.57     629.77      25.10
106.67     610.99      24.72
106.77     646.00      25.42
106.87     695.00      26.36
106.97     684.00      26.15
107.07     660.00      25.69
107.17     698.00      26.42
107.27     662.00      25.73
107.37     622.00      24.94
107.47     756.00      27.50
107.57     727.00      26.96
107.67     672.73      25.94
107.77     690.91      26.29
107.87     770.00      27.75
107.97     703.00      26.51
108.07     736.99      27.15
108.17     780.00      27.93
108.27     797.41      28.24
108.37     773.00      27.80
108.47     834.35      28.89
108.57     747.73      27.34
108.67     750.00      27.39
108.77     773.00      27.80
108.87     741.00      27.22
108.97     779.00      27.91
109.07     749.43      27.38
109.17     759.00      27.55
109.27     810.02      28.46
109.37     771.00      27.77
109.47     823.58      28.70
109.57     783.00      27.98
109.67     834.93      28.90
109.77     813.04      28.51
109.87     765.00      27.66
109.97     808.00      28.43
110.07     746.58      27.32
110.17     783.75      28.00
110.27     795.00      28.20
110.37     768.00      27.71
110.47     736.00      27.13
110.57     757.87      27.53
110.67     813.15      28.52
110.77     735.00      27.11
110.87     732.00      27.06
110.97     739.69      27.20
111.07     730.00      27.02
111.17     694.00      26.34
111.27     747.97      27.35
111.37     646.72      25.43
111.47     648.22      25.46
111.57     660.51      25.70
111.67     685.61      26.18
111.77     691.00      26.29
111.87     657.00      25.63
111.97     655.00      25.59
112.07     645.00      25.40
112.17     583.00      24.15
112.27     583.00      24.15
112.37     634.00      25.18
112.47     600.83      24.51
112.57     567.00      23.81
112.67     660.00      25.69
112.77     617.00      24.84
112.87     615.00      24.80
112.97     666.00      25.81
113.07     629.00      25.08
113.17     663.17      25.75
113.27     636.00      25.22
113.37     667.12      25.83
113.47     661.38      25.72
113.57     650.00      25.50
113.67     687.62      26.22
113.77     659.64      25.68
113.87     630.00      25.10
113.97     691.00      26.29
114.07     675.00      25.98
114.17     680.95      26.10
114.27     662.00      25.73
114.37     734.91      27.11
114.47     648.00      25.46
114.57     747.84      27.35
114.67     753.00      27.44
114.77     720.00      26.83
114.87     748.00      27.35
114.97     775.00      27.84
115.07     775.00      27.84
115.17     808.00      28.43
115.27     913.00      30.22
115.37    1033.50      32.15
115.47    1002.00      31.65
115.57    1211.67      34.81
115.67    1301.00      36.07
115.77    1419.35      37.67
115.87    1538.00      39.22
115.97    1683.00      41.02
116.07    1975.00      44.44
116.17    2208.00      46.99
116.27    2469.00      49.69
116.37    2709.00      52.05
116.47    2915.75      54.00
116.57    3186.03      56.44
116.67    3624.00      60.20
116.77    4085.00      63.91
116.87    4346.05      65.92
116.97    4726.00      68.75
117.07    5123.54      71.58
117.17    5596.76      74.81
117.27    5940.00      77.07
117.37    6330.31      79.56
117.47    6746.91      82.14
117.57    6942.00      83.32
117.67    7229.00      85.02
117.77    7458.47      86.36
117.87    7586.94      87.10
117.97    7578.00      87.05
118.07    7618.00      87.28
118.17    7402.34      86.04
118.27    7292.09      85.39
118.37    7195.00      84.82
118.47    6814.78      82.55
118.57    6592.00      81.19
118.67    6228.00      78.92
118.77    5946.49      77.11
118.87    5475.68      74.00
118.97    5223.91      72.28
119.07    4880.61      69.86
119.17    4468.00      66.84
119.27    4119.99      64.19
119.37    3669.39      60.58
119.47    3407.70      58.38
119.57    3063.00      55.34
119.67    2765.00      52.58
119.77    2462.00      49.62
119.87    2243.00      47.36
119.97    2024.00      44.99
120.07    1909.00      43.69
120.17    1733.00      41.63
120.27    1583.00      39.79
120.37    1459.00      38.20
120.47    1355.00      36.81
120.57    1256.00      35.44
120.67    1196.00      34.58
120.77    1049.02      32.39
120.87     984.80      31.38
120.97     898.47      29.97
121.07     893.22      29.89
121.17     924.00      30.40
121.27     856.00      29.26
121.37     829.00      28.79
121.47     809.53      28.45
121.57     855.00      29.24
121.67     798.00      28.25
121.77     766.00      27.68
121.87     747.68      27.34
121.97     796.39      28.22
122.07     703.00      26.51
122.17     714.00      26.72
122.27     700.00      26.46
122.37     709.00      26.63
122.47     711.05      26.67
122.57     742.37      27.25
122.67     756.28      27.50
122.77     721.00      26.85
122.87     725.47      26.93
122.97     748.74      27.36
123.07     786.88      28.05
123.17     729.00      27.00
123.27     726.35      26.95
123.37     695.00      26.36
123.47     734.00      27.09
123.57     722.63      26.88
123.67     751.00      27.40
123.77     777.00      27.87
123.87     798.00      28.25
123.97     787.87      28.07
124.07     775.00      27.84
124.17     834.00      28.88
124.27     750.94      27.40
124.37     832.00      28.84
124.47     830.00      28.81
124.57     835.00      28.90
124.67     782.00      27.96
124.77     806.00      28.39
124.87     870.00      29.50
124.97     720.98      26.85
