  9.97     657.00      25.63
 10.07     629.00      25.08
 10.17     693.00      26.32
 10.27     671.00      25.90
 10.37     677.00      26.02
 10.47     717.25      26.78
 10.57     689.00      26.25
 10.67     740.00      27.20
 10.77     661.74      25.72
 10.87     649.00      25.48
 10.97     712.00      26.68
 11.07     739.00      27.18
 11.17     636.08      25.22
 11.27     656.00      25.61
 11.37     679.00      26.06
 11.47     702.00      26.50
 11.57     698.00      26.42
 11.67     752.00      27.42
 11.77     703.44      26.52
 11.87     712.79      26.70
 11.97     725.00      26.93
 12.07     812.00      28.50
 12.17     803.00      28.34
 12.27     772.00      27.78
 12.37     781.00      27.95
 12.47     785.00      28.02
 12.57     685.00      26.17
 12.67     687.00      26.21
 12.77     652.00      25.53
 12.87     688.00      26.23
 12.97     642.64      25.35
 13.07     664.09      25.77
 13.17     645.00      25.40
 13.27     609.79      24.69
 13.37     675.75      26.00
 13.47     643.00      25.36
 13.57     668.22      25.85
 13.67     636.00      25.22
 13.77     605.00      24.60
 13.87     640.70      25.31
 13.97     619.00      24.88
 14.07     626.00      25.02
 14.17     647.00      25.44
 14.27     618.00      24.86
 14.37     626.00      25.02
 14.47     614.00      24.78
 14.57     625.10      25.00
 14.67     658.00      25.65
 14.77     686.30      26.20
 14.87     662.01      25.73
 14.97     681.07      26.10
 15.07     612.00      24.74
 15.17     640.15      25.30
 15.27     648.47      25.47
 15.37     632.26      25.14
 15.47     611.00      24.72
 15.57     633.45      25.17
 15.67     627.75      25.06
 15.77     652.00      25.53
 15.87     610.00      24.70
 15.97     642.90      25.36
 16.07     667.28      25.83
 16.17     602.00      24.54
 16.27     677.67      26.03
 16.37     638.00      25.26
 16.47     565.00      23.77
 16.57     607.60      24.65
 16.67     674.38      25.97
 16.77     582.08      24.13
 16.87     650.47      25.50
 16.97     666.11      25.81
 17.07     593.00      24.35
 17.17     588.00      24.25
 17.27     592.00      24.33
 17.37     607.00      24.64
 17.47     588.83      24.27
 17.57     577.36      24.03
 17.67     633.00      25.16
 17.77     618.00      24.86
 17.87     633.00      25.16
 17.97     659.08      25.67
 18.07     639.00      25.28
 18.17     611.00      24.72
 18.27     606.00      24.62
 18.37     623.00      24.96
 18.47     624.00      24.98
 18.57     607.00      24.64
 18.67     574.00      23.96
 18.77     638.48      25.27
 18.87     626.44      25.03
 18.97     640.80      25.31
 19.07     611.69      24.73
 19.17     600.00      24.49
 19.27     624.00      24.98
 19.37     622.00      24.94
 19.47     591.70      24.32
 19.57     553.00      23.52
 19.67     587.00      24.23
 19.77     610.00      24.70
 19.87     609.00      24.68
 19.97     568.00      23.83
 20.07     597.00      24.43
 20.17     628.00      25.06
 20.27     589.00      24.27
 20.37     643.58      25.37
 20.47     623.51      24.97
 20.57     578.82      24.06
 20.67     619.00      24.88
 20.77     626.00      25.02
 20.87     596.00      24.41
 20.97     605.00      24.60
 21.07     605.00      24.60
 21.17     567.17      23.82
 21.27     606.00      24.62
 21.37     597.00      24.43
 21.47     562.49      23.72
 21.57     595.07      24.39
 21.67     603.00      24.56
 21.77     593.00      24.35
 21.87     618.00      24.86
 21.97     608.00      24.66
 22.07     605.00      24.60
 22.17     594.00      24.37
 22.27     603.00      24.56
 22.37     582.62      24.14
 22.47     576.00      24.00
 22.57     568.00      23.83
 22.67     629.00      25.08
 22.77     607.00      24.64
 22.87     603.68      24.57
 22.97     652.00      25.53
 23.07     622.00      24.94
 23.17     610.00      24.70
 23.27     629.22      25.08
 23.37     573.00      23.94
 23.47     558.45      23.63
 23.57     620.00      24.90
 23.67     591.00      24.31
 23.77     643.94      25.38
 23.87     623.46      24.97
 23.97     618.08      24.86
 24.07     556.24      23.58
 24.17     588.66      24.26
 24.27     612.00      24.74
 24.37     635.03      25.20
 24.47     576.31      24.01
 24.57     576.51      24.01
 24.67     643.00      25.36
 24.77     629.86      25.10
 24.87     733.00      27.07
 24.97     701.00      26.48
 25.07     652.94      25.55
 25.17     685.02      26.17
 25.27     649.00      25.48
 25.37     617.00      24.84
 25.47     599.00      24.47
 25.57     621.14      24.92
 25.67     616.00      24.82
 25.77     612.00      24.74
 25.87     595.28      24.40
 25.97     586.00      24.21
 26.07     582.93      24.14
 26.17     681.00      26.10
 26.27     568.00      23.83
 26.37     630.00      25.10
 26.47     631.00      25.12
 26.57     648.00      25.46
 26.67     643.00      25.36
 26.77     662.15      25.73
 26.87     668.11      25.85
 26.97     691.00      26.29
 27.07     615.87      24.82
 27.17     675.00      25.98
 27.27     629.01      25.08
 27.37     626.85      25.04
 27.47     716.00      26.76
 27.57     732.00      27.06
 27.67     747.00      27.33
 27.77     809.00      28.44
 27.87     905.00      30.08
 27.97    1185.00      34.42
 28.07    1699.00      41.22
 28.17    2861.75      53.50
 28.27    4001.21      63.26
 28.37    4702.00      68.57
 28.47    4851.00      69.65
 28.57    4033.00      63.51
 28.67    3156.63      56.18
 28.77    2399.00      48.98
 28.87    2427.62      49.27
 28.97    2525.03      50.25
 29.07    2969.66      54.49
 29.17    2850.91      53.39
 29.27    2425.00      49.24
 29.37    1851.96      43.03
 29.47    1330.00      36.47
 29.57     983.13      31.35
 29.67     812.23      28.50
 29.77     882.00      29.70
 29.87     772.00      27.78
 29.97     739.81      27.20
 30.07     647.91      25.45
 30.17     619.31      24.89
 30.27     655.00      25.59
 30.37     628.77      25.08
 30.47     674.00      25.96
 30.57     665.00      25.79
 30.67     597.82      24.45
 30.77     664.00      25.77
 30.87     686.00      26.19
 30.97     677.09      26.02
 31.07     769.00      27.73
 31.17     740.61      27.21
 31.27     713.00      26.70
 31.37     627.92      25.06
 31.47     641.00      25.32
 31.57     648.85      25.47
 31.67     557.03      23.60
 31.77     608.00      24.66
 31.87     617.40      24.85
 31.97     565.17      23.77
 32.07     588.87      24.27
 32.17     558.80      23.64
 32.27     607.00      24.64
 32.37     618.00      24.86
 32.47     584.00      24.17
 32.57     604.00      24.58
 32.67     583.00      24.15
 32.77     575.00      23.98
 32.87     594.00      24.37
 32.97     593.00      24.35
 33.07     599.00      24.47
 33.17     636.02      25.22
 33.27     629.00      25.08
 33.37     614.00      24.78
 33.47     571.00      23.90
 33.57     640.00      25.30
 33.67     622.36      24.95
 33.77     656.00      25.61
 33.87     741.82      27.24
 33.97     882.84      29.71
 34.07     967.11      31.10
 34.17    1115.19      33.39
 34.27    1110.17      33.32
 34.37    1169.00      34.19
 34.47     983.00      31.35
 34.57     859.12      29.31
 34.67     766.00      27.68
 34.77     705.00      26.55
 34.87     684.00      26.15
 34.97     659.64      25.68
 35.07     564.97      23.77
 35.17     626.00      25.02
 35.27     623.00      24.96
 35.37     603.00      24.56
 35.47     570.00      23.87
 35.57     582.00      24.12
 35.67     575.00      23.98
 35.77     570.00      23.87
 35.87     559.20      23.65
 35.97     522.00      22.85
 36.07     561.00      23.69
 36.17     560.02      23.66
 36.27     544.00      23.32
 36.37     571.00      23.90
 36.47     574.17      23.96
 36.57     597.66      24.45
 36.67     587.00      24.23
 36.77     571.48      23.91
 36.87     593.00      24.35
 36.97     555.00      23.56
 37.07     573.00      23.94
 37.17     526.12      22.94
 37.27     522.94      22.87
 37.37     532.46      23.08
 37.47     565.00      23.77
 37.57     588.00      24.25
 37.67     575.00      23.98
 37.77     602.00      24.54
 37.87     581.00      24.10
 37.97     613.48      24.77
 38.07     702.53      26.51
 38.17     698.27      26.42
 38.27     647.15      25.44
 38.37     626.76      25.04
 38.47     638.00      25.26
 38.57     626.88      25.04
 38.67     570.91      23.89
 38.77     587.76      24.24
 38.87     595.51      24.40
 38.97     548.00      23.41
 39.07     506.00      22.49
 39.17     571.00      23.90
 39.27     591.00      24.31
 39.37     587.89      24.25
 39.47     563.00      23.73
 39.57     556.00      23.58
 39.67     533.00      23.09
 39.77     533.00      23.09
 39.87     585.00      24.19
 39.97     539.00      23.22
 40.07     566.85      23.81
 40.17     602.11      24.54
 40.27     565.00      23.77
 40.37     568.25      23.84
 40.47     581.00      24.10
 40.57     554.00      23.54
 40.67     537.86      23.19
 40.77     530.54      23.03
 40.87     541.27      23.27
 40.97     517.00      22.74
 41.07     561.63      23.70
 41.17     535.15      23.13
 41.27     514.36      22.68
 41.37     552.00      23.49
 41.47     523.73      22.89
 41.57     535.00      23.13
 41.67     546.11      23.37
 41.77     513.00      22.65
 41.87     535.00      23.13
 41.97     595.00      24.39
 42.07     578.00      24.04
 42.17     545.00      23.35
 42.27     562.00      23.71
 42.37     570.00      23.87
 42.47     608.07      24.66
 42.57     599.00      24.47
 42.67     623.00      24.96
 42.77     615.00      24.80
 42.87     667.13      25.83
 42.97     687.18      26.21
 43.07     692.15      26.31
 43.17     591.00      24.31
 43.27     589.00      24.27
 43.37     571.00      23.90
 43.47     542.00      23.28
 43.57     588.79      24.27
 43.67     534.00      23.11
 43.77     526.29      22.94
 43.87     548.00      23.41
 43.97     539.00      23.22
 44.07     578.00      24.04
 44.17     516.00      22.72
 44.27     524.26      22.90
 44.37     569.00      23.85
 44.47     581.18      24.11
 44.57     583.00      24.15
 44.67     543.00      23.30
 44.77     573.00      23.94
 44.87     514.54      22.68
 44.97     584.00      24.17
 45.07     569.00      23.85
 45.17     627.00      25.04
 45.27     573.00      23.94
 45.37     561.00      23.69
 45.47     568.00      23.83
 45.57     562.88      23.73
 45.67     568.00      23.83
 45.77     596.00      24.41
 45.87     531.00      23.04
 45.97     579.00      24.06
 46.07     577.62      24.03
 46.17     556.00      23.58
 46.27     569.00      23.85
 46.37     551.00      23.47
 46.47     603.00      24.56
 46.57     600.93      24.51
 46.67     517.59      22.75
 46.77     574.90      23.98
 46.87     599.99      24.49
 46.97     552.00      23.49
 47.07     603.21      24.56
 47.17     549.00      23.43
 47.27     572.00      23.92
 47.37     560.00      23.66
 47.47     590.00      24.29
 47.57     610.00      24.70
 47.67     623.58      24.97
 47.77     621.00      24.92
 47.87     613.00      24.76
 47.97     610.00      24.70
 48.07     635.00      25.20
 48.17     632.05      25.14
 48.27     688.66      26.24
 48.37     665.00      25.79
 48.47     621.98      24.94
 48.57     614.00      24.78
 48.67     618.00      24.86
 48.77     615.00      24.80
 48.87     599.00      24.47
 48.97     576.00      24.00
 49.07     560.00      23.66
 49.17     602.00      24.54
 49.27     619.66      24.89
 49.37     586.00      24.21
 49.47     599.00      24.47
 49.57     664.00      25.77
 49.67     683.00      26.13
 49.77     712.00      26.68
 49.87     879.00      29.65
 49.97    1039.00      32.23
 50.07    1376.00      37.09
 50.17    1701.00      41.24
 50.27    2241.00      47.34
 50.37    2659.52      51.57
 50.47    2719.00      52.14
 50.57    2755.56      52.49
 50.67    2538.00      50.38
 50.77    2048.23      45.26
 50.87    1640.00      40.50
 50.97    1315.04      36.26
 51.07     976.00      31.24
 51.17     842.00      29.02
 51.27     829.14      28.79
 51.37     731.00      27.04
 51.47     713.00      26.70
 51.57     727.00      26.96
 51.67     674.53      25.97
 51.77     620.01      24.90
 51.87     635.00      25.20
 51.97     615.00      24.80
 52.07     634.10      25.18
 52.17     608.75      24.67
 52.27     661.00      25.71
 52.37     661.00      25.71
 52.47     642.00      25.34
 52.57     589.00      24.27
 52.67     615.62      24.81
 52.77     634.00      25.18
 52.87     584.36      24.17
 52.97     646.00      25.42
 53.07     659.00      25.67
 53.17     663.00      25.75
 53.27     778.66      27.90
 53.37     797.00      28.23
 53.47     894.00      29.90
 53.57    1003.13      31.67
 53.67    1139.00      33.75
 53.77    1229.00      35.06
 53.87    1191.00      34.51
 53.97    1213.81      34.84
 54.07    1196.00      34.58
 54.17    1024.00      32.00
 54.27     925.00      30.41
 54.37     814.75      28.54
 54.47     757.00      27.51
 54.57     724.00      26.91
 54.67     692.00      26.31
 54.77     651.82      25.53
 54.87     610.64      24.71
 54.97     648.89      25.47
 55.07     588.09      24.25
 55.17     574.38      23.97
 55.27     620.00      24.90
 55.37     654.60      25.59
 55.47     604.60      24.59
 55.57     670.22      25.89
 55.67     678.00      26.04
 55.77     608.01      24.66
 55.87     679.61      26.07
 55.97     663.00      25.75
 56.07     673.00      25.94
 56.17     718.00      26.80
 56.27     740.00      27.20
 56.37     791.00      28.12
 56.47     869.00      29.48
 56.57    1001.00      31.64
 56.67    1232.91      35.11
 56.77    1428.00      37.79
 56.87    1785.94      42.26
 56.97    2240.00      47.33
 57.07    2389.04      48.88
 57.17    2688.24      51.85
 57.27    2681.00      51.78
 57.37    2528.00      50.28
 57.47    2279.00      47.74
 57.57    1930.00      43.93
 57.67    1604.88      40.06
 57.77    1224.00      34.99
 57.87    1129.00      33.60
 57.97     903.00      30.05
 58.07     831.00      28.83
 58.17     779.00      27.91
 58.27     753.00      27.44
 58.37     715.00      26.74
 58.47     814.72      28.54
 58.57     796.00      28.21
 58.67     850.00      29.15
 58.77     908.00      30.13
 58.87    1039.30      32.24
 58.97    1118.00      33.44
 59.07    1283.00      35.82
 59.17    1299.00      36.04
 59.27    1250.40      35.36
 59.37    1241.52      35.24
 59.47    1342.40      36.64
 59.57    1279.53      35.77
 59.67    1203.83      34.70
 59.77    1203.00      34.68
 59.87    1223.12      34.97
 59.97    1236.00      35.16
 60.07    1208.00      34.76
 60.17    1285.75      35.86
 60.27    1367.00      36.97
 60.37    1509.15      38.85
 60.47    1477.93      38.44
 60.57    1614.00      40.17
 60.67    1534.45      39.17
 60.77    1486.00      38.55
 60.87    1409.00      37.54
 60.97    1246.00      35.30
 61.07    1096.00      33.11
 61.17     985.00      31.38
 61.27     883.00      29.72
 61.37     793.00      28.16
 61.47     792.00      28.14
 61.57     775.00      27.84
 61.67     755.00      27.48
 61.77     817.00      28.58
 61.87     902.00      30.03
 61.97     919.00      30.32
 62.07    1091.00      33.03
 62.17    1186.49      34.45
 62.27    1311.14      36.21
 62.37    1459.37      38.20
 62.47    1519.00      38.97
 62.57    1527.00      39.08
 62.67    1544.34      39.30
 62.77    1445.00      38.01
 62.87    1342.00      36.63
 62.97    1196.00      34.58
 63.07     972.00      31.18
 63.17     878.00      29.63
 63.27     783.00      27.98
 63.37     758.00      27.53
 63.47     661.85      25.73
 63.57     715.00      26.74
 63.67     658.00      25.65
 63.77     628.46      25.07
 63.87     667.00      25.83
 63.97     642.00      25.34
 64.07     694.00      26.34
 64.17     690.00      26.27
 64.27     742.00      27.24
 64.37     876.00      29.60
 64.47     831.76      28.84
 64.57     921.00      30.35
 64.67     960.62      30.99
 64.77    1120.04      33.47
 64.87    1227.00      35.03
 64.97    1353.00      36.78
 65.07    1233.86      35.13
 65.17    1289.12      35.90
 65.27    1236.03      35.16
 65.37    1226.00      35.01
 65.47    1102.00      33.20
 65.57    1049.45      32.40
 65.67     954.00      30.89
 65.77     912.01      30.20
 65.87     813.00      28.51
 65.97     769.29      27.74
 66.07     769.53      27.74
 66.17     741.05      27.22
 66.27     645.59      25.41
 66.37     658.00      25.65
 66.47     625.00      25.00
 66.57     595.00      24.39
 66.67     607.00      24.64
 66.77     702.00      26.50
 66.87     620.43      24.91
 66.97     621.00      24.92
 67.07     619.00      24.88
 67.17     700.47      26.47
 67.27     630.00      25.10
 67.37     718.00      26.80
 67.47     729.00      27.00
 67.57     862.33      29.37
 67.67     882.00      29.70
 67.77     968.56      31.12
 67.87    1165.00      34.13
 67.97    1400.00      37.42
 68.07    1664.00      40.79
 68.17    1918.00      43.79
 68.27    2136.00      46.22
 68.37    2255.49      47.49
 68.47    2471.30      49.71
 68.57    2486.00      49.86
 68.67    2452.62      49.52
 68.77    2149.87      46.37
 68.87    2046.50      45.24
 68.97    1718.00      41.45
 69.07    1592.00      39.90
 69.17    1285.00      35.85
 69.27    1144.00      33.82
 69.37     982.00      31.34
 69.47     813.80      28.53
 69.57     741.99      27.24
 69.67     708.19      26.61
 69.77     703.00      26.51
 69.87     693.00      26.32
 69.97     677.00      26.02
 70.07     666.00      25.81
 70.17     698.00      26.42
 70.27     667.00      25.83
 70.37     646.77      25.43
 70.47     617.22      24.84
 70.57     651.00      25.51
 70.67     633.00      25.16
 70.77     647.00      25.44
 70.87     667.00      25.83
 70.97     621.00      24.92
 71.07     658.72      25.67
 71.17     702.00      26.50
 71.27     712.67      26.70
 71.37     720.00      26.83
 71.47     741.00      27.22
 71.57     813.00      28.51
 71.67     925.00      30.41
 71.77     935.46      30.59
 71.87    1133.00      33.66
 71.97    1305.00      36.12
 72.07    1409.00      37.54
 72.17    1556.61      39.45
 72.27    1746.79      41.79
 72.37    1816.03      42.61
 72.47    2041.00      45.18
 72.57    1960.00      44.27
 72.67    1877.79      43.33
 72.77    1703.00      41.27
 72.87    1592.00      39.90
 72.97    1386.00      37.23
 73.07    1218.33      34.90
 73.17    1152.94      33.96
 73.27     966.58      31.09
 73.37     848.85      29.13
 73.47     812.00      28.50
 73.57     738.00      27.17
 73.67     727.17      26.97
 73.77     731.00      27.04
 73.87     655.58      25.60
 73.97     679.00      26.06
 74.07     665.56      25.80
 74.17     644.44      25.39
 74.27     636.99      25.24
 74.37     586.83      24.22
 74.47     631.00      25.12
 74.57     695.00      26.36
 74.67     653.17      25.56
 74.77     643.00      25.36
 74.87     651.57      25.53
 74.97     597.44      24.44
 75.07     655.00      25.59
 75.17     691.00      26.29
 75.27     680.00      26.08
 75.37     608.72      24.67
 75.47     590.06      24.29
 75.57     671.00      25.90
 75.67     694.00      26.34
 75.77     649.00      25.48
 75.87     645.00      25.40
 75.97     663.00      25.75
 76.07     643.00      25.36
 76.17     603.38      24.56
 76.27     615.28      24.80
 76.37     722.00      26.87
 76.47     747.00      27.33
 76.57     757.00      27.51
 76.67     805.29      28.38
 76.77     778.91      27.91
 76.87     822.00      28.67
 76.97     881.00      29.68
 77.07     864.00      29.39
 77.17     837.77      28.94
 77.27     850.00      29.15
 77.37     803.00      28.34
 77.47     765.59      27.67
 77.57     781.00      27.95
 77.67     714.00      26.72
 77.77     707.04      26.59
 77.87     636.00      25.22
 77.97     627.14      25.04
 78.07     575.00      23.98
 78.17     615.99      24.82
 78.27     583.00      24.15
 78.37     630.81      25.12
 78.47     559.00      23.64
 78.57     566.00      23.79
 78.67     536.36      23.16
 78.77     551.16      23.48
 78.87     534.00      23.11
 78.97     593.00      24.35
 79.07     558.00      23.62
 79.17     536.00      23.15
 79.27     578.39      24.05
 79.37     543.00      23.30
 79.47     579.00      24.06
 79.57     559.00      23.64
 79.67     540.71      23.25
 79.77     536.00      23.15
 79.87     539.72      23.23
 79.97     583.03      24.15
 80.07     582.00      24.12
 80.17     570.00      23.87
 80.27     577.06      24.02
 80.37     618.00      24.86
 80.47     591.00      24.31
 80.57     639.90      25.30
 80.67     663.00      25.75
 80.77     698.00      26.42
 80.87     784.00      28.00
 80.97     832.00      28.84
 81.07     814.42      28.54
 81.17     900.88      30.01
 81.27     933.18      30.55
 81.37     972.72      31.19
 81.47    1049.00      32.39
 81.57    1162.00      34.09
 81.67    1163.00      34.10
 81.77    1113.00      33.36
 81.87    1100.00      33.17
 81.97     996.35      31.57
 82.07    1067.00      32.66
 82.17    1028.00      32.06
 82.27     961.00      31.00
 82.37     923.00      30.38
 82.47     809.00      28.44
 82.57     813.89      28.53
 82.67     783.00      27.98
 82.77     774.00      27.82
 82.87     693.00      26.32
 82.97     685.00      26.17
 83.07     691.00      26.29
 83.17     664.15      25.77
 83.27     598.84      24.47
 83.37     643.92      25.38
 83.47     607.83      24.65
 83.57     567.00      23.81
 83.67     571.00      23.90
 83.77     587.00      24.23
 83.87     594.00      24.37
 83.97     615.86      24.82
 84.07     576.00      24.00
 84.17     579.00      24.06
 84.27     641.99      25.34
 84.37     604.00      24.58
 84.47     553.00      23.52
 84.57     653.35      25.56
 84.67     655.53      25.60
 84.77     606.00      24.62
 84.87     599.00      24.47
 84.97     611.00      24.72
 85.07     544.00      23.32
 85.17     582.00      24.12
 85.27     601.00      24.52
 85.37     597.00      24.43
 85.47     567.00      23.81
 85.57     566.00      23.79
 85.67     568.00      23.83
 85.77     597.00      24.43
 85.87     531.60      23.06
 85.97     548.00      23.41
 86.07     559.45      23.65
 86.17     587.00      24.23
 86.27     571.00      23.90
 86.37     571.00      23.90
 86.47     608.00      24.66
 86.57     578.00      24.04
 86.67     582.00      24.12
 86.77     565.00      23.77
 86.87     582.93      24.14
 86.97     628.00      25.06
 87.07     636.00      25.22
 87.17     623.00      24.96
 87.27     605.00      24.60
 87.37     686.00      26.19
 87.47     641.00      25.32
 87.57     627.99      25.06
 87.67     670.00      25.88
 87.77     669.00      25.87
 87.87     647.93      25.45
 87.97     762.00      27.60
 88.07     655.13      25.60
 88.17     675.00      25.98
 88.27     675.00      25.98
 88.37     717.00      26.78
 88.47     655.00      25.59
 88.57     691.65      26.30
 88.67     608.00      24.66
 88.77     645.06      25.40
 88.87     622.00      24.94
 88.97     607.00      24.64
 89.07     620.04      24.90
 89.17     613.00      24.76
 89.27     635.77      25.21
 89.37     624.00      24.98
 89.47     566.00      23.79
 89.57     643.00      25.36
 89.67     664.67      25.78
 89.77     639.85      25.30
 89.87     634.00      25.18
 89.97     673.50      25.95
 90.07     684.74      26.17
 90.17     641.00      25.32
 90.27     650.00      25.50
 90.37     650.96      25.51
 90.47     676.00      26.00
 90.57     585.00      24.19
 90.67     618.71      24.87
 90.77     528.00      22.98
 90.87     565.00      23.77
 90.97     522.00      22.85
 91.07     571.84      23.91
 91.17     558.00      23.62
 91.27     593.00      24.35
 91.37     535.19      23.13
 91.47     580.00      24.08
 91.57     537.00      23.17
 91.67     579.00      24.06
 91.77     535.00      23.13
 91.87     546.13      23.37
 91.97     570.78      23.89
 92.07     570.00      23.87
 92.17     537.00      23.17
 92.27     531.00      23.04
 92.37     536.00      23.15
 92.47     566.00      23.79
 92.57     590.49      24.30
 92.67     596.00      24.41
 92.77     602.00      24.54
 92.87     602.00      24.54
 92.97     660.40      25.70
 93.07     626.00      25.02
 93.17     670.85      25.90
 93.27     718.00      26.80
 93.37     691.00      26.29
 93.47     664.00      25.77
 93.57     757.75      27.53
 93.67     736.00      27.13
 93.77     812.87      28.51
 93.87     817.00      28.58
 93.97     750.81      27.40
 94.07     833.91      28.88
 94.17     771.00      27.77
 94.27     840.00      28.98
 94.37     865.00      29.41
 94.47     844.00      29.05
 94.57     937.13      30.61
 94.67     881.04      29.68
 94.77     868.48      29.47
 94.87     906.69      30.11
 94.97     959.00      30.97
 95.07     885.00      29.75
 95.17     998.06      31.59
 95.27     986.00      31.40
 95.37     920.35      30.34
 95.47     961.82      31.01
 95.57     974.00      31.21
 95.67     984.00      31.37
 95.77     951.00      30.84
 95.87     940.39      30.67
 95.97     906.96      30.12
 96.07     863.00      29.38
 96.17     800.00      28.28
 96.27     819.95      28.63
 96.37     786.00      28.04
 96.47     774.00      27.82
 96.57     783.00      27.98
 96.67     794.15      28.18
 96.77     778.00      27.89
 96.87     806.00      28.39
 96.97     872.00      29.53
 97.07     846.00      29.09
 97.17     943.00      30.71
 97.27     983.00      31.35
 97.37    1067.00      32.66
 97.47    1100.00      33.17
 97.57    1205.00      34.71
 97.67    1259.00      35.48
 97.77    1367.16      36.98
 97.87    1413.26      37.59
 97.97    1422.00      37.71
 98.07    1532.00      39.14
 98.17    1519.00      38.97
 98.27    1578.00      39.72
 98.37    1520.00      38.99
 98.47    1549.00      39.36
 98.57    1482.00      38.50
 98.67    1446.00      38.03
 98.77    1320.00      36.33
 98.87    1337.00      36.57
 98.97    1208.00      34.76
 99.07    1109.53      33.31
 99.17    1210.00      34.79
 99.27    1071.00      32.73
 99.37     964.00      31.05
 99.47     956.55      30.93
 99.57     904.00      30.07
 99.67     924.00      30.40
 99.77     999.31      31.61
 99.87     950.00      30.82
 99.97    1018.00      31.91
100.07    1003.62      31.68
100.17    1100.00      33.17
100.27    1204.00      34.70
100.37    1211.22      34.80
100.47    1391.00      37.30
100.57    1525.00      39.05
100.67    1483.45      38.52
100.77    1625.00      40.31
100.87    1741.43      41.73
100.97    1882.00      43.38
101.07    1941.38      44.06
101.17    1940.50      44.05
101.27    1981.00      44.51
101.37    2037.10      45.13
101.47    2099.00      45.81
101.57    1954.85      44.21
101.67    2001.34      44.74
101.77    2081.66      45.63
101.87    1927.00      43.90
101.97    1938.00      44.02
102.07    1866.00      43.20
102.17    1668.00      40.84
102.27    1658.18      40.72
102.37    1532.00      39.14
102.47    1514.00      38.91
102.57    1523.92      39.04
102.67    1445.00      38.01
102.77    1338.00      36.58
102.87    1270.00      35.64
102.97    1389.58      37.28
103.07    1184.00      34.41
103.17    1254.57      35.42
103.27    1225.00      35.00
103.37    1181.00      34.37
103.47    1141.00      33.78
103.57    1123.00      33.51
103.67    1079.00      32.85
103.77    1109.43      33.31
103.87    1028.77      32.07
103.97     959.00      30.97
104.07     940.00      30.66
104.17     914.53      30.24
104.27     868.85      29.48
104.37     834.62      28.89
104.47     779.00      27.91
104.57     785.18      28.02
104.67     708.00      26.61
104.77     692.00      26.31
104.87     696.00      26.38
104.97     654.00      25.57
105.07     623.00      24.96
105.17     676.00      26.00
105.27     633.00      25.16
105.37     557.80      23.62
105.47     628.00      25.06
105.57     598.49      24.46
105.67     578.00      24.04
105.77     626.00      25.02
105.87     523.78      22.89
105.97     556.92      23.60
106.07     550.81      23.47
106.17     574.00      23.96
106.27     552.99      23.52
106.37     591.00      24.31
106.47     612.46      24.75
106.57     603.64      24.57
106.67     658.00      25.65
106.77     591.00      24.31
106.87     638.00      25.26
106.97     635.00      25.20
107.07     626.00      25.02
107.17     648.00      25.46
107.27     643.00      25.36
107.37     646.33      25.42
107.47     699.00      26.44
107.57     731.07      27.04
107.67     705.49      26.56
107.77     686.37      26.20
107.87     763.00      27.62
107.97     742.00      27.24
108.07     769.67      27.74
108.17     743.00      27.26
108.27     736.00      27.13
108.37     750.00      27.39
108.47     769.00      27.73
108.57     705.00      26.55
108.67     720.85      26.85
108.77     714.00      26.72
108.87     729.00      27.00
108.97     734.02      27.09
109.07     720.00      26.83
109.17     702.00      26.50
109.27     779.00      27.91
109.37     691.30      26.29
109.47     703.37      26.52
109.57     783.65      27.99
109.67     728.00      26.98
109.77     743.00      27.26
109.87     743.35      27.26
109.97     712.00      26.68
110.07     715.00      26.74
110.17     680.18      26.08
110.27     652.00      25.53
110.37     757.47      27.52
110.47     677.00      26.02
110.57     647.00      25.44
110.67     656.00      25.61
110.77     703.29      26.52
110.87     685.00      26.17
110.97     693.05      26.33
111.07     637.75      25.25
111.17     605.77      24.61
111.27     572.89      23.94
111.37     641.00      25.32
111.47     635.00      25.20
111.57     610.31      24.70
111.67     594.00      24.37
111.77     591.00      24.31
111.87     567.82      23.83
111.97     563.00      23.73
112.07     548.38      23.42
112.17     605.00      24.60
112.27     601.00      24.52
112.37     584.00      24.17
112.47     585.95      24.21
112.57     624.00      24.98
112.67     589.03      24.27
112.77     620.01      24.90
112.87     610.00      24.70
112.97     607.00      24.64
113.07     549.00      23.43
113.17     626.00      25.02
113.27     560.25      23.67
113.37     546.00      23.37
113.47     594.10      24.37
113.57     625.00      25.00
113.67     642.21      25.34
113.77     578.00      24.04
113.87     619.00      24.88
113.97     663.00      25.75
114.07     632.68      25.15
114.17     594.00      24.37
114.27     686.74      26.21
114.37     637.00      25.24
114.47     694.00      26.34
114.57     717.00      26.78
114.67     765.00      27.66
114.77     788.00      28.07
114.87     796.60      28.22
114.97     879.00      29.65
115.07     893.00      29.88
115.17    1008.00      31.75
115.27    1108.00      33.29
115.37    1240.00      35.21
115.47    1420.77      37.69
115.57    1561.00      39.51
115.67    1764.00      42.00
115.77    1803.51      42.47
115.87    2094.63      45.77
115.97    2280.47      47.75
116.07    2643.00      51.41
116.17    3069.00      55.40
116.27    3328.00      57.69
116.37    3819.00      61.80
116.47    4030.00      63.48
116.57    4376.00      66.15
116.67    4665.00      68.30
116.77    5266.68      72.57
116.87    5463.06      73.91
116.97    5833.34      76.38
117.07    6346.00      79.66
117.17    6638.00      81.47
117.27    6978.70      83.54
117.37    7143.25      84.52
117.47    7245.00      85.12
117.57    7295.09      85.41
117.67    7271.99      85.28
117.77    7356.00      85.77
117.87    6955.37      83.40
117.97    7003.25      83.69
118.07    6508.00      80.67
118.17    6168.00      78.54
118.27    5992.00      77.41
118.37    5836.92      76.40
118.47    5467.91      73.95
118.57    4952.48      70.37
118.67    4818.00      69.41
118.77    4363.09      66.05
118.87    4004.00      63.28
118.97    3641.82      60.35
119.07    3288.00      57.34
119.17    2791.01      52.83
119.27    2647.00      51.45
119.37    2394.96      48.94
119.47    2061.00      45.40
119.57    1945.00      44.10
119.67    1708.00      41.33
119.77    1586.00      39.82
119.87    1468.00      38.31
119.97    1445.00      38.01
120.07    1239.00      35.20
120.17    1114.91      33.39
120.27    1015.58      31.87
120.37     983.00      31.35
120.47     986.00      31.40
120.57     921.94      30.36
120.67     912.00      30.20
120.77     821.00      28.65
120.87     765.00      27.66
120.97     737.95      27.17
121.07     746.00      27.31
121.17     706.00      26.57
121.27     721.00      26.85
121.37     664.00      25.77
121.47     683.00      26.13
121.57     668.01      25.85
121.67     693.80      26.34
121.77     646.96      25.44
121.87     655.00      25.59
121.97     671.00      25.90
122.07     656.00      25.61
122.17     643.23      25.36
122.27     614.85      24.80
122.37     667.00      25.83
122.47     657.00      25.63
122.57     683.51      26.14
122.67     685.00      26.17
122.77     731.65      27.05
122.87     698.00      26.42
122.97     729.00      27.00
123.07     671.00      25.90
123.17     717.50      26.79
123.27     681.65      26.11
123.37     740.10      27.20
123.47     689.58      26.26
123.57     667.61      25.84
123.67     718.83      26.81
123.77     682.00      26.12
123.87     716.00      26.76
123.97     752.00      27.42
124.07     701.13      26.48
124.17     676.00      26.00
124.27     739.00      27.18
124.37     687.28      26.22
124.47     751.00      27.40
124.57     664.13      25.77
124.67     713.00      26.70
124.77     662.43      25.74
124.87     667.21      25.83
124.97     742.43      27.25
