  9.97     738.43      27.17
 10.07     704.00      26.53
 10.17     762.00      27.60
 10.27     696.00      26.38
 10.37     728.00      26.98
 10.47     684.00      26.15
 10.57     684.00      26.15
 10.67     742.00      27.24
 10.77     741.00      27.22
 10.87     707.00      26.59
 10.97     744.00      27.28
 11.07     696.00      26.38
 11.17     742.00      27.24
 11.27     752.83      27.44
 11.37     729.00      27.00
 11.47     720.00      26.83
 11.57     708.00      26.61
 11.67     673.15      25.95
 11.77     658.59      25.66
 11.87     667.75      25.84
 11.97     749.79      27.38
 12.07     807.00      28.41
 12.17     845.00      29.07
 12.27     848.95      29.14
 12.37     837.76      28.94
 12.47     827.06      28.76
 12.57     719.00      26.81
 12.67     710.83      26.66
 12.77     713.00      26.70
 12.87     690.00      26.27
 12.97     690.00      26.27
 13.07     678.00      26.04
 13.17     710.67      26.66
 13.27     596.00      24.41
 13.37     671.00      25.90
 13.47     674.49      25.97
 13.57     649.00      25.48
 13.67     639.00      25.28
 13.77     704.79      26.55
 13.87     652.00      25.53
 13.97     678.00      26.04
 14.07     646.88      25.43
 14.17     713.13      26.70
 14.27     630.00      25.10
 14.37     691.36      26.29
 14.47     674.00      25.96
 14.57     663.00      25.75
 14.67     692.64      26.32
 14.77     687.28      26.22
 14.87     632.00      25.14
 14.97     613.00      24.76
 15.07     689.00      26.25
 15.17     679.00      26.06
 15.27     629.54      25.09
 15.37     625.60      25.01
 15.47     625.00      25.00
 15.57     633.70      25.17
 15.67     626.00      25.02
 15.77     680.71      26.09
 15.87     612.00      24.74
 15.97     673.00      25.94
 16.07     636.00      25.22
 16.17     680.00      26.08
 16.27     688.99      26.25
 16.37     624.74      24.99
 16.47     624.00      24.98
 16.57     661.00      25.71
 16.67     631.00      25.12
 16.77     623.00      24.96
 16.87     614.00      24.78
 16.97     662.00      25.73
 17.07     685.00      26.17
 17.17     660.59      25.70
 17.27     634.00      25.18
 17.37     681.00      26.10
 17.47     634.00      25.18
 17.57     665.00      25.79
 17.67     647.00      25.44
 17.77     661.91      25.73
 17.87     642.00      25.34
 17.97     663.00      25.75
 18.07     621.00      24.92
 18.17     653.85      25.57
 18.27     689.80      26.26
 18.37     669.00      25.87
 18.47     624.75      25.00
 18.57     685.66      26.19
 18.67     628.00      25.06
 18.77     620.00      24.90
 18.87     647.00      25.44
 18.97     628.57      25.07
 19.07     668.00      25.85
 19.17     604.00      24.58
 19.27     664.56      25.78
 19.37     612.07      24.74
 19.47     687.00      26.21
 19.57     620.00      24.90
 19.67     575.00      23.98
 19.77     652.67      25.55
 19.87     639.71      25.29
 19.97     638.19      25.26
 20.07     639.63      25.29
 20.17     589.00      24.27
 20.27     623.00      24.96
 20.37     609.00      24.68
 20.47     606.16      24.62
 20.57     593.00      24.35
 20.67     625.34      25.01
 20.77     627.00      25.04
 20.87     613.00      24.76
 20.97     608.00      24.66
 21.07     601.37      24.52
 21.17     598.00      24.45
 21.27     650.00      25.50
 21.37     617.00      24.84
 21.47     603.00      24.56
 21.57     647.00      25.44
 21.67     607.00      24.64
 21.77     613.88      24.78
 21.87     606.00      24.62
 21.97     666.56      25.82
 22.07     562.00      23.71
 22.17     624.00      24.98
 22.27     655.23      25.60
 22.37     667.00      25.83
 22.47     594.14      24.38
 22.57     603.43      24.56
 22.67     646.00      25.42
 22.77     652.00      25.53
 22.87     619.00      24.88
 22.97     591.00      24.31
 23.07     597.79      24.45
 23.17     611.00      24.72
 23.27     594.01      24.37
 23.37     633.08      25.16
 23.47     589.93      24.29
 23.57     602.00      24.54
 23.67     598.00      24.45
 23.77     610.00      24.70
 23.87     601.68      24.53
 23.97     611.00      24.72
 24.07     622.74      24.95
 24.17     624.00      24.98
 24.27     584.03      24.17
 24.37     636.00      25.22
 24.47     673.66      25.95
 24.57     668.00      25.85
 24.67     657.87      25.65
 24.77     715.66      26.75
 24.87     718.00      26.80
 24.97     730.00      27.02
 25.07     696.03      26.38
 25.17     659.71      25.68
 25.27     682.00      26.12
 25.37     615.00      24.80
 25.47     621.59      24.93
 25.57     611.00      24.72
 25.67     589.00      24.27
 25.77     611.00      24.72
 25.87     621.00      24.92
 25.97     657.47      25.64
 26.07     608.76      24.67
 26.17     642.00      25.34
 26.27     623.00      24.96
 26.37     639.54      25.29
 26.47     657.09      25.63
 26.57     629.22      25.08
 26.67     666.00      25.81
 26.77     650.00      25.50
 26.87     642.00      25.34
 26.97     645.00      25.40
 27.07     720.10      26.83
 27.17     649.28      25.48
 27.27     670.22      25.89
 27.37     684.00      26.15
 27.47     696.67      26.39
 27.57     740.68      27.22
 27.67     797.93      28.25
 27.77     807.00      28.41
 27.87    1005.00      31.70
 27.97    1269.00      35.62
 28.07    1913.00      43.74
 28.17    3354.15      57.92
 28.27    4980.00      70.57
 28.37    6540.00      80.87
 28.47    7021.74      83.80
 28.57    6403.00      80.02
 28.67    4682.97      68.43
 28.77    3514.00      59.28
 28.87    3114.33      55.81
 28.97    3462.00      58.84
 29.07    3767.98      61.38
 29.17    4014.00      63.36
 29.27    3476.00      58.96
 29.37    2776.84      52.70
 29.47    1984.00      44.54
 29.57    1366.00      36.96
 29.67    1052.00      32.43
 29.77     913.00      30.22
 29.87     861.00      29.34
 29.97     792.40      28.15
 30.07     782.00      27.96
 30.17     747.00      27.33
 30.27     681.00      26.10
 30.37     634.53      25.19
 30.47     647.18      25.44
 30.57     698.00      26.42
 30.67     680.00      26.08
 30.77     674.00      25.96
 30.87     671.00      25.90
 30.97     766.00      27.68
 31.07     754.00      27.46
 31.17     761.00      27.59
 31.27     750.00      27.39
 31.37     748.00      27.35
 31.47     659.53      25.68
 31.57     676.00      26.00
 31.67     682.83      26.13
 31.77     641.00      25.32
 31.87     641.00      25.32
 31.97     615.51      24.81
 32.07     647.00      25.44
 32.17     581.42      24.11
 32.27     602.00      24.54
 32.37     586.00      24.21
 32.47     632.00      25.14
 32.57     632.00      25.14
 32.67     563.42      23.74
 32.77     648.31      25.46
 32.87     580.00      24.08
 32.97     614.78      24.79
 33.07     577.00      24.02
 33.17     655.00      25.59
 33.27     607.00      24.64
 33.37     617.00      24.84
 33.47     653.00      25.55
 33.57     611.00      24.72
 33.67     669.00      25.87
 33.77     697.00      26.40
 33.87     797.00      28.23
 33.97     859.14      29.31
 34.07     936.00      30.59
 34.17    1049.61      32.40
 34.27    1227.00      35.03
 34.37    1267.00      35.59
 34.47    1164.00      34.12
 34.57     946.93      30.77
 34.67     820.00      28.64
 34.77     755.58      27.49
 34.87     750.00      27.39
 34.97     686.00      26.19
 35.07     697.00      26.40
 35.17     612.00      24.74
 35.27     579.44      24.07
 35.37     629.00      25.08
 35.47     638.00      25.26
 35.57     640.24      25.30
 35.67     591.00      24.31
 35.77     619.51      24.89
 35.87     618.00      24.86
 35.97     543.00      23.30
 36.07     551.34      23.48
 36.17     626.00      25.02
 36.27     573.00      23.94
 36.37     632.42      25.15
 36.47     625.00      25.00
 36.57     586.00      24.21
 36.67     624.55      24.99
 36.77     604.00      24.58
 36.87     603.80      24.57
 36.97     625.00      25.00
 37.07     554.00      23.54
 37.17     574.60      23.97
 37.27     579.16      24.07
 37.37     618.44      24.87
 37.47     561.00      23.69
 37.57     614.00      24.78
 37.67     580.79      24.10
 37.77     644.00      25.38
 37.87     678.49      26.05
 37.97     664.00      25.77
 38.07     710.99      26.66
 38.17     705.00      26.55
 38.27     747.52      27.34
 38.37     694.49      26.35
 38.47     737.00      27.15
 38.57     633.00      25.16
 38.67     645.00      25.40
 38.77     596.42      24.42
 38.87     602.00      24.54
 38.97     589.00      24.27
 39.07     621.00      24.92
 39.17     570.00      23.87
 39.27     615.00      24.80
 39.37     559.00      23.64
 39.47     554.42      23.55
 39.57     582.00      24.12
 39.67     568.00      23.83
 39.77     595.00      24.39
 39.87     609.00      24.68
 39.97     569.00      23.85
 40.07     585.00      24.19
 40.17     589.00      24.27
 40.27     576.00      24.00
 40.37     615.00      24.80
 40.47     584.00      24.17
 40.57     608.24      24.66
 40.67     570.54      23.89
 40.77     617.44      24.85
 40.87     606.00      24.62
 40.97     559.00      23.64
 41.07     595.00      24.39
 41.17     567.87      23.83
 41.27     595.64      24.41
 41.37     627.87      25.06
 41.47     557.00      23.60
 41.57     621.00      24.92
 41.67     616.20      24.82
 41.77     623.52      24.97
 41.87     587.00      24.23
 41.97     577.75      24.04
 42.07     575.00      23.98
 42.17     644.00      25.38
 42.27     561.00      23.69
 42.37     611.00      24.72
 42.47     576.00      24.00
 42.57     605.71      24.61
 42.67     655.30      25.60
 42.77     610.87      24.72
 42.87     707.00      26.59
 42.97     649.00      25.48
 43.07     689.00      26.25
 43.17     727.31      26.97
 43.27     695.54      26.37
 43.37     641.26      25.32
 43.47     594.00      24.37
 43.57     599.00      24.47
 43.67     622.65      24.95
 43.77     659.00      25.67
 43.87     600.00      24.49
 43.97     575.81      24.00
 44.07     611.22      24.72
 44.17     570.00      23.87
 44.27     574.74      23.97
 44.37     586.00      24.21
 44.47     542.38      23.29
 44.57     609.00      24.68
 44.67     599.00      24.47
 44.77     602.00      24.54
 44.87     585.00      24.19
 44.97     574.00      23.96
 45.07     571.91      23.91
 45.17     564.00      23.75
 45.27     599.00      24.47
 45.37     600.00      24.49
 45.47     543.95      23.32
 45.57     609.00      24.68
 45.67     614.00      24.78
 45.77     569.41      23.86
 45.87     630.73      25.11
 45.97     609.00      24.68
 46.07     545.00      23.35
 46.17     559.35      23.65
 46.27     621.17      24.92
 46.37     633.00      25.16
 46.47     586.00      24.21
 46.57     545.00      23.35
 46.67     626.00      25.02
 46.77     609.33      24.68
 46.87     618.00      24.86
 46.97     601.63      24.53
 47.07     561.28      23.69
 47.17     556.00      23.58
 47.27     567.00      23.81
 47.37     601.63      24.53
 47.47     566.00      23.79
 47.57     619.00      24.88
 47.67     606.72      24.63
 47.77     603.00      24.56
 47.87     646.00      25.42
 47.97     672.35      25.93
 48.07     640.00      25.30
 48.17     696.45      26.39
 48.27     680.00      26.08
 48.37     672.00      25.92
 48.47     678.00      26.04
 48.57     603.00      24.56
 48.67     616.00      24.82
 48.77     661.00      25.71
 48.87     618.00      24.86
 48.97     599.00      24.47
 49.07     595.63      24.41
 49.17     657.00      25.63
 49.27     634.00      25.18
 49.37     621.00      24.92
 49.47     682.74      26.13
 49.57     655.00      25.59
 49.67     644.00      25.38
 49.77     738.00      27.17
 49.87     798.00      28.25
 49.97     987.00      31.42
 50.07    1270.90      35.65
 50.17    1712.45      41.38
 50.27    2224.56      47.17
 50.37    2526.00      50.26
 50.47    2940.00      54.22
 50.57    2981.00      54.60
 50.67    2907.88      53.92
 50.77    2476.00      49.76
 50.87    2108.00      45.91
 50.97    1604.00      40.05
 51.07    1279.00      35.76
 51.17    1005.00      31.70
 51.27     831.00      28.83
 51.37     825.41      28.73
 51.47     778.00      27.89
 51.57     735.05      27.11
 51.67     743.00      27.26
 51.77     644.00      25.38
 51.87     675.70      25.99
 51.97     687.00      26.21
 52.07     619.00      24.88
 52.17     706.89      26.59
 52.27     687.00      26.21
 52.37     642.31      25.34
 52.47     704.00      26.53
 52.57     668.00      25.85
 52.67     688.62      26.24
 52.77     642.36      25.34
 52.87     665.00      25.79
 52.97     669.00      25.87
 53.07     709.00      26.63
 53.17     743.00      27.26
 53.27     796.00      28.21
 53.37     800.00      28.28
 53.47     943.00      30.71
 53.57    1009.00      31.76
 53.67    1137.52      33.73
 53.77    1132.29      33.65
 53.87    1315.00      36.26
 53.97    1293.00      35.96
 54.07    1317.06      36.29
 54.17    1191.00      34.51
 54.27    1084.00      32.92
 54.37     910.00      30.17
 54.47     817.00      28.58
 54.57     765.00      27.66
 54.67     692.00      26.31
 54.77     684.47      26.16
 54.87     683.00      26.13
 54.97     703.88      26.53
 55.07     640.97      25.32
 55.17     678.22      26.04
 55.27     606.00      24.62
 55.37     617.24      24.84
 55.47     677.14      26.02
 55.57     659.00      25.67
 55.67     639.00      25.28
 55.77     685.00      26.17
 55.87     636.23      25.22
 55.97     681.00      26.10
 56.07     683.03      26.13
 56.17     692.00      26.31
 56.27     742.69      27.25
 56.37     755.23      27.48
 56.47     798.00      28.25
 56.57     887.00      29.78
 56.67    1062.00      32.59
 56.77    1361.95      36.90
 56.87    1609.00      40.11
 56.97    1940.00      44.05
 57.07    2291.70      47.87
 57.17    2583.00      50.82
 57.27    2665.00      51.62
 57.37    2685.00      51.82
 57.47    2497.47      49.97
 57.57    2195.00      46.85
 57.67    1817.00      42.63
 57.77    1596.52      39.96
 57.87    1275.00      35.71
 57.97    1002.00      31.65
 58.07     915.01      30.25
 58.17     828.97      28.79
 58.27     773.00      27.80
 58.37     719.00      26.81
 58.47     805.48      28.38
 58.57     857.75      29.29
 58.67     912.44      30.21
 58.77     884.38      29.74
 58.87     990.91      31.48
 58.97    1042.00      32.28
 59.07    1173.35      34.25
 59.17    1219.00      34.91
 59.27    1354.14      36.80
 59.37    1357.95      36.85
 59.47    1293.05      35.96
 59.57    1316.00      36.28
 59.67    1294.03      35.97
 59.77    1212.62      34.82
 59.87    1149.31      33.90
 59.97    1234.00      35.13
 60.07    1250.00      35.36
 60.17    1282.74      35.82
 60.27    1358.00      36.85
 60.37    1434.00      37.87
 60.47    1499.00      38.72
 60.57    1524.00      39.04
 60.67    1636.75      40.46
 60.77    1666.00      40.82
 60.87    1486.00      38.55
 60.97    1392.90      37.32
 61.07    1198.00      34.61
 61.17    1051.00      32.42
 61.27    1000.44      31.63
 61.37     910.92      30.18
 61.47     872.60      29.54
 61.57     786.00      28.04
 61.67     759.00      27.55
 61.77     815.31      28.55
 61.87     845.81      29.08
 61.97     971.00      31.16
 62.07     993.00      31.51
 62.17    1201.68      34.67
 62.27    1312.00      36.22
 62.37    1454.56      38.14
 62.47    1493.00      38.64
 62.57    1694.26      41.16
 62.67    1743.00      41.75
 62.77    1612.00      40.15
 62.87    1582.00      39.77
 62.97    1434.09      37.87
 63.07    1216.00      34.87
 63.17    1135.99      33.70
 63.27     916.07      30.27
 63.37     842.00      29.02
 63.47     783.00      27.98
 63.57     734.00      27.09
 63.67     733.00      27.07
 63.77     725.00      26.93
 63.87     736.00      27.13
 63.97     733.00      27.07
 64.07     707.00      26.59
 64.17     749.00      27.37
 64.27     747.00      27.33
 64.37     795.48      28.20
 64.47     868.00      29.46
 64.57     982.00      31.34
 64.67    1042.00      32.28
 64.77    1191.00      34.51
 64.87    1196.00      34.58
 64.97    1409.00      37.54
 65.07    1399.00      37.40
 65.17    1484.00      38.52
 65.27    1507.95      38.83
 65.37    1422.34      37.71
 65.47    1339.13      36.59
 65.57    1260.00      35.50
 65.67    1145.00      33.84
 65.77    1054.96      32.48
 65.87     953.00      30.87
 65.97     930.80      30.51
 66.07     790.00      28.11
 66.17     764.28      27.65
 66.27     720.00      26.83
 66.37     667.00      25.83
 66.47     644.00      25.38
 66.57     689.00      26.25
 66.67     670.00      25.88
 66.77     704.14      26.54
 66.87     716.78      26.77
 66.97     662.00      25.73
 67.07     631.00      25.12
 67.17     701.00      26.48
 67.27     695.30      26.37
 67.37     771.01      27.77
 67.47     799.59      28.28
 67.57     776.00      27.86
 67.67     827.00      28.76
 67.77     919.00      30.32
 67.87    1103.00      33.21
 67.97    1305.20      36.13
 68.07    1487.00      38.56
 68.17    1612.95      40.16
 68.27    1998.56      44.71
 68.37    2175.35      46.64
 68.47    2359.00      48.57
 68.57    2503.53      50.04
 68.67    2488.00      49.88
 68.77    2324.94      48.22
 68.87    2158.68      46.46
 68.97    2023.00      44.98
 69.07    1768.51      42.05
 69.17    1563.93      39.55
 69.27    1365.00      36.95
 69.37    1098.59      33.14
 69.47    1016.00      31.87
 69.57     927.00      30.45
 69.67     895.00      29.92
 69.77     726.28      26.95
 69.87     814.00      28.53
 69.97     749.31      27.37
 70.07     649.72      25.49
 70.17     677.89      26.04
 70.27     733.00      27.07
 70.37     674.00      25.96
 70.47     679.00      26.06
 70.57     633.96      25.18
 70.67     689.00      26.25
 70.77     686.00      26.19
 70.87     653.00      25.55
 70.97     705.16      26.55
 71.07     707.08      26.59
 71.17     720.00      26.83
 71.27     755.00      27.48
 71.37     685.70      26.19
 71.47     786.00      28.04
 71.57     794.00      28.18
 71.67     851.00      29.17
 71.77     924.00      30.40
 71.87     983.00      31.35
 71.97    1179.00      34.34
 72.07    1370.00      37.01
 72.17    1461.00      38.22
 72.27    1632.00      40.40
 72.37    1733.00      41.63
 72.47    1934.00      43.98
 72.57    1990.65      44.62
 72.67    1937.09      44.01
 72.77    1891.50      43.49
 72.87    1746.72      41.79
 72.97    1681.30      41.00
 73.07    1454.49      38.14
 73.17    1338.57      36.59
 73.27    1118.00      33.44
 73.37     996.55      31.57
 73.47     877.00      29.61
 73.57     870.00      29.50
 73.67     732.00      27.06
 73.77     700.00      26.46
 73.87     695.30      26.37
 73.97     661.00      25.71
 74.07     682.00      26.12
 74.17     652.10      25.54
 74.27     665.00      25.79
 74.37     608.73      24.67
 74.47     668.15      25.85
 74.57     656.94      25.63
 74.67     669.00      25.87
 74.77     669.21      25.87
 74.87     639.00      25.28
 74.97     655.77      25.61
 75.07     702.00      26.50
 75.17     668.00      25.85
 75.27     679.17      26.06
 75.37     652.36      25.54
 75.47     745.00      27.29
 75.57     685.00      26.17
 75.67     612.90      24.76
 75.77     680.14      26.08
 75.87     656.00      25.61
 75.97     645.00      25.40
 76.07     663.00      25.75
 76.17     680.00      26.08
 76.27     689.00      26.25
 76.37     695.87      26.38
 76.47     710.00      26.65
 76.57     758.00      27.53
 76.67     841.00      29.00
 76.77     868.00      29.46
 76.87     881.00      29.68
 76.97     914.00      30.23
 77.07     906.00      30.10
 77.17     946.43      30.76
 77.27     948.00      30.79
 77.37     915.84      30.26
 77.47     865.50      29.42
 77.57     867.98      29.46
 77.67     860.00      29.33
 77.77     820.49      28.64
 77.87     768.00      27.71
 77.97     670.41      25.89
 78.07     687.00      26.21
 78.17     669.05      25.87
 78.27     623.69      24.97
 78.37     599.58      24.49
 78.47     663.80      25.76
 78.57     585.00      24.19
 78.67     568.88      23.85
 78.77     584.00      24.17
 78.87     595.00      24.39
 78.97     573.00      23.94
 79.07     619.00      24.88
 79.17     566.75      23.81
 79.27     599.00      24.47
 79.37     560.85      23.68
 79.47     580.10      24.09
 79.57     596.58      24.43
 79.67     608.00      24.66
 79.77     624.39      24.99
 79.87     620.05      24.90
 79.97     638.00      25.26
 80.07     665.62      25.80
 80.17     584.00      24.17
 80.27     657.00      25.63
 80.37     622.84      24.96
 80.47     683.00      26.13
 80.57     695.00      26.36
 80.67     725.00      26.93
 80.77     762.00      27.60
 80.87     784.00      28.00
 80.97     852.00      29.19
 81.07     957.00      30.94
 81.17    1035.00      32.17
 81.27    1097.03      33.12
 81.37    1191.00      34.51
 81.47    1293.00      35.96
 81.57    1174.86      34.28
 81.67    1245.93      35.30
 81.77    1304.85      36.12
 81.87    1349.87      36.74
 81.97    1351.00      36.76
 82.07    1256.00      35.44
 82.17    1227.00      35.03
 82.27    1125.00      33.54
 82.37    1045.64      32.34
 82.47    1049.73      32.40
 82.57     981.00      31.32
 82.67     883.00      29.72
 82.77     847.00      29.10
 82.87     759.00      27.55
 82.97     771.00      27.77
 83.07     704.56      26.54
 83.17     704.00      26.53
 83.27     639.00      25.28
 83.37     664.66      25.78
 83.47     605.00      24.60
 83.57     620.29      24.91
 83.67     632.00      25.14
 83.77     684.52      26.16
 83.87     616.00      24.82
 83.97     606.00      24.62
 84.07     612.71      24.75
 84.17     638.00      25.26
 84.27     629.00      25.08
 84.37     639.00      25.28
 84.47     657.00      25.63
 84.57     627.35      25.05
 84.67     682.00      26.12
 84.77     617.00      24.84
 84.87     707.90      26.61
 84.97     605.00      24.60
 85.07     623.00      24.96
 85.17     635.00      25.20
 85.27     591.00      24.31
 85.37     618.00      24.86
 85.47     597.00      24.43
 85.57     644.96      25.40
 85.67     571.71      23.91
 85.77     573.00      23.94
 85.87     664.00      25.77
 85.97     649.18      25.48
 86.07     624.00      24.98
 86.17     586.24      24.21
 86.27     613.00      24.76
 86.37     628.00      25.06
 86.47     563.42      23.74
 86.57     618.00      24.86
 86.67     660.96      25.71
 86.77     625.00      25.00
 86.87     620.00      24.90
 86.97     633.00      25.16
 87.07     666.00      25.81
 87.17     610.50      24.71
 87.27     643.98      25.38
 87.37     697.00      26.40
 87.47     692.00      26.31
 87.57     683.00      26.13
 87.67     687.04      26.21
 87.77     722.00      26.87
 87.87     670.00      25.88
 87.97     709.96      26.65
 88.07     653.00      25.55
 88.17     677.00      26.02
 88.27     721.00      26.85
 88.37     735.21      27.11
 88.47     715.00      26.74
 88.57     734.00      27.09
 88.67     703.00      26.51
 88.77     666.00      25.81
 88.87     644.73      25.39
 88.97     684.00      26.15
 89.07     634.00      25.18
 89.17     619.00      24.88
 89.27     606.00      24.62
 89.37     611.00      24.72
 89.47     603.00      24.56
 89.57     618.00      24.86
 89.67     654.37      25.58
 89.77     642.00      25.34
 89.87     653.59      25.57
 89.97     658.00      25.65
 90.07     697.00      26.40
 90.17     688.00      26.23
 90.27     681.00      26.10
 90.37     653.00      25.55
 90.47     635.72      25.21
 90.57     628.91      25.08
 90.67     644.00      25.38
 90.77     624.27      24.99
 90.87     577.00      24.02
 90.97     637.83      25.26
 91.07     606.00      24.62
 91.17     660.00      25.69
 91.27     620.38      24.91
 91.37     588.88      24.27
 91.47     591.00      24.31
 91.57     629.00      25.08
 91.67     552.00      23.49
 91.77     606.00      24.62
 91.87     552.00      23.49
 91.97     577.10      24.02
 92.07     592.00      24.33
 92.17     596.00      24.41
 92.27     629.04      25.08
 92.37     562.43      23.72
 92.47     623.00      24.96
 92.57     617.78      24.86
 92.67     608.00      24.66
 92.77     631.31      25.13
 92.87     600.00      24.49
 92.97     605.00      24.60
 93.07     657.00      25.63
 93.17     622.00      24.94
 93.27     676.00      26.00
 93.37     667.00      25.83
 93.47     726.43      26.95
 93.57     694.00      26.34
 93.67     731.00      27.04
 93.77     757.00      27.51
 93.87     777.00      27.87
 93.97     779.00      27.91
 94.07     818.12      28.60
 94.17     784.89      28.02
 94.27     802.48      28.33
 94.37     874.12      29.57
 94.47     850.03      29.16
 94.57     879.00      29.65
 94.67     917.00      30.28
 94.77     958.64      30.96
 94.87     953.00      30.87
 94.97     981.24      31.32
 95.07     977.00      31.26
 95.17    1009.79      31.78
 95.27    1008.00      31.75
 95.37    1080.58      32.87
 95.47    1010.00      31.78
 95.57    1067.00      32.66
 95.67     969.08      31.13
 95.77     993.00      31.51
 95.87    1029.00      32.08
 95.97     995.00      31.54
 96.07     936.00      30.59
 96.17     911.00      30.18
 96.27     962.00      31.02
 96.37     857.00      29.27
 96.47     790.13      28.11
 96.57     872.00      29.53
 96.67     848.00      29.12
 96.77     790.00      28.11
 96.87     788.00      28.07
 96.97     852.00      29.19
 97.07     875.00      29.58
 97.17     920.59      30.34
 97.27     942.00      30.69
 97.37     933.91      30.56
 97.47    1081.00      32.88
 97.57    1135.61      33.70
 97.67    1239.00      35.20
 97.77    1192.00      34.53
 97.87    1315.00      36.26
 97.97    1293.00      35.96
 98.07    1431.91      37.84
 98.17    1544.97      39.31
 98.27    1610.08      40.13
 98.37    1551.59      39.39
 98.47    1543.00      39.28
 98.57    1525.00      39.05
 98.67    1474.01      38.39
 98.77    1518.00      38.96
 98.87    1492.64      38.63
 98.97    1302.00      36.08
 99.07    1279.00      35.76
 99.17    1226.00      35.01
 99.27    1157.00      34.01
 99.37    1139.00      33.75
 99.47    1067.00      32.66
 99.57    1018.58      31.92
 99.67     983.00      31.35
 99.77    1016.43      31.88
 99.87     983.00      31.35
 99.97    1010.57      31.79
100.07    1017.00      31.89
100.17    1049.00      32.39
100.27    1119.00      33.45
100.37    1221.44      34.95
100.47    1254.30      35.42
100.57    1306.00      36.14
100.67    1437.46      37.91
100.77    1502.00      38.76
100.87    1590.91      39.89
100.97    1747.08      41.80
101.07    1839.00      42.88
101.17    1931.00      43.94
101.27    1886.78      43.44
101.37    2065.00      45.44
101.47    1969.11      44.37
101.57    2012.17      44.86
101.67    2084.00      45.65
101.77    2022.59      44.97
101.87    2133.73      46.19
101.97    2132.00      46.17
102.07    2046.00      45.23
102.17    1942.00      44.07
102.27    1924.16      43.87
102.37    1775.00      42.13
102.47    1720.03      41.47
102.57    1621.00      40.26
102.67    1607.00      40.09
102.77    1613.42      40.17
102.87    1410.00      37.55
102.97    1392.00      37.31
103.07    1425.10      37.75
103.17    1315.25      36.27
103.27    1288.27      35.89
103.37    1237.00      35.17
103.47    1224.00      34.99
103.57    1266.00      35.58
103.67    1140.00      33.76
103.77    1119.00      33.45
103.87    1078.00      32.83
103.97    1070.00      32.71
104.07     974.00      31.21
104.17     977.54      31.27
104.27     958.00      30.95
104.37     937.00      30.61
104.47     871.00      29.51
104.57     872.00      29.53
104.67     783.00      27.98
104.77     731.41      27.04
104.87     773.00      27.80
104.97     752.70      27.44
105.07     658.36      25.66
105.17     628.00      25.06
105.27     654.00      25.57
105.37     673.00      25.94
105.47     611.94      24.74
105.57     630.49      25.11
105.67     649.00      25.48
105.77     645.00      25.40
105.87     630.74      25.11
105.97     618.00      24.86
106.07     593.00      24.35
106.17     625.00      25.00
106.27     635.00      25.20
106.37     644.58      25.39
106.47     632.00      25.14
106.57     626.00      25.02
106.67     670.00      25.88
106.77     584.72      24.18
106.87     631.00      25.12
106.97     660.52      25.70
107.07     660.00      25.69
107.17     690.00      26.27
107.27     678.00      26.04
107.37     657.00      25.63
107.47     688.00      26.23
107.57     692.00      26.31
107.67     776.00      27.86
107.77     747.00      27.33
107.87     776.00      27.86
107.97     724.00      26.91
108.07     759.00      27.55
108.17     712.00      26.68
108.27     754.00      27.46
108.37     756.00      27.50
108.47     747.00      27.33
108.57     810.00      28.46
108.67     764.11      27.64
108.77     756.00      27.50
108.87     779.00      27.91
108.97     751.00      27.40
109.07     752.00      27.42
109.17     763.00      27.62
109.27     766.00      27.68
109.37     775.00      27.84
109.47     736.00      27.13
109.57     688.00      26.23
109.67     757.00      27.51
109.77     733.00      27.07
109.87     700.00      26.46
109.97     716.00      26.76
110.07     730.40      27.03
110.17     761.07      27.59
110.27     736.00      27.13
110.37     795.62      28.21
110.47     773.36      27.81
110.57     744.57      27.29
110.67     694.00      26.34
110.77     735.00      27.11
110.87     674.00      25.96
110.97     678.00      26.04
111.07     720.00      26.83
111.17     698.00      26.42
111.27     676.47      26.01
111.37     667.47      25.84
111.47     636.00      25.22
111.57     587.44      24.24
111.67     667.00      25.83
111.77     654.55      25.58
111.87     607.00      24.64
111.97     620.93      24.92
112.07     608.00      24.66
112.17     566.00      23.79
112.27     625.06      25.00
112.37     629.51      25.09
112.47     576.61      24.01
112.57     599.00      24.47
112.67     605.63      24.61
112.77     636.75      25.23
112.87     625.91      25.02
112.97     605.00      24.60
113.07     616.00      24.82
113.17     580.90      24.10
113.27     636.55      25.23
113.37     577.00      24.02
113.47     598.00      24.45
113.57     654.60      25.59
113.67     629.28      25.09
113.77     589.00      24.27
113.87     682.87      26.13
113.97     620.87      24.92
114.07     641.00      25.32
114.17     654.00      25.57
114.27     693.97      26.34
114.37     630.92      25.12
114.47     683.31      26.14
114.57     701.00      26.48
114.67     685.22      26.18
114.77     755.77      27.49
114.87     747.00      27.33
114.97     829.00      28.79
115.07     836.91      28.93
115.17     945.00      30.74
115.27     983.00      31.35
115.37    1064.00      32.62
115.47    1115.23      33.40
115.57    1323.00      36.37
115.67    1498.78      38.71
115.77    1595.00      39.94
115.87    1685.00      41.05
115.97    1925.00      43.87
116.07    2278.00      47.73
116.17    2436.00      49.36
116.27    2727.00      52.22
116.37    3005.41      54.82
116.47    3528.47      59.40
116.57    3660.23      60.50
116.67    4098.00      64.02
116.77    4308.00      65.64
116.87    4825.00      69.46
116.97    5206.00      72.15
117.07    5851.80      76.50
117.17    6050.00      77.78
117.27    6313.00      79.45
117.37    6669.00      81.66
117.47    7030.00      83.85
117.57    7184.00      84.76
117.67    7455.00      86.34
117.77    7454.88      86.34
117.87    7464.00      86.39
117.97    7501.28      86.61
118.07    7410.00      86.08
118.17    7177.00      84.72
118.27    7014.06      83.75
118.37    6467.19      80.42
118.47    6131.00      78.30
118.57    5882.00      76.69
118.67    5609.00      74.89
118.77    5171.00      71.91
118.87    4930.98      70.22
118.97    4417.39      66.46
119.07    4136.00      64.31
119.17    3727.07      61.05
119.27    3294.04      57.39
119.37    2993.83      54.72
119.47    2839.00      53.28
119.57    2503.00      50.03
119.67    2288.00      47.83
119.77    2097.08      45.79
119.87    1801.06      42.44
119.97    1725.00      41.53
120.07    1515.57      38.93
120.17    1444.00      38.00
120.27    1311.90      36.22
120.37    1234.00      35.13
120.47    1070.74      32.72
120.57    1061.00      32.57
120.67     962.81      31.03
120.77     962.00      31.02
120.87     881.00      29.68
120.97     821.16      28.66
121.07     761.74      27.60
121.17     831.00      28.83
121.27     754.00      27.46
121.37     761.00      27.59
121.47     733.00      27.07
121.57     677.43      26.03
121.67     705.68      26.56
121.77     739.55      27.19
121.87     688.85      26.25
121.97     638.00      25.26
122.07     712.89      26.70
122.17     666.00      25.81
122.27     650.81      25.51
122.37     689.00      26.25
122.47     645.00      25.40
122.57     654.51      25.58
122.67     667.00      25.83
122.77     745.59      27.31
122.87     691.00      26.29
122.97     690.00      26.27
123.07     720.00      26.83
123.17     695.00      26.36
123.27     709.00      26.63
123.37     664.00      25.77
123.47     678.00      26.04
123.57     769.32      27.74
123.67     736.00      27.13
123.77     694.04      26.34
123.87     751.00      27.40
123.97     759.00      27.55
124.07     735.00      27.11
124.17     783.36      27.99
124.27     705.11      26.55
124.37     761.56      27.60
124.47     742.00      27.24
124.57     773.41      27.81
124.67     802.00      28.32
124.77     813.00      28.51
124.87     731.01      27.04
124.97     806.00      28.39
