  9.97     694.00      26.34
 10.07     729.71      27.01
 10.17     698.57      26.43
 10.27     695.00      26.36
 10.37     710.00      26.65
 10.47     684.00      26.15
 10.57     744.00      27.28
 10.67     714.00      26.72
 10.77     682.00      26.12
 10.87     661.27      25.72
 10.97     674.00      25.96
 11.07     628.19      25.06
 11.17     670.63      25.90
 11.27     651.27      25.52
 11.37     652.68      25.55
 11.47     684.00      26.15
 11.57     702.96      26.51
 11.67     700.08      26.46
 11.77     635.55      25.21
 11.87     784.00      28.00
 11.97     770.00      27.75
 12.07     833.00      28.86
 12.17     793.00      28.16
 12.27     765.45      27.67
 12.37     766.65      27.69
 12.47     797.00      28.23
 12.57     786.64      28.05
 12.67     703.00      26.51
 12.77     662.00      25.73
 12.87     608.00      24.66
 12.97     699.77      26.45
 13.07     647.00      25.44
 13.17     645.00      25.40
 13.27     627.96      25.06
 13.37     634.00      25.18
 13.47     592.00      24.33
 13.57     641.43      25.33
 13.67     642.00      25.34
 13.77     606.64      24.63
 13.87     652.00      25.53
 13.97     636.00      25.22
 14.07     655.00      25.59
 14.17     673.00      25.94
 14.27     659.47      25.68
 14.37     695.55      26.37
 14.47     667.79      25.84
 14.57     671.17      25.91
 14.67     660.18      25.69
 14.77     610.29      24.70
 14.87     628.00      25.06
 14.97     615.00      24.80
 15.07     685.19      26.18
 15.17     624.60      24.99
 15.27     687.61      26.22
 15.37     684.89      26.17
 15.47     623.69      24.97
 15.57     669.93      25.88
 15.67     641.76      25.33
 15.77     657.00      25.63
 15.87     656.86      25.63
 15.97     644.00      25.38
 16.07     620.00      24.90
 16.17     666.63      25.82
 16.27     634.00      25.18
 16.37     609.00      24.68
 16.47     679.39      26.07
 16.57     603.82      24.57
 16.67     614.00      24.78
 16.77     645.35      25.40
 16.87     638.70      25.27
 16.97     616.05      24.82
 17.07     596.00      24.41
 17.17     639.46      25.29
 17.27     608.00      24.66
 17.37     655.00      25.59
 17.47     649.00      25.48
 17.57     609.60      24.69
 17.67     630.00      25.10
 17.77     592.80      24.35
 17.87     613.00      24.76
 17.97     627.00      25.04
 18.07     577.00      24.02
 18.17     651.17      25.52
 18.27     591.42      24.32
 18.37     584.00      24.17
 18.47     637.61      25.25
 18.57     640.00      25.30
 18.67     609.00      24.68
 18.77     591.00      24.31
 18.87     623.00      24.96
 18.97     579.00      24.06
 19.07     674.63      25.97
 19.17     638.00      25.26
 19.27     591.46      24.32
 19.37     642.00      25.34
 19.47     610.24      24.70
 19.57     631.00      25.12
 19.67     560.00      23.66
 19.77     597.00      24.43
 19.87     610.00      24.70
 19.97     586.00      24.21
 20.07     574.25      23.96
 20.17     601.90      24.53
 20.27     665.22      25.79
 20.37     596.00      24.41
 20.47     585.00      24.19
 20.57     650.88      25.51
 20.67     634.00      25.18
 20.77     581.00      24.10
 20.87     605.00      24.60
 20.97     609.00      24.68
 21.07     628.00      25.06
 21.17     587.39      24.24
 21.27     658.00      25.65
 21.37     606.00      24.62
 21.47     644.00      25.38
 21.57     584.00      24.17
 21.67     629.00      25.08
 21.77     591.00      24.31
 21.87     643.89      25.37
 21.97     623.00      24.96
 22.07     602.00      24.54
 22.17     588.00      24.25
 22.27     647.78      25.45
 22.37     633.00      25.16
 22.47     596.00      24.41
 22.57     640.00      25.30
 22.67     603.00      24.56
 22.77     634.50      25.19
 22.87     578.00      24.04
 22.97     590.00      24.29
 23.07     644.22      25.38
 23.17     635.00      25.20
 23.27     608.00      24.66
 23.37     629.13      25.08
 23.47     599.00      24.47
 23.57     616.46      24.83
 23.67     626.00      25.02
 23.77     650.00      25.50
 23.87     603.00      24.56
 23.97     585.00      24.19
 24.07     652.96      25.55
 24.17     564.83      23.77
 24.27     598.00      24.45
 24.37     663.00      25.75
 24.47     626.00      25.02
 24.57     655.00      25.59
 24.67     621.03      24.92
 24.77     672.00      25.92
 24.87     755.00      27.48
 24.97     703.00      26.51
 25.07     686.00      26.19
 25.17     715.00      26.74
 25.27     687.40      26.22
 25.37     628.00      25.06
 25.47     666.00      25.81
 25.57     608.20      24.66
 25.67     599.00      24.47
 25.77     617.90      24.86
 25.87     637.58      25.25
 25.97     632.00      25.14
 26.07     635.00      25.20
 26.17     601.86      24.53
 26.27     626.81      25.04
 26.37     645.00      25.40
 26.47     648.09      25.46
 26.57     661.00      25.71
 26.67     602.79      24.55
 26.77     680.00      26.08
 26.87     587.44      24.24
 26.97     625.00      25.00
 27.07     676.00      26.00
 27.17     692.00      26.31
 27.27     673.00      25.94
 27.37     659.00      25.67
 27.47     762.00      27.60
 27.57     742.00      27.24
 27.67     802.00      28.32
 27.77     830.48      28.82
 27.87     970.26      31.15
 27.97    1323.13      36.37
 28.07    1779.00      42.18
 28.17    2700.00      51.96
 28.27    4164.00      64.53
 28.37    5061.00      71.14
 28.47    5398.00      73.47
 28.57    4485.00      66.97
 28.67    3341.00      57.80
 28.77    2563.00      50.63
 28.87    2503.16      50.03
 28.97    2809.99      53.01
 29.07    3105.32      55.73
 29.17    3181.00      56.40
 29.27    2652.00      51.50
 29.37    2085.05      45.66
 29.47    1452.00      38.11
 29.57    1137.69      33.73
 29.67     929.50      30.49
 29.77     838.81      28.96
 29.87     760.00      27.57
 29.97     750.00      27.39
 30.07     732.00      27.06
 30.17     713.00      26.70
 30.27     666.10      25.81
 30.37     668.41      25.85
 30.47     667.00      25.83
 30.57     629.97      25.10
 30.67     655.61      25.60
 30.77     617.71      24.85
 30.87     658.43      25.66
 30.97     745.00      27.29
 31.07     746.00      27.31
 31.17     694.00      26.34
 31.27     737.37      27.15
 31.37     701.03      26.48
 31.47     655.00      25.59
 31.57     668.76      25.86
 31.67     629.00      25.08
 31.77     618.34      24.87
 31.87     624.61      24.99
 31.97     589.00      24.27
 32.07     615.00      24.80
 32.17     562.99      23.73
 32.27     643.00      25.36
 32.37     547.72      23.40
 32.47     597.00      24.43
 32.57     563.00      23.73
 32.67     635.00      25.20
 32.77     554.00      23.54
 32.87     601.00      24.52
 32.97     604.00      24.58
 33.07     613.54      24.77
 33.17     695.00      26.36
 33.27     603.00      24.56
 33.37     594.00      24.37
 33.47     658.00      25.65
 33.57     581.00      24.10
 33.67     613.00      24.76
 33.77     648.27      25.46
 33.87     800.00      28.28
 33.97     833.00      28.86
 34.07     971.52      31.17
 34.17    1108.00      33.29
 34.27    1159.00      34.04
 34.37    1150.00      33.91
 34.47    1066.00      32.65
 34.57     889.00      29.82
 34.67     725.00      26.93
 34.77     748.00      27.35
 34.87     645.00      25.40
 34.97     638.48      25.27
 35.07     584.80      24.18
 35.17     674.00      25.96
 35.27     590.00      24.29
 35.37     601.77      24.53
 35.47     633.15      25.16
 35.57     552.34      23.50
 35.67     591.00      24.31
 35.77     591.00      24.31
 35.87     558.00      23.62
 35.97     613.00      24.76
 36.07     526.00      22.93
 36.17     592.00      24.33
 36.27     564.00      23.75
 36.37     593.69      24.37
 36.47     582.00      24.12
 36.57     571.00      23.90
 36.67     543.27      23.31
 36.77     574.00      23.96
 36.87     548.00      23.41
 36.97     574.00      23.96
 37.07     558.00      23.62
 37.17     559.00      23.64
 37.27     544.00      23.32
 37.37     617.72      24.85
 37.47     599.00      24.47
 37.57     618.02      24.86
 37.67     638.00      25.26
 37.77     576.00      24.00
 37.87     573.78      23.95
 37.97     640.52      25.31
 38.07     712.75      26.70
 38.17     628.00      25.06
 38.27     675.00      25.98
 38.37     693.68      26.34
 38.47     620.00      24.90
 38.57     600.49      24.50
 38.67     575.00      23.98
 38.77     586.00      24.21
 38.87     571.00      23.90
 38.97     596.00      24.41
 39.07     568.00      23.83
 39.17     571.00      23.90
 39.27     567.00      23.81
 39.37     586.00      24.21
 39.47     618.00      24.86
 39.57     585.00      24.19
 39.67     572.00      23.92
 39.77     588.00      24.25
 39.87     526.41      22.94
 39.97     561.00      23.69
 40.07     565.00      23.77
 40.17     562.00      23.71
 40.27     583.00      24.15
 40.37     550.00      23.45
 40.47     567.00      23.81
 40.57     606.87      24.63
 40.67     528.00      22.98
 40.77     530.00      23.02
 40.87     594.58      24.38
 40.97     525.03      22.91
 41.07     535.00      23.13
 41.17     532.32      23.07
 41.27     538.08      23.20
 41.37     565.00      23.77
 41.47     551.56      23.49
 41.57     577.00      24.02
 41.67     566.44      23.80
 41.77     547.51      23.40
 41.87     551.70      23.49
 41.97     577.95      24.04
 42.07     596.74      24.43
 42.17     580.00      24.08
 42.27     573.00      23.94
 42.37     544.00      23.32
 42.47     578.00      24.04
 42.57     543.00      23.30
 42.67     645.74      25.41
 42.77     599.00      24.47
 42.87     639.00      25.28
 42.97     708.42      26.62
 43.07     693.23      26.33
 43.17     649.00      25.48
 43.27     611.00      24.72
 43.37     581.00      24.10
 43.47     563.28      23.73
 43.57     596.00      24.41
 43.67     583.79      24.16
 43.77     595.00      24.39
 43.87     526.82      22.95
 43.97     528.00      22.98
 44.07     573.00      23.94
 44.17     536.18      23.16
 44.27     614.00      24.78
 44.37     521.58      22.84
 44.47     539.00      23.22
 44.57     588.98      24.27
 44.67     556.00      23.58
 44.77     522.02      22.85
 44.87     550.00      23.45
 44.97     554.43      23.55
 45.07     520.02      22.80
 45.17     559.00      23.64
 45.27     537.25      23.18
 45.37     596.78      24.43
 45.47     586.52      24.22
 45.57     581.11      24.11
 45.67     549.00      23.43
 45.77     543.00      23.30
 45.87     619.00      24.88
 45.97     521.50      22.84
 46.07     501.00      22.38
 46.17     565.70      23.78
 46.27     559.00      23.64
 46.37     584.00      24.17
 46.47     534.00      23.11
 46.57     603.92      24.57
 46.67     557.00      23.60
 46.77     539.78      23.23
 46.87     548.82      23.43
 46.97     547.00      23.39
 47.07     557.00      23.60
 47.17     576.80      24.02
 47.27     553.53      23.53
 47.37     562.00      23.71
 47.47     542.00      23.28
 47.57     551.00      23.47
 47.67     619.00      24.88
 47.77     622.00      24.94
 47.87     661.70      25.72
 47.97     605.16      24.60
 48.07     655.33      25.60
 48.17     658.00      25.65
 48.27     662.00      25.73
 48.37     641.50      25.33
 48.47     624.72      24.99
 48.57     589.00      24.27
 48.67     597.00      24.43
 48.77     579.42      24.07
 48.87     564.00      23.75
 48.97     638.00      25.26
 49.07     563.00      23.73
 49.17     567.00      23.81
 49.27     583.00      24.15
 49.37     594.00      24.37
 49.47     629.00      25.08
 49.57     698.16      26.42
 49.67     651.00      25.51
 49.77     707.07      26.59
 49.87     927.50      30.45
 49.97    1041.00      32.26
 50.07    1324.45      36.39
 50.17    1740.00      41.71
 50.27    2259.68      47.54
 50.37    2634.39      51.33
 50.47    2852.00      53.40
 50.57    2820.42      53.11
 50.67    2669.00      51.66
 50.77    2208.00      46.99
 50.87    1681.76      41.01
 50.97    1343.00      36.65
 51.07    1110.86      33.33
 51.17     861.00      29.34
 51.27     806.55      28.40
 51.37     756.44      27.50
 51.47     767.00      27.69
 51.57     708.00      26.61
 51.67     655.13      25.60
 51.77     690.00      26.27
 51.87     667.00      25.83
 51.97     670.11      25.89
 52.07     618.00      24.86
 52.17     671.00      25.90
 52.27     693.00      26.32
 52.37     710.00      26.65
 52.47     661.00      25.71
 52.57     667.00      25.83
 52.67     608.39      24.67
 52.77     658.00      25.65
 52.87     593.12      24.35
 52.97     641.00      25.32
 53.07     692.55      26.32
 53.17     711.00      26.66
 53.27     785.00      28.02
 53.37     809.00      28.44
 53.47     953.43      30.88
 53.57    1065.00      32.63
 53.67    1084.00      32.92
 53.77    1287.00      35.87
 53.87    1286.00      35.86
 53.97    1263.00      35.54
 54.07    1159.00      34.04
 54.17    1098.00      33.14
 54.27    1016.00      31.87
 54.37     881.22      29.69
 54.47     758.00      27.53
 54.57     703.00      26.51
 54.67     697.00      26.40
 54.77     717.00      26.78
 54.87     629.65      25.09
 54.97     640.00      25.30
 55.07     641.00      25.32
 55.17     632.00      25.14
 55.27     627.00      25.04
 55.37     647.00      25.44
 55.47     594.47      24.38
 55.57     681.83      26.11
 55.67     661.75      25.72
 55.77     595.79      24.41
 55.87     623.14      24.96
 55.97     612.00      24.74
 56.07     667.00      25.83
 56.17     650.41      25.50
 56.27     782.58      27.97
 56.37     790.00      28.11
 56.47     905.00      30.08
 56.57    1046.03      32.34
 56.67    1248.02      35.33
 56.77    1445.00      38.01
 56.87    1815.00      42.60
 56.97    2075.89      45.56
 57.07    2362.56      48.61
 57.17    2595.37      50.94
 57.27    2667.00      51.64
 57.37    2519.00      50.19
 57.47    2265.00      47.59
 57.57    1926.74      43.89
 57.67    1603.00      40.04
 57.77    1218.00      34.90
 57.87    1131.00      33.63
 57.97     912.00      30.20
 58.07     879.00      29.65
 58.17     851.37      29.18
 58.27     801.00      28.30
 58.37     771.63      27.78
 58.47     700.00      26.46
 58.57     761.00      27.59
 58.67     876.17      29.60
 58.77     919.00      30.32
 58.87     964.00      31.05
 58.97    1079.00      32.85
 59.07    1171.00      34.22
 59.17    1293.52      35.97
 59.27    1307.85      36.16
 59.37    1377.00      37.11
 59.47    1350.42      36.75
 59.57    1217.04      34.89
 59.67    1208.00      34.76
 59.77    1132.58      33.65
 59.87    1147.49      33.87
 59.97    1186.00      34.44
 60.07    1262.00      35.52
 60.17    1267.00      35.59
 60.27    1317.00      36.29
 60.37    1397.27      37.38
 60.47    1546.00      39.32
 60.57    1647.00      40.58
 60.67    1510.66      38.87
 60.77    1524.00      39.04
 60.87    1370.66      37.02
 60.97    1264.00      35.55
 61.07    1124.69      33.54
 61.17     939.96      30.66
 61.27     830.34      28.82
 61.37     781.00      27.95
 61.47     792.00      28.14
 61.57     756.87      27.51
 61.67     727.01      26.96
 61.77     802.00      28.32
 61.87     874.00      29.56
 61.97     941.00      30.68
 62.07    1080.54      32.87
 62.17    1164.00      34.12
 62.27    1350.00      36.74
 62.37    1465.00      38.28
 62.47    1618.76      40.23
 62.57    1608.00      40.10
 62.67    1629.28      40.36
 62.77    1433.00      37.85
 62.87    1313.97      36.25
 62.97    1259.69      35.49
 63.07    1014.00      31.84
 63.17    1001.38      31.64
 63.27     836.00      28.91
 63.37     754.00      27.46
 63.47     731.00      27.04
 63.57     732.00      27.06
 63.67     670.00      25.88
 63.77     623.84      24.98
 63.87     711.00      26.66
 63.97     696.00      26.38
 64.07     681.00      26.10
 64.17     728.59      26.99
 64.27     755.00      27.48
 64.37     739.87      27.20
 64.47     881.00      29.68
 64.57     977.00      31.26
 64.67    1057.00      32.51
 64.77    1136.00      33.70
 64.87    1229.00      35.06
 64.97    1223.30      34.98
 65.07    1423.00      37.72
 65.17    1361.00      36.89
 65.27    1340.00      36.61
 65.37    1279.00      35.76
 65.47    1222.00      34.96
 65.57    1054.88      32.48
 65.67    1020.00      31.94
 65.77     858.24      29.30
 65.87     798.00      28.25
 65.97     812.00      28.50
 66.07     745.00      27.29
 66.17     706.00      26.57
 66.27     665.00      25.79
 66.37     652.00      25.53
 66.47     647.63      25.45
 66.57     613.00      24.76
 66.67     672.25      25.93
 66.77     618.00      24.86
 66.87     611.00      24.72
 66.97     627.00      25.04
 67.07     654.00      25.57
 67.17     650.18      25.50
 67.27     696.00      26.38
 67.37     755.53      27.49
 67.47     740.28      27.21
 67.57     786.00      28.04
 67.67     888.00      29.80
 67.77    1064.21      32.62
 67.87    1095.00      33.09
 67.97    1445.00      38.01
 68.07    1565.07      39.56
 68.17    1765.98      42.02
 68.27    2084.44      45.66
 68.37    2368.34      48.67
 68.47    2446.02      49.46
 68.57    2521.03      50.21
 68.67    2404.00      49.03
 68.77    2284.33      47.79
 68.87    2097.00      45.79
 68.97    1771.00      42.08
 69.07    1575.00      39.69
 69.17    1377.54      37.12
 69.27    1098.00      33.14
 69.37     942.51      30.70
 69.47     993.00      31.51
 69.57     843.00      29.03
 69.67     744.00      27.28
 69.77     791.00      28.12
 69.87     727.00      26.96
 69.97     718.00      26.80
 70.07     682.76      26.13
 70.17     651.00      25.51
 70.27     664.00      25.77
 70.37     680.00      26.08
 70.47     619.63      24.89
 70.57     637.00      25.24
 70.67     692.00      26.31
 70.77     689.60      26.26
 70.87     614.00      24.78
 70.97     683.00      26.13
 71.07     651.00      25.51
 71.17     672.66      25.94
 71.27     700.88      26.47
 71.37     732.00      27.06
 71.47     761.62      27.60
 71.57     766.88      27.69
 71.67     904.81      30.08
 71.77     967.00      31.10
 71.87    1137.69      33.73
 71.97    1192.00      34.53
 72.07    1473.00      38.38
 72.17    1530.00      39.12
 72.27    1687.00      41.07
 72.37    1817.00      42.63
 72.47    1926.26      43.89
 72.57    1974.00      44.43
 72.67    1870.00      43.24
 72.77    1833.00      42.81
 72.87    1706.38      41.31
 72.97    1419.00      37.67
 73.07    1330.00      36.47
 73.17    1072.00      32.74
 73.27    1000.00      31.62
 73.37     948.00      30.79
 73.47     831.72      28.84
 73.57     726.59      26.96
 73.67     747.00      27.33
 73.77     760.00      27.57
 73.87     704.99      26.55
 73.97     609.95      24.70
 74.07     641.00      25.32
 74.17     599.00      24.47
 74.27     597.58      24.45
 74.37     584.96      24.19
 74.47     619.00      24.88
 74.57     665.91      25.81
 74.67     650.00      25.50
 74.77     683.00      26.13
 74.87     652.00      25.53
 74.97     652.00      25.53
 75.07     706.00      26.57
 75.17     592.50      24.34
 75.27     683.00      26.13
 75.37     655.00      25.59
 75.47     688.00      26.23
 75.57     673.00      25.94
 75.67     702.00      26.50
 75.77     676.00      26.00
 75.87     660.26      25.70
 75.97     627.59      25.05
 76.07     636.00      25.22
 76.17     659.18      25.67
 76.27     681.66      26.11
 76.37     686.00      26.19
 76.47     683.48      26.14
 76.57     693.00      26.32
 76.67     754.00      27.46
 76.77     841.00      29.00
 76.87     884.89      29.75
 76.97     879.67      29.66
 77.07     880.00      29.66
 77.17     867.00      29.44
 77.27     837.00      28.93
 77.37     870.00      29.50
 77.47     786.24      28.04
 77.57     771.00      27.77
 77.67     771.79      27.78
 77.77     672.30      25.93
 77.87     658.00      25.65
 77.97     621.00      24.92
 78.07     679.53      26.07
 78.17     589.16      24.27
 78.27     633.00      25.16
 78.37     614.00      24.78
 78.47     584.00      24.17
 78.57     607.00      24.64
 78.67     590.43      24.30
 78.77     621.00      24.92
 78.87     610.00      24.70
 78.97     565.36      23.78
 79.07     571.00      23.90
 79.17     631.77      25.14
 79.27     584.90      24.18
 79.37     544.00      23.32
 79.47     554.00      23.54
 79.57     610.00      24.70
 79.67     597.00      24.43
 79.77     588.00      24.25
 79.87     551.23      23.48
 79.97     649.98      25.49
 80.07     602.00      24.54
 80.17     626.00      25.02
 80.27     635.00      25.20
 80.37     670.71      25.90
 80.47     659.00      25.67
 80.57     660.50      25.70
 80.67     687.00      26.21
 80.77     765.00      27.66
 80.87     829.50      28.80
 80.97     789.00      28.09
 81.07     868.46      29.47
 81.17     882.00      29.70
 81.27    1031.00      32.11
 81.37    1043.00      32.30
 81.47    1150.00      33.91
 81.57    1141.00      33.78
 81.67    1150.40      33.92
 81.77    1194.00      34.55
 81.87    1149.00      33.90
 81.97    1146.27      33.86
 82.07    1083.00      32.91
 82.17    1063.54      32.61
 82.27     983.00      31.35
 82.37     960.00      30.98
 82.47     932.00      30.53
 82.57     901.91      30.03
 82.67     782.93      27.98
 82.77     761.86      27.60
 82.87     722.00      26.87
 82.97     693.00      26.32
 83.07     694.00      26.34
 83.17     641.00      25.32
 83.27     672.41      25.93
 83.37     636.00      25.22
 83.47     633.00      25.16
 83.57     659.15      25.67
 83.67     597.00      24.43
 83.77     585.00      24.19
 83.87     583.00      24.15
 83.97     622.00      24.94
 84.07     651.36      25.52
 84.17     604.19      24.58
 84.27     655.79      25.61
 84.37     609.00      24.68
 84.47     659.93      25.69
 84.57     666.00      25.81
 84.67     613.83      24.78
 84.77     674.96      25.98
 84.87     607.00      24.64
 84.97     604.00      24.58
 85.07     589.71      24.28
 85.17     602.00      24.54
 85.27     608.00      24.66
 85.37     575.00      23.98
 85.47     576.00      24.00
 85.57     574.12      23.96
 85.67     556.00      23.58
 85.77     596.00      24.41
 85.87     574.00      23.96
 85.97     563.00      23.73
 86.07     564.15      23.75
 86.17     599.70      24.49
 86.27     584.00      24.17
 86.37     552.89      23.51
 86.47     602.00      24.54
 86.57     610.00      24.70
 86.67     570.00      23.87
 86.77     571.06      23.90
 86.87     648.00      25.46
 86.97     615.00      24.80
 87.07     616.32      24.83
 87.17     667.66      25.84
 87.27     623.00      24.96
 87.37     634.00      25.18
 87.47     661.00      25.71
 87.57     664.00      25.77
 87.67     655.00      25.59
 87.77     752.00      27.42
 87.87     785.00      28.02
 87.97     706.00      26.57
 88.07     683.00      26.13
 88.17     670.41      25.89
 88.27     675.00      25.98
 88.37     688.43      26.24
 88.47     669.88      25.88
 88.57     683.00      26.13
 88.67     663.00      25.75
 88.77     643.00      25.36
 88.87     665.98      25.81
 88.97     623.00      24.96
 89.07     671.00      25.90
 89.17     614.00      24.78
 89.27     648.00      25.46
 89.37     643.43      25.37
 89.47     669.46      25.87
 89.57     628.91      25.08
 89.67     662.00      25.73
 89.77     695.09      26.36
 89.87     662.52      25.74
 89.97     634.00      25.18
 90.07     690.29      26.27
 90.17     678.00      26.04
 90.27     632.00      25.14
 90.37     640.97      25.32
 90.47     625.00      25.00
 90.57     586.62      24.22
 90.67     572.00      23.92
 90.77     612.00      24.74
 90.87     576.00      24.00
 90.97     578.00      24.04
 91.07     598.06      24.46
 91.17     586.00      24.21
 91.27     598.09      24.46
 91.37     616.71      24.83
 91.47     569.00      23.85
 91.57     593.00      24.35
 91.67     563.00      23.73
 91.77     559.95      23.66
 91.87     587.00      24.23
 91.97     546.00      23.37
 92.07     543.71      23.32
 92.17     594.00      24.37
 92.27     581.47      24.11
 92.37     589.00      24.27
 92.47     613.00      24.76
 92.57     579.00      24.06
 92.67     646.00      25.42
 92.77     601.00      24.52
 92.87     666.72      25.82
 92.97     616.00      24.82
 93.07     633.88      25.18
 93.17     673.00      25.94
 93.27     729.68      27.01
 93.37     674.90      25.98
 93.47     738.00      27.17
 93.57     713.76      26.72
 93.67     768.00      27.71
 93.77     774.65      27.83
 93.87     847.13      29.11
 93.97     804.00      28.35
 94.07     775.00      27.84
 94.17     830.00      28.81
 94.27     823.57      28.70
 94.37     848.02      29.12
 94.47     894.49      29.91
 94.57     935.00      30.58
 94.67     875.00      29.58
 94.77     963.18      31.04
 94.87     897.00      29.95
 94.97     965.00      31.06
 95.07     941.00      30.68
 95.17    1028.58      32.07
 95.27    1001.00      31.64
 95.37    1038.57      32.23
 95.47    1012.44      31.82
 95.57    1022.00      31.97
 95.67    1009.85      31.78
 95.77     987.00      31.42
 95.87     886.80      29.78
 95.97     892.00      29.87
 96.07     895.34      29.92
 96.17     841.06      29.00
 96.27     829.30      28.80
 96.37     830.00      28.81
 96.47     797.00      28.23
 96.57     829.00      28.79
 96.67     816.00      28.57
 96.77     726.76      26.96
 96.87     826.37      28.75
 96.97     867.00      29.44
 97.07     897.48      29.96
 97.17     857.00      29.27
 97.27     900.37      30.01
 97.37    1043.38      32.30
 97.47    1100.00      33.17
 97.57    1176.00      34.29
 97.67    1178.00      34.32
 97.77    1360.00      36.88
 97.87    1348.00      36.72
 97.97    1424.00      37.74
 98.07    1494.00      38.65
 98.17    1521.17      39.00
 98.27    1546.00      39.32
 98.37    1503.00      38.77
 98.47    1522.62      39.02
 98.57    1470.83      38.35
 98.67    1446.55      38.03
 98.77    1377.00      37.11
 98.87    1322.00      36.36
 98.97    1261.00      35.51
 99.07    1225.41      35.01
 99.17    1170.12      34.21
 99.27    1079.45      32.85
 99.37    1066.00      32.65
 99.47     976.68      31.25
 99.57     962.00      31.02
 99.67     946.00      30.76
 99.77    1007.00      31.73
 99.87     988.00      31.43
 99.97    1038.00      32.22
100.07    1101.00      33.18
100.17    1149.78      33.91
100.27    1211.00      34.80
100.37    1257.00      35.45
100.47    1332.00      36.50
100.57    1357.69      36.85
100.67    1574.44      39.68
100.77    1689.00      41.10
100.87    1806.00      42.50
100.97    1810.90      42.55
101.07    1836.32      42.85
101.17    1876.76      43.32
101.27    2085.00      45.66
101.37    2072.40      45.52
101.47    2031.49      45.07
101.57    2104.00      45.87
101.67    2085.00      45.66
101.77    1970.00      44.38
101.87    1954.67      44.21
101.97    2094.00      45.76
102.07    1888.00      43.45
102.17    1850.00      43.01
102.27    1607.00      40.09
102.37    1678.77      40.97
102.47    1589.00      39.86
102.57    1515.19      38.93
102.67    1465.00      38.28
102.77    1459.00      38.20
102.87    1328.00      36.44
102.97    1280.00      35.78
103.07    1235.00      35.14
103.17    1307.10      36.15
103.27    1199.00      34.63
103.37    1185.00      34.42
103.47    1153.00      33.96
103.57    1099.00      33.15
103.67    1048.00      32.37
103.77    1040.37      32.25
103.87    1054.99      32.48
103.97    1038.00      32.22
104.07     991.34      31.49
104.17     979.00      31.29
104.27     904.00      30.07
104.37     829.00      28.79
104.47     835.00      28.90
104.57     756.00      27.50
104.67     719.68      26.83
104.77     727.79      26.98
104.87     653.73      25.57
104.97     612.09      24.74
105.07     667.46      25.84
105.17     667.59      25.84
105.27     646.00      25.42
105.37     614.00      24.78
105.47     623.44      24.97
105.57     651.00      25.51
105.67     626.00      25.02
105.77     608.00      24.66
105.87     599.00      24.47
105.97     599.00      24.47
106.07     625.00      25.00
106.17     595.00      24.39
106.27     597.00      24.43
106.37     580.00      24.08
106.47     588.00      24.25
106.57     639.00      25.28
106.67     567.26      23.82
106.77     653.00      25.55
106.87     590.00      24.29
106.97     604.31      24.58
107.07     661.00      25.71
107.17     691.08      26.29
107.27     663.00      25.75
107.37     635.88      25.22
107.47     731.00      27.04
107.57     721.00      26.85
107.67     695.59      26.37
107.77     709.95      26.64
107.87     711.00      26.66
107.97     782.00      27.96
108.07     704.00      26.53
108.17     794.00      28.18
108.27     767.00      27.69
108.37     733.00      27.07
108.47     809.00      28.44
108.57     757.49      27.52
108.67     735.00      27.11
108.77     717.66      26.79
108.87     736.00      27.13
108.97     777.51      27.88
109.07     753.00      27.44
109.17     717.29      26.78
109.27     725.60      26.94
109.37     753.16      27.44
109.47     698.58      26.43
109.57     757.00      27.51
109.67     753.00      27.44
109.77     751.00      27.40
109.87     701.00      26.48
109.97     757.00      27.51
110.07     727.95      26.98
110.17     694.00      26.34
110.27     746.00      27.31
110.37     697.00      26.40
110.47     708.00      26.61
110.57     709.00      26.63
110.67     678.00      26.04
110.77     640.10      25.30
110.87     653.00      25.55
110.97     685.00      26.17
111.07     593.00      24.35
111.17     670.00      25.88
111.27     623.00      24.96
111.37     663.58      25.76
111.47     591.00      24.31
111.57     585.00      24.19
111.67     624.00      24.98
111.77     619.00      24.88
111.87     580.00      24.08
111.97     592.00      24.33
112.07     563.00      23.73
112.17     610.75      24.71
112.27     625.35      25.01
112.37     566.00      23.79
112.47     587.00      24.23
112.57     606.00      24.62
112.67     568.00      23.83
112.77     612.39      24.75
112.87     571.00      23.90
112.97     633.00      25.16
113.07     603.67      24.57
113.17     602.00      24.54
113.27     560.00      23.66
113.37     599.00      24.47
113.47     570.48      23.88
113.57     584.00      24.17
113.67     616.37      24.83
113.77     630.00      25.10
113.87     585.00      24.19
113.97     651.00      25.51
114.07     625.00      25.00
114.17     684.80      26.17
114.27     646.00      25.42
114.37     693.00      26.32
114.47     676.93      26.02
114.57     735.00      27.11
114.67     778.23      27.90
114.77     823.00      28.69
114.87     821.00      28.65
114.97     866.00      29.43
115.07     859.00      29.31
115.17     945.00      30.74
115.27    1073.00      32.76
115.37    1125.00      33.54
115.47    1342.00      36.63
115.57    1391.65      37.30
115.67    1692.27      41.14
115.77    1865.00      43.19
115.87    1994.00      44.65
115.97    2360.20      48.58
116.07    2439.99      49.40
116.17    2932.19      54.15
116.27    3071.23      55.42
116.37    3515.00      59.29
116.47    3757.00      61.29
116.57    4156.00      64.47
116.67    4608.00      67.88
116.77    4907.00      70.05
116.87    5273.00      72.62
116.97    5753.31      75.85
117.07    6073.00      77.93
117.17    6502.00      80.63
117.27    6809.00      82.52
117.37    7027.72      83.83
117.47    7232.00      85.04
117.57    7325.00      85.59
117.67    7491.00      86.55
117.77    7532.00      86.79
117.87    7305.00      85.47
117.97    7129.37      84.44
118.07    6850.00      82.76
118.17    6467.00      80.42
118.27    6458.59      80.37
118.37    6061.66      77.86
118.47    5578.11      74.69
118.57    5304.18      72.83
118.67    4887.85      69.91
118.77    4369.19      66.10
118.87    4048.00      63.62
118.97    3756.00      61.29
119.07    3331.52      57.72
119.17    3224.00      56.78
119.27    2816.00      53.07
119.37    2484.00      49.84
119.47    2161.86      46.50
119.57    2106.00      45.89
119.67    1824.00      42.71
119.77    1679.00      40.98
119.87    1604.00      40.05
119.97    1443.00      37.99
120.07    1218.64      34.91
120.17    1181.00      34.37
120.27    1063.00      32.60
120.37    1057.00      32.51
120.47    1011.00      31.80
120.57     946.12      30.76
120.67     861.00      29.34
120.77     817.00      28.58
120.87     810.13      28.46
120.97     789.00      28.09
121.07     780.00      27.93
121.17     774.00      27.82
121.27     722.00      26.87
121.37     717.04      26.78
121.47     652.00      25.53
121.57     680.42      26.08
121.67     678.86      26.05
121.77     718.46      26.80
121.87     703.00      26.51
121.97     656.00      25.61
122.07     680.00      26.08
122.17     672.57      25.93
122.27     645.00      25.40
122.37     649.00      25.48
122.47     670.00      25.88
122.57     675.97      26.00
122.67     633.98      25.18
122.77     651.00      25.51
122.87     650.00      25.50
122.97     729.36      27.01
123.07     694.00      26.34
123.17     717.24      26.78
123.27     697.00      26.40
123.37     673.38      25.95
123.47     751.93      27.42
123.57     783.00      27.98
123.67     745.41      27.30
123.77     688.00      26.23
123.87     727.00      26.96
123.97     759.00      27.55
124.07     761.87      27.60
124.17     753.56      27.45
124.27     732.00      27.06
124.37     754.00      27.46
124.47     769.24      27.74
124.57     733.26      27.08
124.67     762.00      27.60
124.77     766.00      27.68
124.87     698.00      26.42
124.97     767.00      27.69
