  9.97     791.00      28.12
 10.07     701.77      26.49
 10.17     729.00      27.00
 10.27     699.93      26.46
 10.37     752.00      27.42
 10.47     756.22      27.50
 10.57     718.18      26.80
 10.67     757.50      27.52
 10.77     700.18      26.46
 10.87     714.47      26.73
 10.97     749.98      27.39
 11.07     717.00      26.78
 11.17     675.00      25.98
 11.27     733.00      27.07
 11.37     691.00      26.29
 11.47     765.00      27.66
 11.57     727.00      26.96
 11.67     703.37      26.52
 11.77     695.94      26.38
 11.87     712.95      26.70
 11.97     810.00      28.46
 12.07     862.00      29.36
 12.17     893.00      29.88
 12.27     860.00      29.33
 12.37     833.00      28.86
 12.47     795.00      28.20
 12.57     757.05      27.51
 12.67     707.00      26.59
 12.77     735.00      27.11
 12.87     681.00      26.10
 12.97     670.12      25.89
 13.07     680.00      26.08
 13.17     701.00      26.48
 13.27     662.72      25.74
 13.37     725.41      26.93
 13.47     713.51      26.71
 13.57     710.64      26.66
 13.67     626.00      25.02
 13.77     614.00      24.78
 13.87     722.37      26.88
 13.97     714.68      26.73
 14.07     688.00      26.23
 14.17     700.00      26.46
 14.27     622.13      24.94
 14.37     672.51      25.93
 14.47     676.55      26.01
 14.57     720.89      26.85
 14.67     672.00      25.92
 14.77     653.84      25.57
 14.87     710.23      26.65
 14.97     652.00      25.53
 15.07     639.00      25.28
 15.17     659.05      25.67
 15.27     618.00      24.86
 15.37     713.47      26.71
 15.47     629.75      25.09
 15.57     598.00      24.45
 15.67     688.63      26.24
 15.77     656.00      25.61
 15.87     662.00      25.73
 15.97     617.00      24.84
 16.07     658.95      25.67
 16.17     703.35      26.52
 16.27     622.75      24.95
 16.37     682.00      26.12
 16.47     621.63      24.93
 16.57     615.00      24.80
 16.67     706.59      26.58
 16.77     612.00      24.74
 16.87     618.00      24.86
 16.97     651.00      25.51
 17.07     648.00      25.46
 17.17     586.00      24.21
 17.27     676.00      26.00
 17.37     635.00      25.20
 17.47     604.59      24.59
 17.57     677.99      26.04
 17.67     665.60      25.80
 17.77     621.00      24.92
 17.87     605.00      24.60
 17.97     630.68      25.11
 18.07     642.00      25.34
 18.17     639.00      25.28
 18.27     626.50      25.03
 18.37     671.00      25.90
 18.47     646.00      25.42
 18.57     650.00      25.50
 18.67     639.00      25.28
 18.77     659.00      25.67
 18.87     642.87      25.35
 18.97     597.40      24.44
 19.07     610.00      24.70
 19.17     698.00      26.42
 19.27     679.00      26.06
 19.37     600.27      24.50
 19.47     622.00      24.94
 19.57     614.00      24.78
 19.67     678.74      26.05
 19.77     651.00      25.51
 19.87     596.87      24.43
 19.97     644.00      25.38
 20.07     667.00      25.83
 20.17     643.52      25.37
 20.27     614.00      24.78
 20.37     635.00      25.20
 20.47     603.00      24.56
 20.57     577.00      24.02
 20.67     611.00      24.72
 20.77     638.00      25.26
 20.87     631.00      25.12
 20.97     647.00      25.44
 21.07     647.30      25.44
 21.17     675.00      25.98
 21.27     618.00      24.86
 21.37     673.32      25.95
 21.47     643.49      25.37
 21.57     679.00      26.06
 21.67     663.00      25.75
 21.77     619.36      24.89
 21.87     638.00      25.26
 21.97     623.00      24.96
 22.07     649.00      25.48
 22.17     601.51      24.53
 22.27     663.00      25.75
 22.37     606.75      24.63
 22.47     629.00      25.08
 22.57     599.00      24.47
 22.67     599.00      24.47
 22.77     626.81      25.04
 22.87     656.00      25.61
 22.97     621.00      24.92
 23.07     630.68      25.11
 23.17     595.00      24.39
 23.27     605.14      24.60
 23.37     583.00      24.15
 23.47     627.00      25.04
 23.57     603.00      24.56
 23.67     622.00      24.94
 23.77     639.00      25.28
 23.87     644.00      25.38
 23.97     619.29      24.89
 24.07     672.06      25.92
 24.17     589.34      24.28
 24.27     617.00      24.84
 24.37     629.00      25.08
 24.47     642.00      25.34
 24.57     625.00      25.00
 24.67     663.60      25.76
 24.77     669.00      25.87
 24.87     694.00      26.34
 24.97     683.00      26.13
 25.07     684.76      26.17
 25.17     751.48      27.41
 25.27     627.38      25.05
 25.37     667.00      25.83
 25.47     635.00      25.20
 25.57     682.90      26.13
 25.67     653.43      25.56
 25.77     674.27      25.97
 25.87     647.00      25.44
 25.97     654.00      25.57
 26.07     648.00      25.46
 26.17     647.00      25.44
 26.27     635.00      25.20
 26.37     610.00      24.70
 26.47     631.56      25.13
 26.57     700.00      26.46
 26.67     645.08      25.40
 26.77     692.00      26.31
 26.87     618.00      24.86
 26.97     736.00      27.13
 27.07     666.03      25.81
 27.17     729.40      27.01
 27.27     677.00      26.02
 27.37     749.00      27.37
 27.47     803.02      28.34
 27.57     757.00      27.51
 27.67     820.00      28.64
 27.77     846.24      29.09
 27.87    1045.00      32.33
 27.97    1421.49      37.70
 28.07    1984.00      44.54
 28.17    3183.00      56.42
 28.27    5025.00      70.89
 28.37    7154.00      84.58
 28.47    7868.42      88.70
 28.57    7184.00      84.76
 28.67    5568.00      74.62
 28.77    3992.00      63.18
 28.87    3382.00      58.15
 28.97    3681.00      60.67
 29.07    4211.00      64.89
 29.17    4575.00      67.64
 29.27    3925.00      62.65
 29.37    3051.15      55.24
 29.47    2099.00      45.81
 29.57    1462.21      38.24
 29.67    1127.00      33.57
 29.77    1011.00      31.80
 29.87     961.00      31.00
 29.97     781.55      27.96
 30.07     740.21      27.21
 30.17     759.64      27.56
 30.27     681.14      26.10
 30.37     672.69      25.94
 30.47     638.47      25.27
 30.57     664.73      25.78
 30.67     656.97      25.63
 30.77     733.00      27.07
 30.87     670.18      25.89
 30.97     765.00      27.66
 31.07     708.77      26.62
 31.17     816.00      28.57
 31.27     765.00      27.66
 31.37     812.00      28.50
 31.47     766.00      27.68
 31.57     703.00      26.51
 31.67     704.00      26.53
 31.77     639.83      25.29
 31.87     640.33      25.30
 31.97     610.85      24.72
 32.07     658.00      25.65
 32.17     590.22      24.29
 32.27     643.00      25.36
 32.37     654.00      25.57
 32.47     644.40      25.39
 32.57     625.00      25.00
 32.67     653.00      25.55
 32.77     603.01      24.56
 32.87     658.00      25.65
 32.97     657.11      25.63
 33.07     634.00      25.18
 33.17     649.00      25.48
 33.27     635.09      25.20
 33.37     656.00      25.61
 33.47     599.00      24.47
 33.57     631.00      25.12
 33.67     645.00      25.40
 33.77     696.00      26.38
 33.87     697.00      26.40
 33.97     864.00      29.39
 34.07     911.00      30.18
 34.17    1144.57      33.83
 34.27    1287.00      35.87
 34.37    1199.00      34.63
 34.47    1214.91      34.86
 34.57    1025.03      32.02
 34.67     892.00      29.87
 34.77     781.00      27.95
 34.87     718.00      26.80
 34.97     665.74      25.80
 35.07     708.00      26.61
 35.17     714.00      26.72
 35.27     648.00      25.46
 35.37     620.00      24.90
 35.47     629.00      25.08
 35.57     565.46      23.78
 35.67     602.00      24.54
 35.77     580.00      24.08
 35.87     650.00      25.50
 35.97     572.58      23.93
 36.07     574.00      23.96
 36.17     587.00      24.23
 36.27     579.66      24.08
 36.37     598.00      24.45
 36.47     605.00      24.60
 36.57     616.00      24.82
 36.67     619.00      24.88
 36.77     638.10      25.26
 36.87     550.00      23.45
 36.97     607.47      24.65
 37.07     637.60      25.25
 37.17     594.99      24.39
 37.27     581.81      24.12
 37.37     613.00      24.76
 37.47     639.20      25.28
 37.57     624.00      24.98
 37.67     613.00      24.76
 37.77     584.00      24.17
 37.87     693.00      26.32
 37.97     667.00      25.83
 38.07     676.68      26.01
 38.17     723.93      26.91
 38.27     741.00      27.22
 38.37     720.00      26.83
 38.47     725.00      26.93
 38.57     664.00      25.77
 38.67     648.00      25.46
 38.77     643.00      25.36
 38.87     663.00      25.75
 38.97     627.00      25.04
 39.07     624.00      24.98
 39.17     625.12      25.00
 39.27     640.73      25.31
 39.37     607.74      24.65
 39.47     564.00      23.75
 39.57     544.00      23.32
 39.67     598.00      24.45
 39.77     620.00      24.90
 39.87     610.00      24.70
 39.97     615.00      24.80
 40.07     590.00      24.29
 40.17     594.64      24.39
 40.27     589.68      24.28
 40.37     574.00      23.96
 40.47     586.00      24.21
 40.57     623.00      24.96
 40.67     576.51      24.01
 40.77     571.00      23.90
 40.87     579.00      24.06
 40.97     611.80      24.73
 41.07     609.00      24.68
 41.17     567.49      23.82
 41.27     597.00      24.43
 41.37     557.00      23.60
 41.47     545.00      23.35
 41.57     591.00      24.31
 41.67     570.00      23.87
 41.77     578.00      24.04
 41.87     585.37      24.19
 41.97     599.77      24.49
 42.07     595.00      24.39
 42.17     567.00      23.81
 42.27     617.81      24.86
 42.37     574.00      23.96
 42.47     581.00      24.10
 42.57     643.00      25.36
 42.67     613.00      24.76
 42.77     709.44      26.64
 42.87     661.00      25.71
 42.97     743.92      27.27
 43.07     720.00      26.83
 43.17     733.11      27.08
 43.27     667.00      25.83
 43.37     644.04      25.38
 43.47     617.74      24.85
 43.57     638.00      25.26
 43.67     637.00      25.24
 43.77     587.00      24.23
 43.87     587.58      24.24
 43.97     646.00      25.42
 44.07     600.00      24.49
 44.17     586.45      24.22
 44.27     598.00      24.45
 44.37     555.00      23.56
 44.47     571.00      23.90
 44.57     576.00      24.00
 44.67     592.00      24.33
 44.77     581.57      24.12
 44.87     628.00      25.06
 44.97     550.14      23.45
 45.07     637.07      25.24
 45.17     641.00      25.32
 45.27     592.88      24.35
 45.37     566.00      23.79
 45.47     591.00      24.31
 45.57     593.00      24.35
 45.67     621.00      24.92
 45.77     617.00      24.84
 45.87     573.00      23.94
 45.97     600.72      24.51
 46.07     567.00      23.81
 46.17     602.00      24.54
 46.27     608.50      24.67
 46.37     665.00      25.79
 46.47     621.00      24.92
 46.57     626.00      25.02
 46.67     563.63      23.74
 46.77     606.41      24.63
 46.87     603.00      24.56
 46.97     600.00      24.49
 47.07     644.58      25.39
 47.17     609.95      24.70
 47.27     633.00      25.16
 47.37     623.00      24.96
 47.47     585.00      24.19
 47.57     672.00      25.92
 47.67     567.00      23.81
 47.77     605.00      24.60
 47.87     636.00      25.22
 47.97     620.00      24.90
 48.07     676.00      26.00
 48.17     690.00      26.27
 48.27     747.61      27.34
 48.37     693.00      26.32
 48.47     637.00      25.24
 48.57     648.80      25.47
 48.67     649.43      25.48
 48.77     616.00      24.82
 48.87     591.00      24.31
 48.97     642.00      25.34
 49.07     634.00      25.18
 49.17     615.00      24.80
 49.27     604.27      24.58
 49.37     646.00      25.42
 49.47     645.00      25.40
 49.57     711.86      26.68
 49.67     681.00      26.10
 49.77     699.00      26.44
 49.87     873.36      29.55
 49.97     909.00      30.15
 50.07    1162.00      34.09
 50.17    1537.00      39.20
 50.27    1919.00      43.81
 50.37    2522.00      50.22
 50.47    3027.02      55.02
 50.57    3197.98      56.55
 50.67    3030.44      55.05
 50.77    2653.00      51.51
 50.87    2261.00      47.55
 50.97    1746.00      41.79
 51.07    1281.91      35.80
 51.17    1081.00      32.88
 51.27     932.00      30.53
 51.37     784.35      28.01
 51.47     796.43      28.22
 51.57     868.00      29.46
 51.67     761.53      27.60
 51.77     751.84      27.42
 51.87     744.00      27.28
 51.97     701.73      26.49
 52.07     672.06      25.92
 52.17     698.00      26.42
 52.27     707.00      26.59
 52.37     723.00      26.89
 52.47     713.00      26.70
 52.57     658.98      25.67
 52.67     640.00      25.30
 52.77     642.00      25.34
 52.87     711.00      26.66
 52.97     705.00      26.55
 53.07     701.00      26.48
 53.17     746.00      27.31
 53.27     759.00      27.55
 53.37     745.00      27.29
 53.47     865.00      29.41
 53.57     900.97      30.02
 53.67    1119.00      33.45
 53.77    1143.50      33.82
 53.87    1327.43      36.43
 53.97    1288.00      35.89
 54.07    1314.00      36.25
 54.17    1206.71      34.74
 54.27    1160.92      34.07
 54.37    1062.71      32.60
 54.47     897.00      29.95
 54.57     831.00      28.83
 54.67     737.00      27.15
 54.77     685.47      26.18
 54.87     686.93      26.21
 54.97     705.00      26.55
 55.07     666.00      25.81
 55.17     630.08      25.10
 55.27     634.58      25.19
 55.37     707.18      26.59
 55.47     705.00      26.55
 55.57     633.20      25.16
 55.67     704.93      26.55
 55.77     709.00      26.63
 55.87     672.00      25.92
 55.97     736.00      27.13
 56.07     672.32      25.93
 56.17     717.00      26.78
 56.27     740.79      27.22
 56.37     794.00      28.18
 56.47     858.00      29.29
 56.57     942.00      30.69
 56.67    1074.98      32.79
 56.77    1240.00      35.21
 56.87    1547.00      39.33
 56.97    1930.00      43.93
 57.07    2199.00      46.89
 57.17    2535.62      50.35
 57.27    2774.00      52.67
 57.37    2632.56      51.31
 57.47    2610.00      51.09
 57.57    2280.58      47.76
 57.67    1949.00      44.15
 57.77    1600.00      40.00
 57.87    1327.00      36.43
 57.97    1124.41      33.53
 58.07    1059.23      32.55
 58.17     892.00      29.87
 58.27     884.04      29.73
 58.37     789.00      28.09
 58.47     752.22      27.43
 58.57     793.00      28.16
 58.67     870.11      29.50
 58.77     900.17      30.00
 58.87    1041.76      32.28
 58.97     946.00      30.76
 59.07    1174.50      34.27
 59.17    1219.00      34.91
 59.27    1206.00      34.73
 59.37    1337.00      36.57
 59.47    1371.00      37.03
 59.57    1363.00      36.92
 59.67    1317.00      36.29
 59.77    1348.00      36.72
 59.87    1324.00      36.39
 59.97    1266.00      35.58
 60.07    1300.88      36.07
 60.17    1223.75      34.98
 60.27    1347.00      36.70
 60.37    1452.31      38.11
 60.47    1449.00      38.07
 60.57    1652.00      40.64
 60.67    1661.00      40.76
 60.77    1644.00      40.55
 60.87    1528.00      39.09
 60.97    1479.86      38.47
 61.07    1293.00      35.96
 61.17    1174.61      34.27
 61.27     990.58      31.47
 61.37     945.31      30.75
 61.47     856.15      29.26
 61.57     870.90      29.51
 61.67     769.00      27.73
 61.77     806.00      28.39
 61.87     817.96      28.60
 61.97     921.85      30.36
 62.07    1030.00      32.09
 62.17    1167.00      34.16
 62.27    1261.08      35.51
 62.37    1546.88      39.33
 62.47    1637.00      40.46
 62.57    1664.01      40.79
 62.67    1768.00      42.05
 62.77    1711.00      41.36
 62.87    1569.40      39.62
 62.97    1472.62      38.37
 63.07    1257.38      35.46
 63.17    1168.00      34.18
 63.27     972.00      31.18
 63.37     913.00      30.22
 63.47     827.00      28.76
 63.57     806.00      28.39
 63.67     737.29      27.15
 63.77     695.00      26.36
 63.87     724.00      26.91
 63.97     749.00      27.37
 64.07     733.64      27.09
 64.17     705.00      26.55
 64.27     774.47      27.83
 64.37     769.00      27.73
 64.47     829.00      28.79
 64.57     873.11      29.55
 64.67     991.00      31.48
 64.77    1092.00      33.05
 64.87    1283.00      35.82
 64.97    1295.79      36.00
 65.07    1460.00      38.21
 65.17    1523.38      39.03
 65.27    1545.64      39.31
 65.37    1464.00      38.26
 65.47    1399.62      37.41
 65.57    1434.00      37.87
 65.67    1195.01      34.57
 65.77    1137.00      33.72
 65.87     983.00      31.35
 65.97     961.00      31.00
 66.07     907.00      30.12
 66.17     769.00      27.73
 66.27     818.55      28.61
 66.37     772.60      27.80
 66.47     708.00      26.61
 66.57     759.29      27.56
 66.67     696.00      26.38
 66.77     691.00      26.29
 66.87     681.00      26.10
 66.97     686.00      26.19
 67.07     704.65      26.55
 67.17     680.00      26.08
 67.27     710.00      26.65
 67.37     685.00      26.17
 67.47     747.00      27.33
 67.57     752.33      27.43
 67.67     812.00      28.50
 67.77     886.00      29.77
 67.87    1004.00      31.69
 67.97    1204.00      34.70
 68.07    1433.00      37.85
 68.17    1575.00      39.69
 68.27    1813.00      42.58
 68.37    2158.24      46.46
 68.47    2327.89      48.25
 68.57    2553.00      50.53
 68.67    2524.00      50.24
 68.77    2546.00      50.46
 68.87    2277.00      47.72
 68.97    2111.76      45.95
 69.07    1837.00      42.86
 69.17    1601.20      40.01
 69.27    1426.00      37.76
 69.37    1275.32      35.71
 69.47    1153.00      33.96
 69.57     931.86      30.53
 69.67     932.00      30.53
 69.77     881.00      29.68
 69.87     703.38      26.52
 69.97     766.64      27.69
 70.07     726.00      26.94
 70.17     678.93      26.06
 70.27     665.00      25.79
 70.37     683.00      26.13
 70.47     771.00      27.77
 70.57     732.00      27.06
 70.67     667.99      25.85
 70.77     682.84      26.13
 70.87     718.00      26.80
 70.97     706.00      26.57
 71.07     671.00      25.90
 71.17     730.65      27.03
 71.27     723.00      26.89
 71.37     701.13      26.48
 71.47     757.00      27.51
 71.57     775.74      27.85
 71.67     816.00      28.57
 71.77     908.00      30.13
 71.87     970.00      31.14
 71.97    1129.00      33.60
 72.07    1249.00      35.34
 72.17    1416.00      37.63
 72.27    1635.67      40.44
 72.37    1820.78      42.67
 72.47    1844.96      42.95
 72.57    1980.00      44.50
 72.67    1971.00      44.40
 72.77    1971.00      44.40
 72.87    1827.24      42.75
 72.97    1756.00      41.90
 73.07    1526.00      39.06
 73.17    1425.12      37.75
 73.27    1269.00      35.62
 73.37    1082.00      32.89
 73.47     945.00      30.74
 73.57     827.35      28.76
 73.67     771.93      27.78
 73.77     732.00      27.06
 73.87     729.00      27.00
 73.97     676.55      26.01
 74.07     699.00      26.44
 74.17     710.00      26.65
 74.27     655.03      25.59
 74.37     728.00      26.98
 74.47     617.98      24.86
 74.57     663.00      25.75
 74.67     653.48      25.56
 74.77     671.00      25.90
 74.87     641.00      25.32
 74.97     700.00      26.46
 75.07     693.53      26.33
 75.17     735.00      27.11
 75.27     716.31      26.76
 75.37     741.00      27.22
 75.47     694.00      26.34
 75.57     698.50      26.43
 75.67     677.68      26.03
 75.77     715.00      26.74
 75.87     674.38      25.97
 75.97     699.00      26.44
 76.07     645.00      25.40
 76.17     693.00      26.32
 76.27     704.00      26.53
 76.37     712.00      26.68
 76.47     737.00      27.15
 76.57     747.00      27.33
 76.67     863.77      29.39
 76.77     867.00      29.44
 76.87     890.10      29.83
 76.97     931.24      30.52
 77.07     916.45      30.27
 77.17     965.49      31.07
 77.27    1031.42      32.12
 77.37    1005.76      31.71
 77.47     967.00      31.10
 77.57     880.79      29.68
 77.67     863.00      29.38
 77.77     833.18      28.86
 77.87     759.00      27.55
 77.97     759.00      27.55
 78.07     675.00      25.98
 78.17     686.59      26.20
 78.27     687.35      26.22
 78.37     667.56      25.84
 78.47     640.00      25.30
 78.57     668.00      25.85
 78.67     675.70      25.99
 78.77     674.00      25.96
 78.87     606.00      24.62
 78.97     612.00      24.74
 79.07     570.00      23.87
 79.17     595.00      24.39
 79.27     591.15      24.31
 79.37     597.00      24.43
 79.47     576.00      24.00
 79.57     588.00      24.25
 79.67     629.00      25.08
 79.77     607.00      24.64
 79.87     606.00      24.62
 79.97     589.33      24.28
 80.07     594.31      24.38
 80.17     640.05      25.30
 80.27     651.00      25.51
 80.37     691.58      26.30
 80.47     691.63      26.30
 80.57     699.00      26.44
 80.67     740.00      27.20
 80.77     814.00      28.53
 80.87     876.00      29.60
 80.97     896.49      29.94
 81.07     939.53      30.65
 81.17    1035.00      32.17
 81.27    1076.73      32.81
 81.37    1227.00      35.03
 81.47    1267.00      35.59
 81.57    1273.59      35.69
 81.67    1455.00      38.14
 81.77    1468.00      38.31
 81.87    1412.00      37.58
 81.97    1401.00      37.43
 82.07    1372.00      37.04
 82.17    1349.00      36.73
 82.27    1237.00      35.17
 82.37    1196.00      34.58
 82.47    1128.81      33.60
 82.57    1086.00      32.95
 82.67     942.00      30.69
 82.77     914.74      30.24
 82.87     855.00      29.24
 82.97     849.36      29.14
 83.07     821.23      28.66
 83.17     733.53      27.08
 83.27     774.01      27.82
 83.37     664.62      25.78
 83.47     690.37      26.27
 83.57     709.71      26.64
 83.67     681.00      26.10
 83.77     681.19      26.10
 83.87     700.50      26.47
 83.97     652.07      25.54
 84.07     701.87      26.49
 84.17     616.00      24.82
 84.27     629.00      25.08
 84.37     637.00      25.24
 84.47     662.00      25.73
 84.57     680.00      26.08
 84.67     657.00      25.63
 84.77     735.31      27.12
 84.87     665.00      25.79
 84.97     641.00      25.32
 85.07     709.44      26.64
 85.17     663.00      25.75
 85.27     687.49      26.22
 85.37     589.00      24.27
 85.47     601.00      24.52
 85.57     630.00      25.10
 85.67     670.12      25.89
 85.77     601.00      24.52
 85.87     596.24      24.42
 85.97     641.00      25.32
 86.07     600.00      24.49
 86.17     605.64      24.61
 86.27     578.44      24.05
 86.37     652.00      25.53
 86.47     635.78      25.21
 86.57     613.00      24.76
 86.67     619.00      24.88
 86.77     652.85      25.55
 86.87     672.71      25.94
 86.97     610.37      24.71
 87.07     681.43      26.10
 87.17     735.00      27.11
 87.27     657.03      25.63
 87.37     671.00      25.90
 87.47     669.00      25.87
 87.57     739.00      27.18
 87.67     679.74      26.07
 87.77     662.87      25.75
 87.87     668.47      25.85
 87.97     685.65      26.19
 88.07     723.00      26.89
 88.17     682.00      26.12
 88.27     690.00      26.27
 88.37     701.00      26.48
 88.47     683.00      26.13
 88.57     665.00      25.79
 88.67     721.00      26.85
 88.77     647.00      25.44
 88.87     695.00      26.36
 88.97     659.00      25.67
 89.07     701.00      26.48
 89.17     649.88      25.49
 89.27     615.00      24.80
 89.37     673.00      25.94
 89.47     614.00      24.78
 89.57     659.00      25.67
 89.67     651.00      25.51
 89.77     709.27      26.63
 89.87     695.00      26.36
 89.97     679.00      26.06
 90.07     685.92      26.19
 90.17     671.00      25.90
 90.27     643.96      25.38
 90.37     667.00      25.83
 90.47     637.34      25.25
 90.57     612.05      24.74
 90.67     677.00      26.02
 90.77     654.00      25.57
 90.87     680.03      26.08
 90.97     590.00      24.29
 91.07     609.00      24.68
 91.17     613.00      24.76
 91.27     634.60      25.19
 91.37     611.00      24.72
 91.47     617.00      24.84
 91.57     606.00      24.62
 91.67     571.00      23.90
 91.77     621.00      24.92
 91.87     566.44      23.80
 91.97     606.00      24.62
 92.07     626.00      25.02
 92.17     618.00      24.86
 92.27     587.33      24.23
 92.37     631.00      25.12
 92.47     579.45      24.07
 92.57     602.05      24.54
 92.67     625.00      25.00
 92.77     609.53      24.69
 92.87     642.00      25.34
 92.97     678.66      26.05
 93.07     635.45      25.21
 93.17     703.90      26.53
 93.27     711.00      26.66
 93.37     746.00      27.31
 93.47     663.00      25.75
 93.57     699.00      26.44
 93.67     740.43      27.21
 93.77     773.00      27.80
 93.87     812.00      28.50
 93.97     759.00      27.55
 94.07     787.00      28.05
 94.17     847.00      29.10
 94.27     819.00      28.62
 94.37     910.00      30.17
 94.47     853.00      29.21
 94.57     900.40      30.01
 94.67     864.00      29.39
 94.77     905.00      30.08
 94.87     947.50      30.78
 94.97    1024.54      32.01
 95.07     932.22      30.53
 95.17     964.00      31.05
 95.27     971.78      31.17
 95.37     978.86      31.29
 95.47    1110.00      33.32
 95.57    1008.00      31.75
 95.67     993.00      31.51
 95.77    1011.00      31.80
 95.87    1066.46      32.66
 95.97    1029.00      32.08
 96.07     996.00      31.56
 96.17     901.00      30.02
 96.27     975.00      31.22
 96.37     873.03      29.55
 96.47     790.38      28.11
 96.57     813.24      28.52
 96.67     765.25      27.66
 96.77     847.00      29.10
 96.87     875.00      29.58
 96.97     754.97      27.48
 97.07     838.04      28.95
 97.17     890.00      29.83
 97.27     878.00      29.63
 97.37    1001.00      31.64
 97.47    1009.59      31.77
 97.57    1020.50      31.95
 97.67    1121.00      33.48
 97.77    1187.05      34.45
 97.87    1241.44      35.23
 97.97    1307.35      36.16
 98.07    1479.00      38.46
 98.17    1526.00      39.06
 98.27    1505.00      38.79
 98.37    1649.00      40.61
 98.47    1630.00      40.37
 98.57    1525.38      39.06
 98.67    1520.00      38.99
 98.77    1534.00      39.17
 98.87    1449.80      38.08
 98.97    1351.88      36.77
 99.07    1315.00      36.26
 99.17    1296.00      36.00
 99.27    1224.67      35.00
 99.37    1165.14      34.13
 99.47    1139.35      33.75
 99.57    1040.89      32.26
 99.67     982.00      31.34
 99.77    1070.88      32.72
 99.87     997.00      31.58
 99.97    1023.00      31.98
100.07    1082.00      32.89
100.17    1061.00      32.57
100.27    1089.89      33.01
100.37    1154.00      33.97
100.47    1221.00      34.94
100.57    1274.37      35.70
100.67    1356.00      36.82
100.77    1562.00      39.52
100.87    1576.18      39.70
100.97    1595.13      39.94
101.07    1741.00      41.73
101.17    1868.00      43.22
101.27    1836.52      42.85
101.37    2022.00      44.97
101.47    1982.10      44.52
101.57    2007.86      44.81
101.67    2049.00      45.27
101.77    2116.00      46.00
101.87    2107.82      45.91
101.97    2135.00      46.21
102.07    2073.38      45.53
102.17    1979.74      44.49
102.27    1916.32      43.78
102.37    1938.00      44.02
102.47    1780.00      42.19
102.57    1686.12      41.06
102.67    1750.62      41.84
102.77    1611.00      40.14
102.87    1571.00      39.64
102.97    1504.17      38.78
103.07    1445.00      38.01
103.17    1365.00      36.95
103.27    1303.97      36.11
103.37    1280.18      35.78
103.47    1279.00      35.76
103.57    1280.54      35.78
103.67    1298.58      36.04
103.77    1212.33      34.82
103.87    1179.00      34.34
103.97    1102.00      33.20
104.07    1086.00      32.95
104.17    1081.00      32.88
104.27     963.00      31.03
104.37    1003.00      31.67
104.47     913.00      30.22
104.57     897.00      29.95
104.67     825.00      28.72
104.77     799.00      28.27
104.87     716.81      26.77
104.97     737.00      27.15
105.07     753.24      27.45
105.17     652.72      25.55
105.27     702.91      26.51
105.37     606.24      24.62
105.47     682.00      26.12
105.57     647.72      25.45
105.67     595.48      24.40
105.77     656.00      25.61
105.87     602.18      24.54
105.97     645.00      25.40
106.07     616.00      24.82
106.17     584.00      24.17
106.27     598.00      24.45
106.37     636.27      25.22
106.47     625.00      25.00
106.57     594.32      24.38
106.67     618.00      24.86
106.77     620.00      24.90
106.87     679.00      26.06
106.97     656.88      25.63
107.07     641.20      25.32
107.17     637.00      25.24
107.27     681.00      26.10
107.37     682.06      26.12
107.47     696.00      26.38
107.57     698.25      26.42
107.67     714.00      26.72
107.77     713.00      26.70
107.87     751.00      27.40
107.97     749.00      27.37
108.07     757.42      27.52
108.17     769.55      27.74
108.27     774.00      27.82
108.37     747.00      27.33
108.47     793.00      28.16
108.57     770.00      27.75
108.67     806.00      28.39
108.77     749.00      27.37
108.87     779.00      27.91
108.97     730.09      27.02
109.07     756.00      27.50
109.17     828.68      28.79
109.27     732.91      27.07
109.37     720.00      26.83
109.47     753.08      27.44
109.57     751.00      27.40
109.67     736.00      27.13
109.77     735.00      27.11
109.87     771.00      27.77
109.97     801.17      28.31
110.07     743.00      27.26
110.17     755.00      27.48
110.27     754.00      27.46
110.37     698.00      26.42
110.47     757.00      27.51
110.57     740.55      27.21
110.67     782.65      27.98
110.77     756.00      27.50
110.87     723.00      26.89
110.97     703.00      26.51
111.07     703.00      26.51
111.17     665.00      25.79
111.27     700.00      26.46
111.37     686.00      26.19
111.47     703.00      26.51
111.57     662.00      25.73
111.67     596.00      24.41
111.77     604.00      24.58
111.87     618.00      24.86
111.97     607.12      24.64
112.07     651.00      25.51
112.17     645.00      25.40
112.27     586.00      24.21
112.37     634.00      25.18
112.47     618.00      24.86
112.57     565.62      23.78
112.67     623.00      24.96
112.77     555.35      23.57
112.87     547.00      23.39
112.97     621.00      24.92
113.07     641.75      25.33
113.17     564.34      23.76
113.27     600.00      24.49
113.37     618.00      24.86
113.47     634.00      25.18
113.57     650.00      25.50
113.67     613.00      24.76
113.77     624.61      24.99
113.87     633.22      25.16
113.97     659.00      25.67
114.07     678.14      26.04
114.17     623.00      24.96
114.27     619.00      24.88
114.37     664.22      25.77
114.47     677.42      26.03
114.57     703.03      26.51
114.67     673.00      25.94
114.77     736.00      27.13
114.87     801.00      28.30
114.97     782.00      27.96
115.07     848.00      29.12
115.17     861.00      29.34
115.27     877.00      29.61
115.37    1017.00      31.89
115.47    1171.12      34.22
115.57    1173.00      34.25
115.67    1328.00      36.44
115.77    1435.00      37.88
115.87    1590.85      39.89
115.97    1927.00      43.90
116.07    2137.62      46.23
116.17    2319.00      48.16
116.27    2620.00      51.19
116.37    2788.74      52.81
116.47    3228.00      56.82
116.57    3628.09      60.23
116.67    3731.00      61.08
116.77    4260.17      65.27
116.87    4652.00      68.21
116.97    4845.00      69.61
117.07    5452.00      73.84
117.17    5722.00      75.64
117.27    6218.81      78.86
117.37    6477.52      80.48
117.47    6862.00      82.84
117.57    7214.00      84.94
117.67    7356.00      85.77
117.77    7605.00      87.21
117.87    7539.59      86.83
117.97    7567.94      86.99
118.07    7509.00      86.65
118.17    7343.00      85.69
118.27    7151.96      84.57
118.37    7039.36      83.90
118.47    6617.10      81.35
118.57    6186.00      78.65
118.67    5881.00      76.69
118.77    5496.00      74.14
118.87    5245.00      72.42
118.97    4888.00      69.91
119.07    4538.00      67.36
119.17    4146.00      64.39
119.27    3796.00      61.61
119.37    3315.77      57.58
119.47    2961.24      54.42
119.57    2840.74      53.30
119.67    2435.92      49.36
119.77    2267.05      47.61
119.87    2082.00      45.63
119.97    1875.11      43.30
120.07    1722.00      41.50
120.17    1575.00      39.69
120.27    1490.00      38.60
120.37    1236.00      35.16
120.47    1223.87      34.98
120.57    1203.00      34.68
120.67    1145.00      33.84
120.77     999.00      31.61
120.87     970.00      31.14
120.97     932.00      30.53
121.07     919.77      30.33
121.17     833.00      28.86
121.27     835.00      28.90
121.37     837.36      28.94
121.47     786.33      28.04
121.57     741.00      27.22
121.67     727.56      26.97
121.77     726.00      26.94
121.87     695.00      26.36
121.97     713.00      26.70
122.07     706.23      26.57
122.17     695.00      26.36
122.27     640.00      25.30
122.37     690.00      26.27
122.47     666.00      25.81
122.57     674.00      25.96
122.67     640.00      25.30
122.77     656.00      25.61
122.87     756.66      27.51
122.97     735.98      27.13
123.07     674.00      25.96
123.17     751.00      27.40
123.27     696.00      26.38
123.37     792.00      28.14
123.47     743.00      27.26
123.57     769.00      27.73
123.67     779.16      27.91
123.77     779.00      27.91
123.87     757.00      27.51
123.97     744.00      27.28
124.07     781.00      27.95
124.17     785.00      28.02
124.27     782.00      27.96
124.37     793.00      28.16
124.47     766.63      27.69
124.57     777.56      27.88
124.67     781.00      27.95
124.77     789.00      28.09
124.87     782.00      27.96
124.97     765.00      27.66
