  9.97     661.94      25.73
 10.07     716.00      26.76
 10.17     754.09      27.46
 10.27     733.03      27.07
 10.37     683.24      26.14
 10.47     706.20      26.57
 10.57     701.00      26.48
 10.67     659.92      25.69
 10.77     691.00      26.29
 10.87     756.00      27.50
 10.97     661.34      25.72
 11.07     691.27      26.29
 11.17     700.00      26.46
 11.27     730.23      27.02
 11.37     664.95      25.79
 11.47     679.36      26.06
 11.57     697.76      26.42
 11.67     746.00      27.31
 11.77     749.16      27.37
 11.87     719.00      26.81
 11.97     791.00      28.12
 12.07     827.00      28.76
 12.17     849.00      29.14
 12.27     825.00      28.72
 12.37     840.00      28.98
 12.47     803.00      28.34
 12.57     783.82      28.00
 12.67     739.78      27.20
 12.77     702.00      26.50
 12.87     679.00      26.06
 12.97     656.00      25.61
 13.07     664.00      25.77
 13.17     676.00      26.00
 13.27     644.00      25.38
 13.37     684.41      26.16
 13.47     670.45      25.89
 13.57     627.45      25.05
 13.67     688.00      26.23
 13.77     652.00      25.53
 13.87     634.14      25.18
 13.97     689.00      26.25
 14.07     669.00      25.87
 14.17     669.00      25.87
 14.27     657.00      25.63
 14.37     664.00      25.77
 14.47     679.03      26.06
 14.57     655.00      25.59
 14.67     614.39      24.79
 14.77     656.00      25.61
 14.87     628.88      25.08
 14.97     656.45      25.62
 15.07     633.10      25.16
 15.17     628.00      25.06
 15.27     582.00      24.12
 15.37     653.00      25.55
 15.47     641.27      25.32
 15.57     648.74      25.47
 15.67     661.00      25.71
 15.77     620.57      24.91
 15.87     671.00      25.90
 15.97     663.00      25.75
 16.07     624.00      24.98
 16.17     725.00      26.93
 16.27     617.23      24.84
 16.37     654.00      25.57
 16.47     636.00      25.22
 16.57     627.00      25.04
 16.67     611.00      24.72
 16.77     644.25      25.38
 16.87     670.00      25.88
 16.97     668.55      25.86
 17.07     628.00      25.06
 17.17     670.79      25.90
 17.27     645.00      25.40
 17.37     644.00      25.38
 17.47     693.19      26.33
 17.57     654.54      25.58
 17.67     652.00      25.53
 17.77     659.51      25.68
 17.87     551.00      23.47
 17.97     652.53      25.54
 18.07     620.00      24.90
 18.17     675.37      25.99
 18.27     570.00      23.87
 18.37     648.53      25.47
 18.47     634.13      25.18
 18.57     619.00      24.88
 18.67     587.00      24.23
 18.77     621.00      24.92
 18.87     653.00      25.55
 18.97     647.53      25.45
 19.07     650.46      25.50
 19.17     652.00      25.53
 19.27     652.00      25.53
 19.37     603.00      24.56
 19.47     599.00      24.47
 19.57     590.00      24.29
 19.67     604.00      24.58
 19.77     571.00      23.90
 19.87     620.00      24.90
 19.97     611.00      24.72
 20.07     587.00      24.23
 20.17     616.00      24.82
 20.27     626.84      25.04
 20.37     607.68      24.65
 20.47     657.00      25.63
 20.57     612.00      24.74
 20.67     657.81      25.65
 20.77     590.00      24.29
 20.87     640.91      25.32
 20.97     593.57      24.36
 21.07     643.84      25.37
 21.17     620.79      24.92
 21.27     660.00      25.69
 21.37     609.00      24.68
 21.47     591.05      24.31
 21.57     583.12      24.15
 21.67     622.21      24.94
 21.77     650.97      25.51
 21.87     631.00      25.12
 21.97     610.19      24.70
 22.07     612.91      24.76
 22.17     595.00      24.39
 22.27     618.00      24.86
 22.37     590.00      24.29
 22.47     623.25      24.96
 22.57     599.81      24.49
 22.67     645.48      25.41
 22.77     560.00      23.66
 22.87     631.00      25.12
 22.97     605.26      24.60
 23.07     602.00      24.54
 23.17     583.67      24.16
 23.27     586.00      24.21
 23.37     617.00      24.84
 23.47     668.92      25.86
 23.57     610.00      24.70
 23.67     563.00      23.73
 23.77     661.35      25.72
 23.87     562.00      23.71
 23.97     614.00      24.78
 24.07     602.71      24.55
 24.17     644.00      25.38
 24.27     601.00      24.52
 24.37     635.00      25.20
 24.47     644.00      25.38
 24.57     665.00      25.79
 24.67     683.39      26.14
 24.77     698.24      26.42
 24.87     649.29      25.48
 24.97     660.00      25.69
 25.07     734.00      27.09
 25.17     694.00      26.34
 25.27     657.00      25.63
 25.37     683.91      26.15
 25.47     668.00      25.85
 25.57     641.00      25.32
 25.67     617.00      24.84
 25.77     693.00      26.32
 25.87     673.00      25.94
 25.97     599.90      24.49
 26.07     612.00      24.74
 26.17     637.00      25.24
 26.27     639.00      25.28
 26.37     637.08      25.24
 26.47     629.00      25.08
 26.57     650.00      25.50
 26.67     647.77      25.45
 26.77     613.00      24.76
 26.87     702.00      26.50
 26.97     641.25      25.32
 27.07     699.76      26.45
 27.17     685.00      26.17
 27.27     747.00      27.33
 27.37     726.00      26.94
 27.47     760.00      27.57
 27.57     763.00      27.62
 27.67     791.00      28.12
 27.77     879.72      29.66
 27.87     946.00      30.76
 27.97    1265.00      35.57
 28.07    2121.85      46.06
 28.17    3259.30      57.09
 28.27    5034.00      70.95
 28.37    6831.00      82.65
 28.47    7416.21      86.12
 28.57    6655.47      81.58
 28.67    5075.00      71.24
 28.77    3683.00      60.69
 28.87    3151.22      56.14
 28.97    3527.00      59.39
 29.07    4071.00      63.80
 29.17    4306.18      65.62
 29.27    3776.00      61.45
 29.37    2848.00      53.37
 29.47    1863.00      43.16
 29.57    1376.98      37.11
 29.67    1083.00      32.91
 29.77     943.00      30.71
 29.87     876.00      29.60
 29.97     811.00      28.48
 30.07     795.00      28.20
 30.17     728.00      26.98
 30.27     718.00      26.80
 30.37     698.00      26.42
 30.47     624.55      24.99
 30.57     621.00      24.92
 30.67     656.00      25.61
 30.77     724.45      26.92
 30.87     681.00      26.10
 30.97     755.00      27.48
 31.07     790.00      28.11
 31.17     792.00      28.14
 31.27     808.00      28.43
 31.37     727.00      26.96
 31.47     722.00      26.87
 31.57     614.19      24.78
 31.67     635.07      25.20
 31.77     670.00      25.88
 31.87     635.00      25.20
 31.97     629.00      25.08
 32.07     572.34      23.92
 32.17     620.00      24.90
 32.27     632.64      25.15
 32.37     620.00      24.90
 32.47     641.00      25.32
 32.57     653.33      25.56
 32.67     610.00      24.70
 32.77     605.00      24.60
 32.87     622.00      24.94
 32.97     591.67      24.32
 33.07     583.35      24.15
 33.17     629.00      25.08
 33.27     673.00      25.94
 33.37     640.00      25.30
 33.47     684.00      26.15
 33.57     684.57      26.16
 33.67     650.00      25.50
 33.77     763.00      27.62
 33.87     743.18      27.26
 33.97     800.38      28.29
 34.07     978.08      31.27
 34.17    1155.00      33.99
 34.27    1205.00      34.71
 34.37    1202.00      34.67
 34.47    1131.27      33.63
 34.57     900.00      30.00
 34.67     824.00      28.71
 34.77     731.59      27.05
 34.87     684.00      26.15
 34.97     711.00      26.66
 35.07     661.86      25.73
 35.17     656.00      25.61
 35.27     642.03      25.34
 35.37     661.00      25.71
 35.47     620.25      24.90
 35.57     621.00      24.92
 35.67     573.51      23.95
 35.77     599.00      24.47
 35.87     610.00      24.70
 35.97     634.00      25.18
 36.07     552.76      23.51
 36.17     611.00      24.72
 36.27     600.00      24.49
 36.37     583.00      24.15
 36.47     632.00      25.14
 36.57     611.00      24.72
 36.67     599.00      24.47
 36.77     586.11      24.21
 36.87     538.00      23.19
 36.97     604.45      24.59
 37.07     577.71      24.04
 37.17     634.00      25.18
 37.27     547.87      23.41
 37.37     635.09      25.20
 37.47     647.25      25.44
 37.57     569.32      23.86
 37.67     588.00      24.25
 37.77     644.00      25.38
 37.87     597.00      24.43
 37.97     655.00      25.59
 38.07     654.00      25.57
 38.17     674.00      25.96
 38.27     768.00      27.71
 38.37     745.00      27.29
 38.47     691.00      26.29
 38.57     755.00      27.48
 38.67     635.00      25.20
 38.77     631.00      25.12
 38.87     659.71      25.68
 38.97     605.00      24.60
 39.07     580.78      24.10
 39.17     575.00      23.98
 39.27     651.00      25.51
 39.37     611.00      24.72
 39.47     610.00      24.70
 39.57     593.96      24.37
 39.67     629.61      25.09
 39.77     632.93      25.16
 39.87     605.00      24.60
 39.97     579.85      24.08
 40.07     547.21      23.39
 40.17     618.00      24.86
 40.27     586.00      24.21
 40.37     582.00      24.12
 40.47     573.00      23.94
 40.57     554.00      23.54
 40.67     543.45      23.31
 40.77     610.97      24.72
 40.87     556.00      23.58
 40.97     609.45      24.69
 41.07     583.00      24.15
 41.17     558.00      23.62
 41.27     619.00      24.88
 41.37     559.00      23.64
 41.47     579.00      24.06
 41.57     534.00      23.11
 41.67     561.00      23.69
 41.77     573.55      23.95
 41.87     592.00      24.33
 41.97     611.58      24.73
 42.07     544.70      23.34
 42.17     618.00      24.86
 42.27     572.00      23.92
 42.37     580.00      24.08
 42.47     581.00      24.10
 42.57     645.66      25.41
 42.67     592.22      24.34
 42.77     613.76      24.77
 42.87     631.00      25.12
 42.97     659.39      25.68
 43.07     722.36      26.88
 43.17     696.00      26.38
 43.27     657.79      25.65
 43.37     650.33      25.50
 43.47     682.95      26.13
 43.57     605.24      24.60
 43.67     616.00      24.82
 43.77     594.00      24.37
 43.87     577.00      24.02
 43.97     604.00      24.58
 44.07     632.02      25.14
 44.17     580.00      24.08
 44.27     556.00      23.58
 44.37     593.00      24.35
 44.47     587.00      24.23
 44.57     548.00      23.41
 44.67     571.34      23.90
 44.77     615.00      24.80
 44.87     610.00      24.70
 44.97     619.62      24.89
 45.07     596.18      24.42
 45.17     612.00      24.74
 45.27     547.49      23.40
 45.37     562.31      23.71
 45.47     559.16      23.65
 45.57     619.00      24.88
 45.67     605.75      24.61
 45.77     601.00      24.52
 45.87     559.52      23.65
 45.97     626.64      25.03
 46.07     571.18      23.90
 46.17     551.00      23.47
 46.27     608.00      24.66
 46.37     562.00      23.71
 46.47     583.99      24.17
 46.57     607.99      24.66
 46.67     613.00      24.76
 46.77     625.00      25.00
 46.87     577.00      24.02
 46.97     588.00      24.25
 47.07     666.00      25.81
 47.17     596.91      24.43
 47.27     600.00      24.49
 47.37     589.00      24.27
 47.47     573.00      23.94
 47.57     628.00      25.06
 47.67     640.00      25.30
 47.77     570.00      23.87
 47.87     628.00      25.06
 47.97     644.00      25.38
 48.07     699.87      26.46
 48.17     664.00      25.77
 48.27     726.00      26.94
 48.37     706.32      26.58
 48.47     692.00      26.31
 48.57     662.11      25.73
 48.67     673.00      25.94
 48.77     628.00      25.06
 48.87     640.00      25.30
 48.97     643.00      25.36
 49.07     626.00      25.02
 49.17     625.25      25.00
 49.27     596.00      24.41
 49.37     625.00      25.00
 49.47     581.00      24.10
 49.57     671.67      25.92
 49.67     730.51      27.03
 49.77     751.00      27.40
 49.87     774.00      27.82
 49.97    1056.00      32.50
 50.07    1237.00      35.17
 50.17    1614.00      40.17
 50.27    2075.00      45.55
 50.37    2483.00      49.83
 50.47    2869.00      53.56
 50.57    3095.87      55.64
 50.67    3084.39      55.54
 50.77    2541.00      50.41
 50.87    2153.00      46.40
 50.97    1669.00      40.85
 51.07    1284.67      35.84
 51.17    1032.00      32.12
 51.27     928.00      30.46
 51.37     824.00      28.71
 51.47     784.00      28.00
 51.57     770.26      27.75
 51.67     657.00      25.63
 51.77     721.00      26.85
 51.87     705.47      26.56
 51.97     684.00      26.15
 52.07     727.00      26.96
 52.17     707.00      26.59
 52.27     703.00      26.51
 52.37     693.75      26.34
 52.47     650.69      25.51
 52.57     603.00      24.56
 52.67     662.00      25.73
 52.77     697.00      26.40
 52.87     669.00      25.87
 52.97     689.00      26.25
 53.07     649.92      25.49
 53.17     739.00      27.18
 53.27     775.96      27.86
 53.37     802.00      28.32
 53.47     920.23      30.34
 53.57     910.70      30.18
 53.67    1056.00      32.50
 53.77    1151.00      33.93
 53.87    1303.00      36.10
 53.97    1266.00      35.58
 54.07    1300.18      36.06
 54.17    1135.00      33.69
 54.27    1081.00      32.88
 54.37     960.88      31.00
 54.47     868.00      29.46
 54.57     861.57      29.35
 54.67     774.64      27.83
 54.77     659.00      25.67
 54.87     719.71      26.83
 54.97     629.00      25.08
 55.07     655.00      25.59
 55.17     658.00      25.65
 55.27     668.16      25.85
 55.37     649.00      25.48
 55.47     705.00      26.55
 55.57     645.58      25.41
 55.67     673.79      25.96
 55.77     678.33      26.04
 55.87     691.64      26.30
 55.97     688.28      26.24
 56.07     685.00      26.17
 56.17     758.00      27.53
 56.27     740.00      27.20
 56.37     783.10      27.98
 56.47     872.06      29.53
 56.57     918.00      30.30
 56.67    1061.94      32.59
 56.77    1295.00      35.99
 56.87    1519.00      38.97
 56.97    1860.00      43.13
 57.07    2220.72      47.12
 57.17    2584.00      50.83
 57.27    2805.00      52.96
 57.37    2785.00      52.77
 57.47    2530.25      50.30
 57.57    2406.00      49.05
 57.67    1905.00      43.65
 57.77    1627.48      40.34
 57.87    1268.00      35.61
 57.97    1053.00      32.45
 58.07     944.23      30.73
 58.17     846.00      29.09
 58.27     770.00      27.75
 58.37     824.00      28.71
 58.47     812.00      28.50
 58.57     808.00      28.43
 58.67     812.43      28.50
 58.77     865.00      29.41
 58.87     995.00      31.54
 58.97     991.00      31.48
 59.07    1181.00      34.37
 59.17    1145.00      33.84
 59.27    1250.00      35.36
 59.37    1345.21      36.68
 59.47    1423.00      37.72
 59.57    1360.00      36.88
 59.67    1338.00      36.58
 59.77    1200.81      34.65
 59.87    1229.17      35.06
 59.97    1201.13      34.66
 60.07    1208.00      34.76
 60.17    1339.00      36.59
 60.27    1299.47      36.05
 60.37    1468.00      38.31
 60.47    1535.00      39.18
 60.57    1635.17      40.44
 60.67    1619.00      40.24
 60.77    1563.00      39.53
 60.87    1534.00      39.17
 60.97    1383.00      37.19
 61.07    1235.00      35.14
 61.17    1133.00      33.66
 61.27     958.38      30.96
 61.37     847.00      29.10
 61.47     827.00      28.76
 61.57     741.00      27.22
 61.67     757.92      27.53
 61.77     830.00      28.81
 61.87     879.49      29.66
 61.97     889.00      29.82
 62.07    1025.00      32.02
 62.17    1139.04      33.75
 62.27    1296.00      36.00
 62.37    1451.00      38.09
 62.47    1610.32      40.13
 62.57    1715.00      41.41
 62.67    1758.00      41.93
 62.77    1759.00      41.94
 62.87    1541.68      39.26
 62.97    1410.00      37.55
 63.07    1245.52      35.29
 63.17    1076.00      32.80
 63.27     949.00      30.81
 63.37     876.00      29.60
 63.47     811.00      28.48
 63.57     775.01      27.84
 63.67     785.00      28.02
 63.77     700.94      26.48
 63.87     710.00      26.65
 63.97     739.00      27.18
 64.07     713.00      26.70
 64.17     757.00      27.51
 64.27     772.62      27.80
 64.37     772.76      27.80
 64.47     888.90      29.81
 64.57     935.89      30.59
 64.67    1040.19      32.25
 64.77    1118.00      33.44
 64.87    1296.00      36.00
 64.97    1381.00      37.16
 65.07    1475.00      38.41
 65.17    1597.00      39.96
 65.27    1561.17      39.51
 65.37    1514.00      38.91
 65.47    1407.00      37.51
 65.57    1350.00      36.74
 65.67    1228.63      35.05
 65.77     981.00      31.32
 65.87     944.00      30.72
 65.97     839.00      28.97
 66.07     829.00      28.79
 66.17     772.05      27.79
 66.27     770.00      27.75
 66.37     715.00      26.74
 66.47     711.00      26.66
 66.57     681.00      26.10
 66.67     701.27      26.48
 66.77     640.00      25.30
 66.87     694.00      26.34
 66.97     700.14      26.46
 67.07     667.00      25.83
 67.17     686.00      26.19
 67.27     687.56      26.22
 67.37     749.39      27.37
 67.47     773.00      27.80
 67.57     783.15      27.98
 67.67     830.00      28.81
 67.77     979.87      31.30
 67.87    1003.00      31.67
 67.97    1278.42      35.76
 68.07    1411.00      37.56
 68.17    1708.15      41.33
 68.27    1899.29      43.58
 68.37    2239.87      47.33
 68.47    2352.00      48.50
 68.57    2501.00      50.01
 68.67    2618.08      51.17
 68.77    2430.65      49.30
 68.87    2324.00      48.21
 68.97    2115.00      45.99
 69.07    1869.63      43.24
 69.17    1598.00      39.97
 69.27    1341.88      36.63
 69.37    1216.00      34.87
 69.47    1086.00      32.95
 69.57     912.00      30.20
 69.67     895.00      29.92
 69.77     815.03      28.55
 69.87     836.00      28.91
 69.97     759.00      27.55
 70.07     771.00      27.77
 70.17     750.00      27.39
 70.27     737.95      27.17
 70.37     696.00      26.38
 70.47     722.80      26.88
 70.57     701.00      26.48
 70.67     707.98      26.61
 70.77     662.08      25.73
 70.87     717.00      26.78
 70.97     663.00      25.75
 71.07     679.00      26.06
 71.17     703.00      26.51
 71.27     713.00      26.70
 71.37     754.00      27.46
 71.47     832.00      28.84
 71.57     838.00      28.95
 71.67     902.19      30.04
 71.77     935.00      30.58
 71.87    1065.00      32.63
 71.97    1131.61      33.64
 72.07    1354.00      36.80
 72.17    1493.00      38.64
 72.27    1632.00      40.40
 72.37    1749.02      41.82
 72.47    1924.92      43.87
 72.57    2068.75      45.48
 72.67    2058.92      45.38
 72.77    1968.24      44.36
 72.87    1766.00      42.02
 72.97    1570.00      39.62
 73.07    1527.00      39.08
 73.17    1405.22      37.49
 73.27    1192.00      34.53
 73.37     991.28      31.48
 73.47     997.46      31.58
 73.57     820.00      28.64
 73.67     805.01      28.37
 73.77     754.00      27.46
 73.87     698.00      26.42
 73.97     681.00      26.10
 74.07     691.00      26.29
 74.17     628.15      25.06
 74.27     711.00      26.66
 74.37     652.06      25.54
 74.47     671.00      25.90
 74.57     643.00      25.36
 74.67     634.60      25.19
 74.77     699.00      26.44
 74.87     618.25      24.86
 74.97     695.00      26.36
 75.07     645.14      25.40
 75.17     709.00      26.63
 75.27     719.82      26.83
 75.37     664.00      25.77
 75.47     750.00      27.39
 75.57     720.00      26.83
 75.67     684.00      26.15
 75.77     628.00      25.06
 75.87     672.00      25.92
 75.97     668.00      25.85
 76.07     682.00      26.12
 76.17     650.39      25.50
 76.27     699.00      26.44
 76.37     713.00      26.70
 76.47     770.23      27.75
 76.57     765.00      27.66
 76.67     756.00      27.50
 76.77     883.00      29.72
 76.87     939.00      30.64
 76.97     938.00      30.63
 77.07     945.00      30.74
 77.17     953.00      30.87
 77.27     975.26      31.23
 77.37    1017.19      31.89
 77.47     944.00      30.72
 77.57     921.00      30.35
 77.67     778.00      27.89
 77.77     795.96      28.21
 77.87     759.00      27.55
 77.97     721.00      26.85
 78.07     706.80      26.59
 78.17     653.00      25.55
 78.27     701.00      26.48
 78.37     685.63      26.18
 78.47     607.43      24.65
 78.57     631.00      25.12
 78.67     594.00      24.37
 78.77     633.00      25.16
 78.87     604.00      24.58
 78.97     626.65      25.03
 79.07     589.42      24.28
 79.17     659.00      25.67
 79.27     595.26      24.40
 79.37     636.00      25.22
 79.47     589.00      24.27
 79.57     622.00      24.94
 79.67     594.00      24.37
 79.77     609.75      24.69
 79.87     671.47      25.91
 79.97     640.09      25.30
 80.07     646.00      25.42
 80.17     627.00      25.04
 80.27     637.00      25.24
 80.37     695.31      26.37
 80.47     635.47      25.21
 80.57     707.00      26.59
 80.67     716.00      26.76
 80.77     743.00      27.26
 80.87     848.00      29.12
 80.97     860.00      29.33
 81.07     973.51      31.20
 81.17    1064.75      32.63
 81.27    1143.00      33.81
 81.37    1223.00      34.97
 81.47    1241.00      35.23
 81.57    1220.01      34.93
 81.67    1247.51      35.32
 81.77    1358.00      36.85
 81.87    1393.61      37.33
 81.97    1261.06      35.51
 82.07    1324.83      36.40
 82.17    1306.00      36.14
 82.27    1252.00      35.38
 82.37    1118.65      33.45
 82.47    1079.00      32.85
 82.57     976.37      31.25
 82.67     932.00      30.53
 82.77     815.00      28.55
 82.87     814.73      28.54
 82.97     784.30      28.01
 83.07     793.00      28.16
 83.17     722.00      26.87
 83.27     668.70      25.86
 83.37     740.00      27.20
 83.47     628.00      25.06
 83.57     616.00      24.82
 83.67     639.00      25.28
 83.77     664.35      25.78
 83.87     647.00      25.44
 83.97     605.00      24.60
 84.07     649.00      25.48
 84.17     613.00      24.76
 84.27     661.43      25.72
 84.37     659.00      25.67
 84.47     709.77      26.64
 84.57     678.83      26.05
 84.67     673.00      25.94
 84.77     684.00      26.15
 84.87     607.00      24.64
 84.97     718.19      26.80
 85.07     664.00      25.77
 85.17     655.00      25.59
 85.27     617.00      24.84
 85.37     601.00      24.52
 85.47     641.22      25.32
 85.57     628.00      25.06
 85.67     655.00      25.59
 85.77     603.00      24.56
 85.87     601.00      24.52
 85.97     562.00      23.71
 86.07     597.00      24.43
 86.17     598.00      24.45
 86.27     590.00      24.29
 86.37     568.40      23.84
 86.47     622.00      24.94
 86.57     632.00      25.14
 86.67     641.00      25.32
 86.77     628.00      25.06
 86.87     635.00      25.20
 86.97     686.00      26.19
 87.07     670.00      25.88
 87.17     679.13      26.06
 87.27     674.00      25.96
 87.37     706.00      26.57
 87.47     705.34      26.56
 87.57     690.00      26.27
 87.67     660.00      25.69
 87.77     711.32      26.67
 87.87     738.00      27.17
 87.97     738.22      27.17
 88.07     674.28      25.97
 88.17     749.00      27.37
 88.27     713.00      26.70
 88.37     678.34      26.04
 88.47     713.00      26.70
 88.57     681.00      26.10
 88.67     697.00      26.40
 88.77     679.00      26.06
 88.87     694.51      26.35
 88.97     688.00      26.23
 89.07     618.58      24.87
 89.17     610.00      24.70
 89.27     614.31      24.79
 89.37     633.00      25.16
 89.47     675.00      25.98
 89.57     667.96      25.84
 89.67     640.00      25.30
 89.77     702.76      26.51
 89.87     646.00      25.42
 89.97     664.00      25.77
 90.07     714.00      26.72
 90.17     712.00      26.68
 90.27     708.00      26.61
 90.37     652.00      25.53
 90.47     625.00      25.00
 90.57     636.00      25.22
 90.67     669.00      25.87
 90.77     634.86      25.20
 90.87     627.00      25.04
 90.97     609.00      24.68
 91.07     656.96      25.63
 91.17     599.00      24.47
 91.27     571.00      23.90
 91.37     624.94      25.00
 91.47     622.51      24.95
 91.57     576.00      24.00
 91.67     596.00      24.41
 91.77     545.54      23.36
 91.87     573.00      23.94
 91.97     543.61      23.32
 92.07     562.00      23.71
 92.17     591.00      24.31
 92.27     539.00      23.22
 92.37     570.67      23.89
 92.47     645.82      25.41
 92.57     601.00      24.52
 92.67     564.79      23.77
 92.77     585.00      24.19
 92.87     616.19      24.82
 92.97     662.09      25.73
 93.07     666.06      25.81
 93.17     698.00      26.42
 93.27     680.00      26.08
 93.37     749.86      27.38
 93.47     696.97      26.40
 93.57     783.75      28.00
 93.67     793.99      28.18
 93.77     748.97      27.37
 93.87     776.00      27.86
 93.97     833.43      28.87
 94.07     773.00      27.80
 94.17     792.00      28.14
 94.27     845.59      29.08
 94.37     848.00      29.12
 94.47     902.00      30.03
 94.57     891.42      29.86
 94.67     903.37      30.06
 94.77     882.09      29.70
 94.87     931.00      30.51
 94.97     955.00      30.90
 95.07     950.29      30.83
 95.17    1014.66      31.85
 95.27     970.56      31.15
 95.37    1070.73      32.72
 95.47    1048.38      32.38
 95.57    1011.94      31.81
 95.67    1013.00      31.83
 95.77    1059.00      32.54
 95.87     978.00      31.27
 95.97     957.00      30.94
 96.07     926.00      30.43
 96.17     951.19      30.84
 96.27     917.74      30.29
 96.37     923.00      30.38
 96.47     895.00      29.92
 96.57     783.00      27.98
 96.67     814.00      28.53
 96.77     825.00      28.72
 96.87     840.00      28.98
 96.97     811.00      28.48
 97.07     869.00      29.48
 97.17     857.00      29.27
 97.27     903.00      30.05
 97.37     894.49      29.91
 97.47    1078.00      32.83
 97.57    1111.01      33.33
 97.67    1194.58      34.56
 97.77    1210.98      34.80
 97.87    1339.00      36.59
 97.97    1411.63      37.57
 98.07    1486.14      38.55
 98.17    1462.00      38.24
 98.27    1508.00      38.83
 98.37    1490.02      38.60
 98.47    1627.66      40.34
 98.57    1493.00      38.64
 98.67    1598.00      39.97
 98.77    1427.00      37.78
 98.87    1491.77      38.62
 98.97    1412.00      37.58
 99.07    1299.95      36.05
 99.17    1297.00      36.01
 99.27    1176.00      34.29
 99.37    1144.00      33.82
 99.47    1110.00      33.32
 99.57    1055.63      32.49
 99.67    1008.57      31.76
 99.77     966.00      31.08
 99.87     994.00      31.53
 99.97     985.39      31.39
100.07    1054.00      32.47
100.17    1094.00      33.08
100.27    1097.00      33.12
100.37    1134.00      33.67
100.47    1221.00      34.94
100.57    1368.00      36.99
100.67    1358.35      36.86
100.77    1512.00      38.88
100.87    1537.00      39.20
100.97    1708.00      41.33
101.07    1718.47      41.45
101.17    1815.08      42.60
101.27    1930.00      43.93
101.37    2029.84      45.05
101.47    2044.82      45.22
101.57    2119.00      46.03
101.67    2145.00      46.31
101.77    2034.23      45.10
101.87    2010.01      44.83
101.97    2071.00      45.51
102.07    2065.00      45.44
102.17    1972.00      44.41
102.27    1944.15      44.09
102.37    1843.82      42.94
102.47    1847.19      42.98
102.57    1682.36      41.02
102.67    1672.50      40.90
102.77    1499.26      38.72
102.87    1526.00      39.06
102.97    1450.66      38.09
103.07    1322.00      36.36
103.17    1299.00      36.04
103.27    1269.00      35.62
103.37    1361.26      36.90
103.47    1290.00      35.92
103.57    1278.02      35.75
103.67    1200.00      34.64
103.77    1217.00      34.89
103.87    1117.27      33.43
103.97    1117.33      33.43
104.07    1049.00      32.39
104.17    1018.06      31.91
104.27     984.34      31.37
104.37     959.00      30.97
104.47     925.00      30.41
104.57     863.00      29.38
104.67     819.01      28.62
104.77     841.25      29.00
104.87     754.69      27.47
104.97     743.86      27.27
105.07     690.26      26.27
105.17     703.00      26.51
105.27     647.00      25.44
105.37     642.00      25.34
105.47     682.00      26.12
105.57     648.00      25.46
105.67     622.93      24.96
105.77     657.00      25.63
105.87     587.74      24.24
105.97     562.37      23.71
106.07     604.00      24.58
106.17     614.54      24.79
106.27     585.63      24.20
106.37     638.00      25.26
106.47     594.00      24.37
106.57     611.00      24.72
106.67     584.00      24.17
106.77     656.06      25.61
106.87     633.00      25.16
106.97     639.00      25.28
107.07     684.00      26.15
107.17     640.14      25.30
107.27     698.69      26.43
107.37     678.10      26.04
107.47     675.00      25.98
107.57     711.57      26.68
107.67     686.00      26.19
107.77     747.00      27.33
107.87     766.00      27.68
107.97     767.00      27.69
108.07     764.00      27.64
108.17     809.12      28.45
108.27     788.29      28.08
108.37     742.94      27.26
108.47     757.00      27.51
108.57     755.00      27.48
108.67     820.00      28.64
108.77     754.00      27.46
108.87     779.11      27.91
108.97     761.00      27.59
109.07     772.25      27.79
109.17     810.66      28.47
109.27     750.00      27.39
109.37     814.40      28.54
109.47     722.00      26.87
109.57     733.00      27.07
109.67     740.00      27.20
109.77     727.53      26.97
109.87     735.00      27.11
109.97     764.00      27.64
110.07     784.00      28.00
110.17     783.00      27.98
110.27     811.71      28.49
110.37     766.13      27.68
110.47     724.78      26.92
110.57     713.00      26.70
110.67     726.00      26.94
110.77     686.40      26.20
110.87     683.00      26.13
110.97     676.71      26.01
111.07     679.00      26.06
111.17     636.07      25.22
111.27     649.01      25.48
111.37     627.00      25.04
111.47     670.00      25.88
111.57     682.00      26.12
111.67     679.26      26.06
111.77     646.00      25.42
111.87     672.00      25.92
111.97     609.00      24.68
112.07     640.00      25.30
112.17     637.00      25.24
112.27     593.16      24.35
112.37     627.23      25.04
112.47     581.98      24.12
112.57     589.00      24.27
112.67     612.00      24.74
112.77     616.57      24.83
112.87     609.00      24.68
112.97     641.00      25.32
113.07     640.68      25.31
113.17     650.42      25.50
113.27     591.00      24.31
113.37     564.90      23.77
113.47     621.11      24.92
113.57     598.00      24.45
113.67     628.00      25.06
113.77     621.00      24.92
113.87     632.00      25.14
113.97     608.75      24.67
114.07     601.49      24.53
114.17     670.00      25.88
114.27     685.50      26.18
114.37     711.13      26.67
114.47     669.71      25.88
114.57     727.63      26.97
114.67     740.28      27.21
114.77     739.00      27.18
114.87     808.90      28.44
114.97     773.00      27.80
115.07     814.00      28.53
115.17     863.00      29.38
115.27     896.00      29.93
115.37    1048.11      32.37
115.47    1126.00      33.56
115.57    1278.03      35.75
115.67    1359.00      36.86
115.77    1517.00      38.95
115.87    1697.00      41.19
115.97    1853.72      43.05
116.07    2164.00      46.52
116.17    2441.00      49.41
116.27    2605.76      51.05
116.37    2933.31      54.16
116.47    3210.00      56.66
116.57    3617.00      60.14
116.67    3962.00      62.94
116.77    4288.00      65.48
116.87    4768.90      69.06
116.97    5004.00      70.74
117.07    5506.00      74.20
117.17    5875.00      76.65
117.27    6267.00      79.16
117.37    6761.25      82.23
117.47    6956.00      83.40
117.57    7199.74      84.85
117.67    7361.00      85.80
117.77    7610.00      87.24
117.87    7570.34      87.01
117.97    7529.00      86.77
118.07    7356.00      85.77
118.17    7340.00      85.67
118.27    6957.00      83.41
118.37    6744.34      82.12
118.47    6566.73      81.04
118.57    6145.65      78.39
118.67    5645.00      75.13
118.77    5280.00      72.66
118.87    4981.96      70.58
118.97    4725.00      68.74
119.07    4322.00      65.74
119.17    3934.47      62.73
119.27    3555.00      59.62
119.37    3190.00      56.48
119.47    2971.00      54.51
119.57    2501.30      50.01
119.67    2434.47      49.34
119.77    2184.34      46.74
119.87    2015.00      44.89
119.97    1822.00      42.68
120.07    1628.00      40.35
120.17    1500.00      38.73
120.27    1265.50      35.57
120.37    1287.18      35.88
120.47    1176.00      34.29
120.57    1167.00      34.16
120.67    1003.00      31.67
120.77     999.00      31.61
120.87     911.09      30.18
120.97     872.00      29.53
121.07     839.00      28.97
121.17     847.00      29.10
121.27     814.00      28.53
121.37     753.00      27.44
121.47     758.76      27.55
121.57     740.00      27.20
121.67     755.00      27.48
121.77     694.00      26.34
121.87     704.00      26.53
121.97     699.00      26.44
122.07     703.00      26.51
122.17     716.32      26.76
122.27     649.00      25.48
122.37     719.36      26.82
122.47     707.00      26.59
122.57     688.41      26.24
122.67     656.52      25.62
122.77     694.00      26.34
122.87     715.00      26.74
122.97     732.00      27.06
123.07     752.36      27.43
123.17     671.00      25.90
123.27     750.00      27.39
123.37     758.19      27.54
123.47     723.00      26.89
123.57     795.35      28.20
123.67     803.14      28.34
123.77     762.00      27.60
123.87     734.00      27.09
123.97     843.00      29.03
124.07     764.00      27.64
124.17     816.02      28.57
124.27     790.00      28.11
124.37     792.00      28.14
124.47     807.97      28.42
124.57     798.00      28.25
124.67     790.00      28.11
124.77     789.00      28.09
124.87     816.00      28.57
124.97     784.00      28.00
