  9.97     782.00      27.96
 10.07     777.43      27.88
 10.17     759.49      27.56
 10.27     769.00      27.73
 10.37     759.00      27.55
 10.47     798.47      28.26
 10.57     761.00      27.59
 10.67     780.70      27.94
 10.77     736.04      27.13
 10.87     739.00      27.18
 10.97     754.38      27.47
 11.07     779.00      27.91
 11.17     816.00      28.57
 11.27     787.00      28.05
 11.37     766.92      27.69
 11.47     763.00      27.62
 11.57     766.00      27.68
 11.67     783.00      27.98
 11.77     803.00      28.34
 11.87     804.00      28.35
 11.97     842.00      29.02
 12.07     885.00      29.75
 12.17     848.00      29.12
 12.27     909.42      30.16
 12.37     924.00      30.40
 12.47     831.27      28.83
 12.57     778.00      27.89
 12.67     789.72      28.10
 12.77     758.68      27.54
 12.87     751.00      27.40
 12.97     712.00      26.68
 13.07     671.00      25.90
 13.17     770.62      27.76
 13.27     680.04      26.08
 13.37     746.19      27.32
 13.47     730.00      27.02
 13.57     766.47      27.69
 13.67     666.00      25.81
 13.77     676.26      26.00
 13.87     672.00      25.92
 13.97     708.45      26.62
 14.07     698.00      26.42
 14.17     771.00      27.77
 14.27     714.74      26.73
 14.37     751.00      27.40
 14.47     738.07      27.17
 14.57     676.00      26.00
 14.67     711.00      26.66
 14.77     742.62      27.25
 14.87     664.05      25.77
 14.97     749.00      27.37
 15.07     680.00      26.08
 15.17     671.22      25.91
 15.27     762.58      27.61
 15.37     726.09      26.95
 15.47     750.00      27.39
 15.57     650.03      25.50
 15.67     693.00      26.32
 15.77     708.00      26.61
 15.87     629.00      25.08
 15.97     672.00      25.92
 16.07     744.22      27.28
 16.17     689.32      26.25
 16.27     708.00      26.61
 16.37     694.00      26.34
 16.47     700.00      26.46
 16.57     713.00      26.70
 16.67     659.00      25.67
 16.77     651.00      25.51
 16.87     642.26      25.34
 16.97     684.00      26.15
 17.07     660.00      25.69
 17.17     671.00      25.90
 17.27     646.56      25.43
 17.37     650.00      25.50
 17.47     666.00      25.81
 17.57     728.54      26.99
 17.67     698.77      26.43
 17.77     729.17      27.00
 17.87     691.13      26.29
 17.97     668.00      25.85
 18.07     692.00      26.31
 18.17     715.00      26.74
 18.27     648.29      25.46
 18.37     659.00      25.67
 18.47     722.62      26.88
 18.57     708.93      26.63
 18.67     657.00      25.63
 18.77     673.00      25.94
 18.87     689.00      26.25
 18.97     644.00      25.38
 19.07     646.00      25.42
 19.17     669.00      25.87
 19.27     639.00      25.28
 19.37     684.00      26.15
 19.47     651.00      25.51
 19.57     698.00      26.42
 19.67     632.00      25.14
 19.77     654.13      25.58
 19.87     697.95      26.42
 19.97     642.00      25.34
 20.07     666.00      25.81
 20.17     672.00      25.92
 20.27     670.00      25.88
 20.37     626.00      25.02
 20.47     742.00      27.24
 20.57     686.00      26.19
 20.67     659.08      25.67
 20.77     647.00      25.44
 20.87     677.01      26.02
 20.97     718.73      26.81
 21.07     662.00      25.73
 21.17     695.00      26.36
 21.27     684.00      26.15
 21.37     660.00      25.69
 21.47     690.00      26.27
 21.57     660.00      25.69
 21.67     678.00      26.04
 21.77     633.00      25.16
 21.87     640.00      25.30
 21.97     718.00      26.80
 22.07     714.58      26.73
 22.17     616.38      24.83
 22.27     659.00      25.67
 22.37     687.16      26.21
 22.47     661.00      25.71
 22.57     645.00      25.40
 22.67     627.00      25.04
 22.77     630.00      25.10
 22.87     639.00      25.28
 22.97     666.00      25.81
 23.07     683.00      26.13
 23.17     673.00      25.94
 23.27     630.00      25.10
 23.37     670.12      25.89
 23.47     645.68      25.41
 23.57     656.00      25.61
 23.67     670.61      25.90
 23.77     681.00      26.10
 23.87     640.00      25.30
 23.97     646.00      25.42
 24.07     712.73      26.70
 24.17     640.00      25.30
 24.27     637.00      25.24
 24.37     633.93      25.18
 24.47     630.56      25.11
 24.57     663.43      25.76
 24.67     758.00      27.53
 24.77     692.00      26.31
 24.87     721.48      26.86
 24.97     756.00      27.50
 25.07     762.37      27.61
 25.17     721.00      26.85
 25.27     748.62      27.36
 25.37     670.41      25.89
 25.47     696.00      26.38
 25.57     705.14      26.55
 25.67     689.96      26.27
 25.77     695.00      26.36
 25.87     673.00      25.94
 25.97     681.00      26.10
 26.07     714.00      26.72
 26.17     718.70      26.81
 26.27     642.43      25.35
 26.37     709.00      26.63
 26.47     741.77      27.24
 26.57     661.98      25.73
 26.67     666.21      25.81
 26.77     667.00      25.83
 26.87     715.00      26.74
 26.97     727.15      26.97
 27.07     746.28      27.32
 27.17     689.00      26.25
 27.27     734.01      27.09
 27.37     763.00      27.62
 27.47     777.19      27.88
 27.57     856.39      29.26
 27.67     925.51      30.42
 27.77     947.00      30.77
 27.87    1110.00      33.32
 27.97    1389.00      37.27
 28.07    2106.00      45.89
 28.17    3321.00      57.63
 28.27    5253.00      72.48
 28.37    7990.00      89.39
 28.47    9736.00      98.67
 28.57    9127.86      95.54
 28.67    7142.30      84.51
 28.77    5304.21      72.83
 28.87    4072.10      63.81
 28.97    4281.00      65.43
 29.07    4978.00      70.55
 29.17    5468.00      73.95
 29.27    5072.00      71.22
 29.37    4110.00      64.11
 29.47    2914.00      53.98
 29.57    1917.00      43.78
 29.67    1468.00      38.31
 29.77    1223.00      34.97
 29.87    1020.67      31.95
 29.97     952.00      30.85
 30.07     925.00      30.41
 30.17     900.00      30.00
 30.27     851.00      29.17
 30.37     738.00      27.17
 30.47     714.31      26.73
 30.57     754.58      27.47
 30.67     766.00      27.68
 30.77     725.00      26.93
 30.87     774.77      27.83
 30.97     739.50      27.19
 31.07     771.98      27.78
 31.17     836.00      28.91
 31.27     830.28      28.81
 31.37     745.39      27.30
 31.47     818.00      28.60
 31.57     670.82      25.90
 31.67     690.00      26.27
 31.77     711.23      26.67
 31.87     633.50      25.17
 31.97     722.00      26.87
 32.07     713.00      26.70
 32.17     697.00      26.40
 32.27     691.62      26.30
 32.37     675.18      25.98
 32.47     660.00      25.69
 32.57     659.00      25.67
 32.67     696.00      26.38
 32.77     688.00      26.23
 32.87     721.00      26.85
 32.97     699.00      26.44
 33.07     652.00      25.53
 33.17     703.67      26.53
 33.27     667.00      25.83
 33.37     692.00      26.31
 33.47     673.02      25.94
 33.57     742.01      27.24
 33.67     715.00      26.74
 33.77     724.45      26.92
 33.87     735.55      27.12
 33.97     856.00      29.26
 34.07     944.64      30.74
 34.17    1113.00      33.36
 34.27    1284.00      35.83
 34.37    1328.29      36.45
 34.47    1356.00      36.82
 34.57    1210.43      34.79
 34.67     984.60      31.38
 34.77     856.66      29.27
 34.87     795.00      28.20
 34.97     736.00      27.13
 35.07     692.44      26.31
 35.17     715.00      26.74
 35.27     722.00      26.87
 35.37     720.00      26.83
 35.47     676.00      26.00
 35.57     678.20      26.04
 35.67     616.48      24.83
 35.77     629.00      25.08
 35.87     658.00      25.65
 35.97     670.00      25.88
 36.07     653.00      25.55
 36.17     663.96      25.77
 36.27     690.15      26.27
 36.37     682.00      26.12
 36.47     615.99      24.82
 36.57     689.21      26.25
 36.67     588.00      24.25
 36.77     632.32      25.15
 36.87     658.00      25.65
 36.97     587.28      24.23
 37.07     642.00      25.34
 37.17     648.00      25.46
 37.27     661.00      25.71
 37.37     600.83      24.51
 37.47     650.00      25.50
 37.57     653.40      25.56
 37.67     656.72      25.63
 37.77     641.44      25.33
 37.87     721.48      26.86
 37.97     706.00      26.57
 38.07     783.00      27.98
 38.17     786.45      28.04
 38.27     809.00      28.44
 38.37     768.00      27.71
 38.47     817.00      28.58
 38.57     837.46      28.94
 38.67     728.23      26.99
 38.77     757.35      27.52
 38.87     660.38      25.70
 38.97     661.61      25.72
 39.07     644.00      25.38
 39.17     610.00      24.70
 39.27     622.00      24.94
 39.37     667.00      25.83
 39.47     588.00      24.25
 39.57     662.64      25.74
 39.67     658.00      25.65
 39.77     639.00      25.28
 39.87     663.04      25.75
 39.97     616.00      24.82
 40.07     631.00      25.12
 40.17     595.81      24.41
 40.27     604.68      24.59
 40.37     684.51      26.16
 40.47     619.00      24.88
 40.57     641.00      25.32
 40.67     613.00      24.76
 40.77     641.00      25.32
 40.87     658.00      25.65
 40.97     599.00      24.47
 41.07     623.08      24.96
 41.17     636.00      25.22
 41.27     616.00      24.82
 41.37     678.81      26.05
 41.47     656.00      25.61
 41.57     656.53      25.62
 41.67     611.87      24.74
 41.77     599.55      24.49
 41.87     591.55      24.32
 41.97     630.18      25.10
 42.07     619.00      24.88
 42.17     653.00      25.55
 42.27     634.00      25.18
 42.37     657.09      25.63
 42.47     658.00      25.65
 42.57     670.00      25.88
 42.67     725.72      26.94
 42.77     717.48      26.79
 42.87     738.60      27.18
 42.97     708.00      26.61
 43.07     693.00      26.32
 43.17     785.68      28.03
 43.27     711.00      26.66
 43.37     690.66      26.28
 43.47     684.00      26.15
 43.57     619.77      24.90
 43.67     624.00      24.98
 43.77     661.00      25.71
 43.87     617.98      24.86
 43.97     653.50      25.56
 44.07     609.09      24.68
 44.17     653.00      25.55
 44.27     707.00      26.59
 44.37     639.00      25.28
 44.47     643.00      25.36
 44.57     621.00      24.92
 44.67     624.00      24.98
 44.77     688.96      26.25
 44.87     645.00      25.40
 44.97     633.00      25.16
 45.07     621.00      24.92
 45.17     679.00      26.06
 45.27     602.84      24.55
 45.37     634.15      25.18
 45.47     636.17      25.22
 45.57     675.00      25.98
 45.67     607.53      24.65
 45.77     589.98      24.29
 45.87     586.52      24.22
 45.97     670.00      25.88
 46.07     661.00      25.71
 46.17     651.00      25.51
 46.27     614.00      24.78
 46.37     651.00      25.51
 46.47     600.00      24.49
 46.57     593.42      24.36
 46.67     681.00      26.10
 46.77     650.00      25.50
 46.87     639.00      25.28
 46.97     600.34      24.50
 47.07     689.14      26.25
 47.17     684.70      26.17
 47.27     662.58      25.74
 47.37     633.39      25.17
 47.47     660.42      25.70
 47.57     694.14      26.35
 47.67     674.00      25.96
 47.77     647.00      25.44
 47.87     653.91      25.57
 47.97     674.00      25.96
 48.07     708.00      26.61
 48.17     689.00      26.25
 48.27     714.00      26.72
 48.37     686.13      26.19
 48.47     745.00      27.29
 48.57     730.00      27.02
 48.67     656.93      25.63
 48.77     654.00      25.57
 48.87     654.00      25.57
 48.97     654.95      25.59
 49.07     705.63      26.56
 49.17     669.00      25.87
 49.27     711.00      26.66
 49.37     683.00      26.13
 49.47     737.90      27.16
 49.57     724.83      26.92
 49.67     732.00      27.06
 49.77     756.88      27.51
 49.87     823.00      28.69
 49.97     931.35      30.52
 50.07    1156.00      34.00
 50.17    1447.80      38.05
 50.27    1790.00      42.31
 50.37    2408.00      49.07
 50.47    2848.00      53.37
 50.57    3284.27      57.31
 50.67    3301.14      57.46
 50.77    3013.00      54.89
 50.87    2597.00      50.96
 50.97    2155.06      46.42
 51.07    1596.00      39.95
 51.17    1347.00      36.70
 51.27    1091.00      33.03
 51.37     873.25      29.55
 51.47     875.00      29.58
 51.57     830.00      28.81
 51.67     831.00      28.83
 51.77     785.00      28.02
 51.87     713.92      26.72
 51.97     719.00      26.81
 52.07     763.00      27.62
 52.17     724.63      26.92
 52.27     711.96      26.68
 52.37     738.00      27.17
 52.47     754.00      27.46
 52.57     786.00      28.04
 52.67     745.00      27.29
 52.77     746.00      27.31
 52.87     735.00      27.11
 52.97     690.50      26.28
 53.07     771.00      27.77
 53.17     746.00      27.31
 53.27     790.00      28.11
 53.37     816.00      28.57
 53.47     853.54      29.22
 53.57     907.00      30.12
 53.67     993.00      31.51
 53.77    1154.00      33.97
 53.87    1227.00      35.03
 53.97    1308.00      36.17
 54.07    1278.00      35.75
 54.17    1335.00      36.54
 54.27    1174.29      34.27
 54.37    1184.33      34.41
 54.47    1042.75      32.29
 54.57     978.47      31.28
 54.67     842.00      29.02
 54.77     840.66      28.99
 54.87     747.14      27.33
 54.97     768.00      27.71
 55.07     722.00      26.87
 55.17     725.00      26.93
 55.27     749.24      27.37
 55.37     706.00      26.57
 55.47     714.00      26.72
 55.57     705.00      26.55
 55.67     695.00      26.36
 55.77     703.24      26.52
 55.87     736.00      27.13
 55.97     722.00      26.87
 56.07     759.00      27.55
 56.17     735.40      27.12
 56.27     760.00      27.57
 56.37     795.00      28.20
 56.47     855.00      29.24
 56.57     863.00      29.38
 56.67     991.00      31.48
 56.77    1123.00      33.51
 56.87    1417.75      37.65
 56.97    1753.00      41.87
 57.07    2022.00      44.97
 57.17    2433.77      49.33
 57.27    2589.00      50.88
 57.37    2658.17      51.56
 57.47    2783.93      52.76
 57.57    2493.87      49.94
 57.67    2324.00      48.21
 57.77    1925.37      43.88
 57.87    1663.00      40.78
 57.97    1300.00      36.06
 58.07    1143.15      33.81
 58.17     991.48      31.49
 58.27     981.75      31.33
 58.37     861.00      29.34
 58.47     914.42      30.24
 58.57     850.00      29.15
 58.67     899.00      29.98
 58.77     873.00      29.55
 58.87     945.00      30.74
 58.97    1093.02      33.06
 59.07    1200.63      34.65
 59.17    1232.71      35.11
 59.27    1392.85      37.32
 59.37    1367.00      36.97
 59.47    1396.00      37.36
 59.57    1408.00      37.52
 59.67    1432.00      37.84
 59.77    1318.00      36.30
 59.87    1267.00      35.59
 59.97    1215.00      34.86
 60.07    1207.13      34.74
 60.17    1321.00      36.35
 60.27    1327.00      36.43
 60.37    1382.00      37.18
 60.47    1448.00      38.05
 60.57    1593.00      39.91
 60.67    1574.81      39.68
 60.77    1628.00      40.35
 60.87    1610.00      40.12
 60.97    1518.00      38.96
 61.07    1421.00      37.70
 61.17    1213.19      34.83
 61.27    1095.00      33.09
 61.37    1001.00      31.64
 61.47     934.00      30.56
 61.57     924.00      30.40
 61.67     867.00      29.44
 61.77     906.75      30.11
 61.87     897.00      29.95
 61.97     906.00      30.10
 62.07     984.71      31.38
 62.17    1154.00      33.97
 62.27    1318.00      36.30
 62.37    1544.35      39.30
 62.47    1634.00      40.42
 62.57    1839.00      42.88
 62.67    1935.00      43.99
 62.77    1967.00      44.35
 62.87    1846.07      42.97
 62.97    1671.39      40.88
 63.07    1504.00      38.78
 63.17    1431.20      37.83
 63.27    1233.00      35.11
 63.37    1074.00      32.77
 63.47     935.26      30.58
 63.57     895.00      29.92
 63.67     827.00      28.76
 63.77     792.94      28.16
 63.87     809.46      28.45
 63.97     840.00      28.98
 64.07     839.00      28.97
 64.17     782.00      27.96
 64.27     801.00      28.30
 64.37     850.95      29.17
 64.47     810.00      28.46
 64.57     935.00      30.58
 64.67     975.00      31.22
 64.77    1112.00      33.35
 64.87    1313.00      36.24
 64.97    1372.00      37.04
 65.07    1511.00      38.87
 65.17    1572.00      39.65
 65.27    1748.00      41.81
 65.37    1685.00      41.05
 65.47    1661.00      40.76
 65.57    1659.00      40.73
 65.67    1540.00      39.24
 65.77    1275.82      35.72
 65.87    1251.00      35.37
 65.97    1146.80      33.86
 66.07    1003.00      31.67
 66.17     926.75      30.44
 66.27     914.46      30.24
 66.37     784.00      28.00
 66.47     830.00      28.81
 66.57     803.00      28.34
 66.67     779.00      27.91
 66.77     808.09      28.43
 66.87     804.55      28.36
 66.97     769.00      27.73
 67.07     714.81      26.74
 67.17     777.00      27.87
 67.27     733.88      27.09
 67.37     726.00      26.94
 67.47     791.00      28.12
 67.57     764.00      27.64
 67.67     833.00      28.86
 67.77     923.44      30.39
 67.87    1012.58      31.82
 67.97    1107.32      33.28
 68.07    1271.38      35.66
 68.17    1444.00      38.00
 68.27    1814.46      42.60
 68.37    1930.00      43.93
 68.47    2203.00      46.94
 68.57    2334.70      48.32
 68.67    2569.00      50.69
 68.77    2523.85      50.24
 68.87    2538.00      50.38
 68.97    2308.79      48.05
 69.07    2037.98      45.14
 69.17    1872.00      43.27
 69.27    1737.00      41.68
 69.37    1446.00      38.03
 69.47    1283.00      35.82
 69.57    1029.51      32.09
 69.67     955.13      30.91
 69.77     916.95      30.28
 69.87     928.00      30.46
 69.97     866.00      29.43
 70.07     840.00      28.98
 70.17     784.17      28.00
 70.27     804.25      28.36
 70.37     787.00      28.05
 70.47     735.60      27.12
 70.57     773.73      27.82
 70.67     731.00      27.04
 70.77     737.00      27.15
 70.87     756.11      27.50
 70.97     704.00      26.53
 71.07     724.00      26.91
 71.17     780.58      27.94
 71.27     751.00      27.40
 71.37     752.00      27.42
 71.47     793.00      28.16
 71.57     791.51      28.13
 71.67     856.00      29.26
 71.77     851.00      29.17
 71.87     945.00      30.74
 71.97    1090.00      33.02
 72.07    1212.00      34.81
 72.17    1399.00      37.40
 72.27    1529.44      39.11
 72.37    1603.00      40.04
 72.47    1928.02      43.91
 72.57    1936.33      44.00
 72.67    2120.22      46.05
 72.77    2108.00      45.91
 72.87    1927.00      43.90
 72.97    1893.00      43.51
 73.07    1770.00      42.07
 73.17    1646.00      40.57
 73.27    1508.00      38.83
 73.37    1281.00      35.79
 73.47    1104.00      33.23
 73.57    1016.00      31.87
 73.67     987.00      31.42
 73.77     927.47      30.45
 73.87     794.00      28.18
 73.97     866.00      29.43
 74.07     808.65      28.44
 74.17     801.00      28.30
 74.27     757.00      27.51
 74.37     751.00      27.40
 74.47     715.00      26.74
 74.57     762.32      27.61
 74.67     728.00      26.98
 74.77     764.00      27.64
 74.87     690.00      26.27
 74.97     767.38      27.70
 75.07     694.94      26.36
 75.17     696.00      26.38
 75.27     763.00      27.62
 75.37     673.45      25.95
 75.47     677.27      26.02
 75.57     721.62      26.86
 75.67     776.00      27.86
 75.77     788.00      28.07
 75.87     780.00      27.93
 75.97     710.00      26.65
 76.07     697.00      26.40
 76.17     710.75      26.66
 76.27     745.00      27.29
 76.37     755.54      27.49
 76.47     782.00      27.96
 76.57     771.00      27.77
 76.67     900.62      30.01
 76.77     880.92      29.68
 76.87     927.00      30.45
 76.97    1017.00      31.89
 77.07    1027.00      32.05
 77.17    1092.99      33.06
 77.27    1080.00      32.86
 77.37    1054.19      32.47
 77.47    1135.00      33.69
 77.57    1043.00      32.30
 77.67     983.01      31.35
 77.77     930.25      30.50
 77.87     983.00      31.35
 77.97     868.00      29.46
 78.07     798.00      28.25
 78.17     807.00      28.41
 78.27     745.00      27.29
 78.37     782.89      27.98
 78.47     713.52      26.71
 78.57     651.12      25.52
 78.67     731.06      27.04
 78.77     716.32      26.76
 78.87     634.22      25.18
 78.97     695.00      26.36
 79.07     706.44      26.58
 79.17     633.55      25.17
 79.27     641.00      25.32
 79.37     690.00      26.27
 79.47     695.00      26.36
 79.57     721.81      26.87
 79.67     667.00      25.83
 79.77     704.81      26.55
 79.87     702.00      26.50
 79.97     670.00      25.88
 80.07     652.00      25.53
 80.17     725.00      26.93
 80.27     705.00      26.55
 80.37     693.00      26.32
 80.47     727.77      26.98
 80.57     741.00      27.22
 80.67     708.00      26.61
 80.77     788.00      28.07
 80.87     849.00      29.14
 80.97     932.00      30.53
 81.07     971.00      31.16
 81.17    1073.00      32.76
 81.27    1143.90      33.82
 81.37    1293.00      35.96
 81.47    1257.28      35.46
 81.57    1479.00      38.46
 81.67    1579.00      39.74
 81.77    1535.68      39.19
 81.87    1635.00      40.44
 81.97    1509.03      38.85
 82.07    1679.00      40.98
 82.17    1544.53      39.30
 82.27    1446.10      38.03
 82.37    1303.47      36.10
 82.47    1201.84      34.67
 82.57    1248.00      35.33
 82.67    1155.00      33.99
 82.77    1046.45      32.35
 82.87     947.00      30.77
 82.97     871.00      29.51
 83.07     903.00      30.05
 83.17     824.40      28.71
 83.27     785.00      28.02
 83.37     743.63      27.27
 83.47     709.00      26.63
 83.57     700.00      26.46
 83.67     690.00      26.27
 83.77     711.13      26.67
 83.87     697.00      26.40
 83.97     694.00      26.34
 84.07     685.00      26.17
 84.17     742.81      27.25
 84.27     694.00      26.34
 84.37     676.49      26.01
 84.47     782.26      27.97
 84.57     721.00      26.85
 84.67     651.00      25.51
 84.77     698.00      26.42
 84.87     715.44      26.75
 84.97     738.64      27.18
 85.07     698.00      26.42
 85.17     713.00      26.70
 85.27     676.00      26.00
 85.37     708.00      26.61
 85.47     651.81      25.53
 85.57     627.00      25.04
 85.67     622.00      24.94
 85.77     635.00      25.20
 85.87     663.00      25.75
 85.97     615.00      24.80
 86.07     652.00      25.53
 86.17     618.89      24.88
 86.27     651.14      25.52
 86.37     665.00      25.79
 86.47     676.00      26.00
 86.57     662.00      25.73
 86.67     691.00      26.29
 86.77     694.00      26.34
 86.87     688.79      26.24
 86.97     663.00      25.75
 87.07     725.09      26.93
 87.17     696.00      26.38
 87.27     679.00      26.06
 87.37     697.00      26.40
 87.47     729.00      27.00
 87.57     678.93      26.06
 87.67     762.00      27.60
 87.77     750.00      27.39
 87.87     766.00      27.68
 87.97     749.00      27.37
 88.07     750.00      27.39
 88.17     769.00      27.73
 88.27     782.00      27.96
 88.37     734.97      27.11
 88.47     826.00      28.74
 88.57     759.00      27.55
 88.67     744.00      27.28
 88.77     755.00      27.48
 88.87     719.10      26.82
 88.97     724.60      26.92
 89.07     685.00      26.17
 89.17     708.00      26.61
 89.27     744.00      27.28
 89.37     669.00      25.87
 89.47     726.00      26.94
 89.57     673.00      25.94
 89.67     666.00      25.81
 89.77     665.00      25.79
 89.87     705.00      26.55
 89.97     768.29      27.72
 90.07     801.00      28.30
 90.17     701.00      26.48
 90.27     667.16      25.83
 90.37     649.00      25.48
 90.47     660.30      25.70
 90.57     701.00      26.48
 90.67     752.00      27.42
 90.77     715.00      26.74
 90.87     665.00      25.79
 90.97     728.00      26.98
 91.07     691.41      26.29
 91.17     664.00      25.77
 91.27     622.00      24.94
 91.37     647.00      25.44
 91.47     657.00      25.63
 91.57     652.00      25.53
 91.67     666.08      25.81
 91.77     695.00      26.36
 91.87     647.00      25.44
 91.97     623.03      24.96
 92.07     633.00      25.16
 92.17     640.57      25.31
 92.27     653.00      25.55
 92.37     585.00      24.19
 92.47     621.72      24.93
 92.57     646.00      25.42
 92.67     625.00      25.00
 92.77     680.00      26.08
 92.87     605.00      24.60
 92.97     643.00      25.36
 93.07     660.00      25.69
 93.17     651.00      25.51
 93.27     714.00      26.72
 93.37     760.00      27.57
 93.47     725.00      26.93
 93.57     714.88      26.74
 93.67     784.00      28.00
 93.77     756.00      27.50
 93.87     814.19      28.53
 93.97     835.02      28.90
 94.07     852.00      29.19
 94.17     860.85      29.34
 94.27     897.00      29.95
 94.37     950.00      30.82
 94.47     950.00      30.82
 94.57     930.00      30.50
 94.67     893.00      29.88
 94.77     963.03      31.03
 94.87     961.00      31.00
 94.97    1017.00      31.89
 95.07    1004.00      31.69
 95.17    1077.00      32.82
 95.27    1014.00      31.84
 95.37    1081.00      32.88
 95.47    1111.90      33.35
 95.57    1028.17      32.07
 95.67    1050.15      32.41
 95.77    1067.61      32.67
 95.87    1089.00      33.00
 95.97    1110.10      33.32
 96.07    1063.38      32.61
 96.17    1069.00      32.70
 96.27     979.00      31.29
 96.37     936.61      30.60
 96.47     989.00      31.45
 96.57     941.21      30.68
 96.67     922.00      30.36
 96.77     945.00      30.74
 96.87     877.00      29.61
 96.97     902.71      30.05
 97.07     911.35      30.19
 97.17     854.31      29.23
 97.27     937.75      30.62
 97.37     962.41      31.02
 97.47     978.00      31.27
 97.57    1041.00      32.26
 97.67    1111.00      33.33
 97.77    1183.70      34.40
 97.87    1271.00      35.65
 97.97    1312.00      36.22
 98.07    1336.35      36.56
 98.17    1451.00      38.09
 98.27    1500.00      38.73
 98.37    1539.00      39.23
 98.47    1585.00      39.81
 98.57    1593.72      39.92
 98.67    1621.00      40.26
 98.77    1557.00      39.46
 98.87    1604.00      40.05
 98.97    1521.00      39.00
 99.07    1422.25      37.71
 99.17    1434.00      37.87
 99.27    1338.00      36.58
 99.37    1292.96      35.96
 99.47    1232.00      35.10
 99.57    1232.00      35.10
 99.67    1058.00      32.53
 99.77    1084.00      32.92
 99.87    1075.77      32.80
 99.97    1080.84      32.88
100.07    1077.52      32.83
100.17    1040.50      32.26
100.27    1120.00      33.47
100.37    1090.28      33.02
100.47    1213.00      34.83
100.57    1249.00      35.34
100.67    1332.09      36.50
100.77    1321.60      36.35
100.87    1464.22      38.27
100.97    1519.00      38.97
101.07    1649.42      40.61
101.17    1779.00      42.18
101.27    1836.00      42.85
101.37    1978.00      44.47
101.47    2077.94      45.58
101.57    2055.62      45.34
101.67    2005.33      44.78
101.77    2073.00      45.53
101.87    2160.00      46.48
101.97    2189.00      46.79
102.07    2217.00      47.09
102.17    2147.00      46.34
102.27    2167.00      46.55
102.37    2082.00      45.63
102.47    1983.00      44.53
102.57    1867.00      43.21
102.67    1882.00      43.38
102.77    1823.00      42.70
102.87    1718.00      41.45
102.97    1681.00      41.00
103.07    1553.00      39.41
103.17    1542.48      39.27
103.27    1434.52      37.88
103.37    1384.65      37.21
103.47    1384.00      37.20
103.57    1383.50      37.20
103.67    1299.00      36.04
103.77    1261.00      35.51
103.87    1245.00      35.28
103.97    1254.00      35.41
104.07    1207.00      34.74
104.17    1158.21      34.03
104.27    1085.00      32.94
104.37    1084.00      32.92
104.47    1065.00      32.63
104.57    1044.62      32.32
104.67     988.99      31.45
104.77     960.00      30.98
104.87     929.00      30.48
104.97     904.00      30.07
105.07     810.79      28.47
105.17     806.00      28.39
105.27     792.00      28.14
105.37     741.00      27.22
105.47     755.29      27.48
105.57     654.00      25.57
105.67     669.00      25.87
105.77     683.00      26.13
105.87     691.00      26.29
105.97     650.00      25.50
106.07     614.32      24.79
106.17     647.00      25.44
106.27     688.00      26.23
106.37     668.00      25.85
106.47     632.37      25.15
106.57     630.00      25.10
106.67     651.00      25.51
106.77     717.00      26.78
106.87     605.19      24.60
106.97     625.36      25.01
107.07     677.00      26.02
107.17     639.46      25.29
107.27     718.49      26.80
107.37     647.73      25.45
107.47     646.00      25.42
107.57     763.25      27.63
107.67     735.00      27.11
107.77     728.00      26.98
107.87     772.00      27.78
107.97     733.00      27.07
108.07     752.00      27.42
108.17     768.00      27.71
108.27     788.00      28.07
108.37     838.83      28.96
108.47     843.00      29.03
108.57     832.28      28.85
108.67     884.53      29.74
108.77     827.00      28.76
108.87     787.00      28.05
108.97     807.00      28.41
109.07     828.00      28.77
109.17     785.66      28.03
109.27     828.92      28.79
109.37     862.50      29.37
109.47     796.00      28.21
109.57     744.00      27.28
109.67     800.00      28.28
109.77     787.00      28.05
109.87     767.36      27.70
109.97     793.00      28.16
110.07     828.31      28.78
110.17     790.00      28.11
110.27     792.69      28.15
110.37     798.00      28.25
110.47     780.34      27.93
110.57     799.00      28.27
110.67     767.00      27.69
110.77     744.00      27.28
110.87     825.00      28.72
110.97     762.00      27.60
111.07     800.00      28.28
111.17     742.00      27.24
111.27     758.00      27.53
111.37     702.70      26.51
111.47     746.00      27.31
111.57     629.00      25.08
111.67     675.00      25.98
111.77     710.00      26.65
111.87     733.00      27.07
111.97     691.03      26.29
112.07     685.00      26.17
112.17     659.00      25.67
112.27     661.00      25.71
112.37     637.76      25.25
112.47     659.00      25.67
112.57     614.50      24.79
112.67     625.00      25.00
112.77     622.07      24.94
112.87     681.84      26.11
112.97     650.00      25.50
113.07     596.46      24.42
113.17     634.66      25.19
113.27     628.00      25.06
113.37     633.00      25.16
113.47     684.54      26.16
113.57     626.00      25.02
113.67     671.00      25.90
113.77     658.00      25.65
113.87     642.00      25.34
113.97     657.59      25.64
114.07     646.54      25.43
114.17     672.07      25.92
114.27     673.14      25.94
114.37     718.00      26.80
114.47     718.24      26.80
114.57     660.00      25.69
114.67     699.00      26.44
114.77     699.52      26.45
114.87     722.00      26.87
114.97     809.00      28.44
115.07     841.75      29.01
115.17     903.00      30.05
115.27     897.00      29.95
115.37     963.35      31.04
115.47     979.00      31.29
115.57    1102.00      33.20
115.67    1183.00      34.39
115.77    1281.00      35.79
115.87    1421.95      37.71
115.97    1665.43      40.81
116.07    1804.00      42.47
116.17    1989.03      44.60
116.27    2220.91      47.13
116.37    2390.75      48.90
116.47    2772.41      52.65
116.57    2996.00      54.74
116.67    3293.00      57.38
116.77    3712.00      60.93
116.87    3925.00      62.65
116.97    4477.39      66.91
117.07    4704.00      68.59
117.17    5104.00      71.44
117.27    5529.00      74.36
117.37    5987.00      77.38
117.47    6234.00      78.96
117.57    6864.52      82.85
117.67    6992.00      83.62
117.77    7427.48      86.18
117.87    7389.00      85.96
117.97    7696.80      87.73
118.07    7640.61      87.41
118.17    7474.27      86.45
118.27    7656.00      87.50
118.37    7601.00      87.18
118.47    7243.81      85.11
118.57    6982.00      83.56
118.67    6564.97      81.02
118.77    6286.70      79.29
118.87    5957.00      77.18
118.97    5537.33      74.41
119.07    5352.63      73.16
119.17    4834.00      69.53
119.27    4576.00      67.65
119.37    4111.00      64.12
119.47    3817.43      61.79
119.57    3510.00      59.25
119.67    3270.00      57.18
119.77    2952.04      54.33
119.87    2519.37      50.19
119.97    2382.15      48.81
120.07    2148.00      46.35
120.17    2008.98      44.82
120.27    1789.00      42.30
120.37    1654.83      40.68
120.47    1534.00      39.17
120.57    1430.00      37.82
120.67    1324.50      36.39
120.77    1259.00      35.48
120.87    1192.00      34.53
120.97    1113.00      33.36
121.07    1077.00      32.82
121.17    1000.54      31.63
121.27     906.12      30.10
121.37     920.00      30.33
121.47     905.00      30.08
121.57     843.16      29.04
121.67     835.88      28.91
121.77     853.00      29.21
121.87     742.00      27.24
121.97     752.27      27.43
122.07     818.11      28.60
122.17     747.00      27.33
122.27     775.65      27.85
122.37     741.00      27.22
122.47     752.00      27.42
122.57     755.00      27.48
122.67     738.00      27.17
122.77     702.00      26.50
122.87     789.66      28.10
122.97     718.85      26.81
123.07     755.29      27.48
123.17     710.61      26.66
123.27     724.00      26.91
123.37     759.49      27.56
123.47     740.18      27.21
123.57     802.68      28.33
123.67     767.00      27.69
123.77     737.00      27.15
123.87     773.30      27.81
123.97     811.43      28.49
124.07     845.22      29.07
124.17     867.37      29.45
124.27     862.88      29.37
124.37     779.05      27.91
124.47     867.00      29.44
124.57     875.33      29.59
124.67     788.00      28.07
124.77     875.00      29.58
124.87     838.00      28.95
124.97     908.00      30.13
