  9.97     721.00      26.85
 10.07     708.12      26.61
 10.17     742.00      27.24
 10.27     655.77      25.61
 10.37     766.00      27.68
 10.47     680.00      26.08
 10.57     741.00      27.22
 10.67     739.00      27.18
 10.77     742.00      27.24
 10.87     713.00      26.70
 10.97     734.00      27.09
 11.07     735.00      27.11
 11.17     742.00      27.24
 11.27     700.66      26.47
 11.37     656.49      25.62
 11.47     711.00      26.66
 11.57     749.96      27.39
 11.67     721.79      26.87
 11.77     736.16      27.13
 11.87     769.00      27.73
 11.97     838.00      28.95
 12.07     786.00      28.04
 12.17     834.00      28.88
 12.27     863.00      29.38
 12.37     872.00      29.53
 12.47     770.47      27.76
 12.57     801.49      28.31
 12.67     745.00      27.29
 12.77     722.00      26.87
 12.87     671.00      25.90
 12.97     728.00      26.98
 13.07     625.00      25.00
 13.17     645.00      25.40
 13.27     645.00      25.40
 13.37     625.00      25.00
 13.47     685.00      26.17
 13.57     679.00      26.06
 13.67     621.00      24.92
 13.77     670.00      25.88
 13.87     690.02      26.27
 13.97     709.00      26.63
 14.07     649.35      25.48
 14.17     674.00      25.96
 14.27     735.00      27.11
 14.37     701.00      26.48
 14.47     661.00      25.71
 14.57     673.00      25.94
 14.67     682.00      26.12
 14.77     642.25      25.34
 14.87     656.19      25.62
 14.97     646.37      25.42
 15.07     674.00      25.96
 15.17     612.00      24.74
 15.27     680.09      26.08
 15.37     677.00      26.02
 15.47     683.00      26.13
 15.57     666.86      25.82
 15.67     662.00      25.73
 15.77     647.43      25.44
 15.87     703.15      26.52
 15.97     620.69      24.91
 16.07     636.00      25.22
 16.17     621.00      24.92
 16.27     674.00      25.96
 16.37     639.00      25.28
 16.47     641.00      25.32
 16.57     677.91      26.04
 16.67     640.00      25.30
 16.77     641.00      25.32
 16.87     635.00      25.20
 16.97     662.00      25.73
 17.07     679.00      26.06
 17.17     637.00      25.24
 17.27     652.00      25.53
 17.37     669.41      25.87
 17.47     621.00      24.92
 17.57     607.00      24.64
 17.67     621.07      24.92
 17.77     669.63      25.88
 17.87     657.00      25.63
 17.97     645.00      25.40
 18.07     637.00      25.24
 18.17     654.00      25.57
 18.27     646.00      25.42
 18.37     634.00      25.18
 18.47     630.87      25.12
 18.57     637.30      25.24
 18.67     695.16      26.37
 18.77     653.98      25.57
 18.87     646.00      25.42
 18.97     601.00      24.52
 19.07     627.00      25.04
 19.17     624.84      25.00
 19.27     621.24      24.92
 19.37     609.40      24.69
 19.47     657.96      25.65
 19.57     599.00      24.47
 19.67     645.00      25.40
 19.77     676.37      26.01
 19.87     684.62      26.17
 19.97     630.00      25.10
 20.07     651.00      25.51
 20.17     592.00      24.33
 20.27     607.00      24.64
 20.37     623.46      24.97
 20.47     609.00      24.68
 20.57     630.00      25.10
 20.67     627.00      25.04
 20.77     609.00      24.68
 20.87     601.08      24.52
 20.97     614.00      24.78
 21.07     627.82      25.06
 21.17     629.14      25.08
 21.27     669.00      25.87
 21.37     638.00      25.26
 21.47     634.00      25.18
 21.57     605.26      24.60
 21.67     594.00      24.37
 21.77     644.00      25.38
 21.87     616.00      24.82
 21.97     654.00      25.57
 22.07     657.58      25.64
 22.17     638.00      25.26
 22.27     621.00      24.92
 22.37     679.00      26.06
 22.47     607.07      24.64
 22.57     658.15      25.65
 22.67     599.18      24.48
 22.77     597.00      24.43
 22.87     646.00      25.42
 22.97     641.00      25.32
 23.07     603.00      24.56
 23.17     590.55      24.30
 23.27     628.00      25.06
 23.37     631.11      25.12
 23.47     630.00      25.10
 23.57     674.63      25.97
 23.67     649.59      25.49
 23.77     611.60      24.73
 23.87     583.38      24.15
 23.97     668.19      25.85
 24.07     646.00      25.42
 24.17     638.00      25.26
 24.27     600.45      24.50
 24.37     653.00      25.55
 24.47     667.85      25.84
 24.57     704.00      26.53
 24.67     609.06      24.68
 24.77     720.00      26.83
 24.87     738.61      27.18
 24.97     739.00      27.18
 25.07     745.00      27.29
 25.17     746.94      27.33
 25.27     662.00      25.73
 25.37     694.30      26.35
 25.47     660.32      25.70
 25.57     599.00      24.47
 25.67     610.15      24.70
 25.77     665.00      25.79
 25.87     651.00      25.51
 25.97     610.33      24.70
 26.07     691.50      26.30
 26.17     702.00      26.50
 26.27     636.00      25.22
 26.37     632.61      25.15
 26.47     658.00      25.65
 26.57     647.53      25.45
 26.67     658.00      25.65
 26.77     643.70      25.37
 26.87     694.00      26.34
 26.97     688.00      26.23
 27.07     733.09      27.08
 27.17     649.00      25.48
 27.27     689.00      26.25
 27.37     694.00      26.34
 27.47     762.00      27.60
 27.57     755.00      27.48
 27.67     831.74      28.84
 27.77     849.00      29.14
 27.87     995.00      31.54
 27.97    1358.30      36.86
 28.07    1923.00      43.85
 28.17    3240.00      56.92
 28.27    5271.83      72.61
 28.37    7185.00      84.76
 28.47    8309.00      91.15
 28.57    7429.55      86.19
 28.67    5851.00      76.49
 28.77    4238.00      65.10
 28.87    3418.01      58.46
 28.97    3856.00      62.10
 29.07    4445.92      66.68
 29.17    4504.92      67.12
 29.27    4095.00      63.99
 29.37    3323.00      57.65
 29.47    2262.46      47.57
 29.57    1591.00      39.89
 29.67    1203.00      34.68
 29.77     992.00      31.50
 29.87     888.00      29.80
 29.97     844.00      29.05
 30.07     866.00      29.43
 30.17     733.00      27.07
 30.27     743.28      27.26
 30.37     682.00      26.12
 30.47     730.00      27.02
 30.57     741.00      27.22
 30.67     636.64      25.23
 30.77     661.19      25.71
 30.87     667.77      25.84
 30.97     725.22      26.93
 31.07     785.00      28.02
 31.17     814.00      28.53
 31.27     812.00      28.50
 31.37     777.00      27.87
 31.47     755.00      27.48
 31.57     707.00      26.59
 31.67     666.00      25.81
 31.77     647.00      25.44
 31.87     672.00      25.92
 31.97     667.00      25.83
 32.07     638.00      25.26
 32.17     664.78      25.78
 32.27     664.96      25.79
 32.37     632.00      25.14
 32.47     643.00      25.36
 32.57     704.00      26.53
 32.67     627.66      25.05
 32.77     666.00      25.81
 32.87     601.93      24.53
 32.97     567.02      23.81
 33.07     600.91      24.51
 33.17     674.00      25.96
 33.27     640.53      25.31
 33.37     593.75      24.37
 33.47     653.36      25.56
 33.57     630.85      25.12
 33.67     667.00      25.83
 33.77     726.03      26.94
 33.87     715.00      26.74
 33.97     784.00      28.00
 34.07     955.00      30.90
 34.17    1095.00      33.09
 34.27    1214.00      34.84
 34.37    1243.00      35.26
 34.47    1188.74      34.48
 34.57    1018.00      31.91
 34.67     917.12      30.28
 34.77     791.00      28.12
 34.87     685.24      26.18
 34.97     714.00      26.72
 35.07     657.06      25.63
 35.17     688.53      26.24
 35.27     583.78      24.16
 35.37     612.00      24.74
 35.47     663.68      25.76
 35.57     637.00      25.24
 35.67     563.00      23.73
 35.77     640.00      25.30
 35.87     579.00      24.06
 35.97     613.58      24.77
 36.07     617.00      24.84
 36.17     583.00      24.15
 36.27     595.00      24.39
 36.37     609.00      24.68
 36.47     597.00      24.43
 36.57     581.00      24.10
 36.67     591.00      24.31
 36.77     553.60      23.53
 36.87     643.40      25.37
 36.97     622.00      24.94
 37.07     599.00      24.47
 37.17     587.00      24.23
 37.27     598.00      24.45
 37.37     609.00      24.68
 37.47     580.57      24.09
 37.57     583.00      24.15
 37.67     620.00      24.90
 37.77     661.78      25.73
 37.87     594.28      24.38
 37.97     692.00      26.31
 38.07     714.00      26.72
 38.17     739.00      27.18
 38.27     766.25      27.68
 38.37     766.00      27.68
 38.47     767.00      27.69
 38.57     762.79      27.62
 38.67     711.00      26.66
 38.77     681.04      26.10
 38.87     625.92      25.02
 38.97     613.00      24.76
 39.07     608.00      24.66
 39.17     609.00      24.68
 39.27     623.00      24.96
 39.37     562.15      23.71
 39.47     622.37      24.95
 39.57     623.00      24.96
 39.67     612.86      24.76
 39.77     573.00      23.94
 39.87     613.00      24.76
 39.97     618.00      24.86
 40.07     624.00      24.98
 40.17     623.44      24.97
 40.27     567.00      23.81
 40.37     557.00      23.60
 40.47     610.00      24.70
 40.57     564.25      23.75
 40.67     578.87      24.06
 40.77     597.24      24.44
 40.87     589.00      24.27
 40.97     547.39      23.40
 41.07     579.00      24.06
 41.17     593.39      24.36
 41.27     633.99      25.18
 41.37     642.24      25.34
 41.47     608.67      24.67
 41.57     621.94      24.94
 41.67     623.81      24.98
 41.77     579.96      24.08
 41.87     598.00      24.45
 41.97     596.00      24.41
 42.07     636.31      25.23
 42.17     588.32      24.26
 42.27     553.44      23.53
 42.37     582.00      24.12
 42.47     601.00      24.52
 42.57     662.99      25.75
 42.67     647.00      25.44
 42.77     698.71      26.43
 42.87     589.00      24.27
 42.97     687.00      26.21
 43.07     641.00      25.32
 43.17     751.00      27.40
 43.27     641.73      25.33
 43.37     640.00      25.30
 43.47     680.82      26.09
 43.57     618.00      24.86
 43.67     592.41      24.34
 43.77     575.00      23.98
 43.87     586.35      24.21
 43.97     624.58      24.99
 44.07     607.00      24.64
 44.17     643.15      25.36
 44.27     599.00      24.47
 44.37     606.00      24.62
 44.47     624.00      24.98
 44.57     650.00      25.50
 44.67     599.00      24.47
 44.77     620.00      24.90
 44.87     586.00      24.21
 44.97     619.00      24.88
 45.07     613.00      24.76
 45.17     566.40      23.80
 45.27     607.00      24.64
 45.37     573.00      23.94
 45.47     567.00      23.81
 45.57     610.00      24.70
 45.67     638.00      25.26
 45.77     624.00      24.98
 45.87     584.00      24.17
 45.97     638.00      25.26
 46.07     595.00      24.39
 46.17     620.69      24.91
 46.27     586.75      24.22
 46.37     633.62      25.17
 46.47     610.00      24.70
 46.57     629.00      25.08
 46.67     577.00      24.02
 46.77     649.88      25.49
 46.87     599.45      24.48
 46.97     623.00      24.96
 47.07     620.00      24.90
 47.17     601.68      24.53
 47.27     605.00      24.60
 47.37     617.00      24.84
 47.47     591.00      24.31
 47.57     617.00      24.84
 47.67     651.00      25.51
 47.77     600.07      24.50
 47.87     649.00      25.48
 47.97     710.00      26.65
 48.07     650.00      25.50
 48.17     703.00      26.51
 48.27     665.05      25.79
 48.37     688.00      26.23
 48.47     697.00      26.40
 48.57     655.00      25.59
 48.67     668.91      25.86
 48.77     664.00      25.77
 48.87     653.00      25.55
 48.97     619.28      24.89
 49.07     628.00      25.06
 49.17     614.16      24.78
 49.27     611.52      24.73
 49.37     617.00      24.84
 49.47     697.87      26.42
 49.57     674.00      25.96
 49.67     670.17      25.89
 49.77     733.00      27.07
 49.87     853.31      29.21
 49.97     893.00      29.88
 50.07    1145.00      33.84
 50.17    1471.00      38.35
 50.27    2052.00      45.30
 50.37    2460.00      49.60
 50.47    2874.00      53.61
 50.57    3145.00      56.08
 50.67    3019.90      54.95
 50.77    2717.00      52.12
 50.87    2340.00      48.37
 50.97    1813.00      42.58
 51.07    1301.00      36.07
 51.17    1121.00      33.48
 51.27     936.75      30.61
 51.37     805.00      28.37
 51.47     786.42      28.04
 51.57     715.51      26.75
 51.67     791.74      28.14
 51.77     755.00      27.48
 51.87     731.00      27.04
 51.97     730.00      27.02
 52.07     663.69      25.76
 52.17     679.00      26.06
 52.27     731.00      27.04
 52.37     639.52      25.29
 52.47     718.00      26.80
 52.57     668.95      25.86
 52.67     745.00      27.29
 52.77     708.00      26.61
 52.87     710.00      26.65
 52.97     674.00      25.96
 53.07     716.00      26.76
 53.17     744.00      27.28
 53.27     710.00      26.65
 53.37     860.00      29.33
 53.47     857.00      29.27
 53.57     938.00      30.63
 53.67    1113.00      33.36
 53.77    1144.00      33.82
 53.87    1331.77      36.49
 53.97    1382.17      37.18
 54.07    1318.00      36.30
 54.17    1276.65      35.73
 54.27    1110.00      33.32
 54.37    1001.00      31.64
 54.47     906.00      30.10
 54.57     826.00      28.74
 54.67     766.00      27.68
 54.77     735.00      27.11
 54.87     730.64      27.03
 54.97     680.00      26.08
 55.07     686.00      26.19
 55.17     722.00      26.87
 55.27     714.55      26.73
 55.37     712.83      26.70
 55.47     682.00      26.12
 55.57     669.00      25.87
 55.67     675.94      26.00
 55.77     664.00      25.77
 55.87     662.73      25.74
 55.97     694.94      26.36
 56.07     686.00      26.19
 56.17     701.00      26.48
 56.27     719.00      26.81
 56.37     770.87      27.76
 56.47     841.00      29.00
 56.57     884.00      29.73
 56.67    1109.68      33.31
 56.77    1240.00      35.21
 56.87    1536.66      39.20
 56.97    1784.00      42.24
 57.07    2178.00      46.67
 57.17    2420.93      49.20
 57.27    2746.00      52.40
 57.37    2593.31      50.92
 57.47    2645.00      51.43
 57.57    2525.00      50.25
 57.67    2010.00      44.83
 57.77    1663.00      40.78
 57.87    1348.32      36.72
 57.97    1227.61      35.04
 58.07    1049.00      32.39
 58.17     961.27      31.00
 58.27     794.30      28.18
 58.37     778.00      27.89
 58.47     810.00      28.46
 58.57     814.00      28.53
 58.67     859.00      29.31
 58.77     872.00      29.53
 58.87     994.00      31.53
 58.97    1004.37      31.69
 59.07    1131.68      33.64
 59.17    1214.00      34.84
 59.27    1286.00      35.86
 59.37    1315.00      36.26
 59.47    1343.81      36.66
 59.57    1431.28      37.83
 59.67    1254.27      35.42
 59.77    1346.00      36.69
 59.87    1246.03      35.30
 59.97    1192.04      34.53
 60.07    1276.54      35.73
 60.17    1245.25      35.29
 60.27    1389.31      37.27
 60.37    1379.00      37.13
 60.47    1559.00      39.48
 60.57    1618.00      40.22
 60.67    1684.52      41.04
 60.77    1614.00      40.17
 60.87    1606.00      40.07
 60.97    1452.00      38.11
 61.07    1225.00      35.00
 61.17    1172.00      34.23
 61.27     942.00      30.69
 61.37     939.00      30.64
 61.47     835.00      28.90
 61.57     822.00      28.67
 61.67     792.00      28.14
 61.77     869.00      29.48
 61.87     815.00      28.55
 61.97     928.57      30.47
 62.07    1007.00      31.73
 62.17    1088.79      33.00
 62.27    1323.00      36.37
 62.37    1399.45      37.41
 62.47    1670.40      40.87
 62.57    1688.00      41.09
 62.67    1881.14      43.37
 62.77    1735.00      41.65
 62.87    1699.72      41.23
 62.97    1550.07      39.37
 63.07    1347.39      36.71
 63.17    1193.45      34.55
 63.27    1034.00      32.16
 63.37     924.00      30.40
 63.47     846.00      29.09
 63.57     741.58      27.23
 63.67     767.00      27.69
 63.77     683.58      26.15
 63.87     728.00      26.98
 63.97     710.00      26.65
 64.07     674.67      25.97
 64.17     741.00      27.22
 64.27     766.00      27.68
 64.37     795.00      28.20
 64.47     867.86      29.46
 64.57     926.07      30.43
 64.67    1063.65      32.61
 64.77    1091.00      33.03
 64.87    1247.00      35.31
 64.97    1406.00      37.50
 65.07    1416.02      37.63
 65.17    1555.00      39.43
 65.27    1658.00      40.72
 65.37    1509.99      38.86
 65.47    1525.59      39.06
 65.57    1349.00      36.73
 65.67    1199.15      34.63
 65.77    1140.00      33.76
 65.87    1078.00      32.83
 65.97     946.67      30.77
 66.07     904.00      30.07
 66.17     835.00      28.90
 66.27     786.00      28.04
 66.37     761.00      27.59
 66.47     749.00      27.37
 66.57     733.00      27.07
 66.67     681.00      26.10
 66.77     671.00      25.90
 66.87     650.00      25.50
 66.97     659.00      25.67
 67.07     657.25      25.64
 67.17     742.21      27.24
 67.27     708.00      26.61
 67.37     712.53      26.69
 67.47     718.51      26.80
 67.57     753.52      27.45
 67.67     856.00      29.26
 67.77     960.70      31.00
 67.87     983.77      31.37
 67.97    1251.14      35.37
 68.07    1356.00      36.82
 68.17    1592.00      39.90
 68.27    1850.00      43.01
 68.37    2020.00      44.94
 68.47    2274.00      47.69
 68.57    2499.00      49.99
 68.67    2517.00      50.17
 68.77    2487.00      49.87
 68.87    2480.00      49.80
 68.97    2145.96      46.32
 69.07    2048.00      45.25
 69.17    1783.00      42.23
 69.27    1467.00      38.30
 69.37    1304.00      36.11
 69.47    1063.41      32.61
 69.57    1031.00      32.11
 69.67     849.92      29.15
 69.77     861.94      29.36
 69.87     753.71      27.45
 69.97     828.00      28.77
 70.07     747.07      27.33
 70.17     772.00      27.78
 70.27     747.00      27.33
 70.37     687.00      26.21
 70.47     648.89      25.47
 70.57     657.10      25.63
 70.67     698.00      26.42
 70.77     726.00      26.94
 70.87     697.93      26.42
 70.97     706.00      26.57
 71.07     706.00      26.57
 71.17     705.00      26.55
 71.27     750.00      27.39
 71.37     724.00      26.91
 71.47     750.96      27.40
 71.57     823.00      28.69
 71.67     807.00      28.41
 71.77     872.00      29.53
 71.87    1037.23      32.21
 71.97    1087.00      32.97
 72.07    1283.00      35.82
 72.17    1452.96      38.12
 72.27    1496.00      38.68
 72.37    1788.00      42.28
 72.47    1866.48      43.20
 72.57    1972.88      44.42
 72.67    2118.75      46.03
 72.77    1932.41      43.96
 72.87    1860.00      43.13
 72.97    1809.00      42.53
 73.07    1585.00      39.81
 73.17    1380.00      37.15
 73.27    1218.31      34.90
 73.37    1168.60      34.18
 73.47    1036.00      32.19
 73.57     889.00      29.82
 73.67     813.00      28.51
 73.77     791.00      28.12
 73.87     769.88      27.75
 73.97     723.58      26.90
 74.07     723.57      26.90
 74.17     705.00      26.55
 74.27     712.00      26.68
 74.37     666.00      25.81
 74.47     642.00      25.34
 74.57     692.70      26.32
 74.67     640.52      25.31
 74.77     662.13      25.73
 74.87     715.15      26.74
 74.97     734.60      27.10
 75.07     699.00      26.44
 75.17     674.84      25.98
 75.27     665.86      25.80
 75.37     694.29      26.35
 75.47     679.31      26.06
 75.57     734.00      27.09
 75.67     753.00      27.44
 75.77     667.20      25.83
 75.87     685.00      26.17
 75.97     693.19      26.33
 76.07     614.00      24.78
 76.17     671.00      25.90
 76.27     736.59      27.14
 76.37     724.00      26.91
 76.47     696.00      26.38
 76.57     793.00      28.16
 76.67     786.00      28.04
 76.77     864.00      29.39
 76.87     952.85      30.87
 76.97     989.18      31.45
 77.07    1012.00      31.81
 77.17    1022.94      31.98
 77.27     995.45      31.55
 77.37     944.75      30.74
 77.47    1005.00      31.70
 77.57     978.00      31.27
 77.67     904.35      30.07
 77.77     845.00      29.07
 77.87     863.00      29.38
 77.97     780.72      27.94
 78.07     712.00      26.68
 78.17     728.00      26.98
 78.27     674.00      25.96
 78.37     660.00      25.69
 78.47     679.00      26.06
 78.57     666.16      25.81
 78.67     636.00      25.22
 78.77     646.63      25.43
 78.87     621.00      24.92
 78.97     616.00      24.82
 79.07     632.00      25.14
 79.17     620.00      24.90
 79.27     639.00      25.28
 79.37     645.00      25.40
 79.47     603.97      24.58
 79.57     616.00      24.82
 79.67     633.00      25.16
 79.77     617.00      24.84
 79.87     602.08      24.54
 79.97     621.11      24.92
 80.07     595.00      24.39
 80.17     664.00      25.77
 80.27     631.00      25.12
 80.37     637.35      25.25
 80.47     734.00      27.09
 80.57     675.00      25.98
 80.67     733.00      27.07
 80.77     726.00      26.94
 80.87     923.00      30.38
 80.97     881.00      29.68
 81.07     950.00      30.82
 81.17    1068.00      32.68
 81.27    1169.00      34.19
 81.37    1218.95      34.91
 81.47    1322.32      36.36
 81.57    1380.00      37.15
 81.67    1528.00      39.09
 81.77    1413.00      37.59
 81.87    1491.00      38.61
 81.97    1451.00      38.09
 82.07    1333.79      36.52
 82.17    1329.00      36.46
 82.27    1327.00      36.43
 82.37    1257.00      35.45
 82.47    1178.69      34.33
 82.57    1096.35      33.11
 82.67     970.90      31.16
 82.77     927.00      30.45
 82.87     859.30      29.31
 82.97     789.00      28.09
 83.07     779.00      27.91
 83.17     766.00      27.68
 83.27     705.00      26.55
 83.37     695.00      26.36
 83.47     682.12      26.12
 83.57     732.25      27.06
 83.67     659.61      25.68
 83.77     656.00      25.61
 83.87     633.00      25.16
 83.97     681.90      26.11
 84.07     691.50      26.30
 84.17     615.00      24.80
 84.27     653.06      25.55
 84.37     628.00      25.06
 84.47     678.71      26.05
 84.57     684.00      26.15
 84.67     744.11      27.28
 84.77     672.00      25.92
 84.87     668.50      25.86
 84.97     660.67      25.70
 85.07     727.29      26.97
 85.17     636.00      25.22
 85.27     651.00      25.51
 85.37     609.00      24.68
 85.47     637.00      25.24
 85.57     638.67      25.27
 85.67     633.00      25.16
 85.77     618.07      24.86
 85.87     612.23      24.74
 85.97     600.22      24.50
 86.07     654.26      25.58
 86.17     649.61      25.49
 86.27     609.92      24.70
 86.37     651.00      25.51
 86.47     638.00      25.26
 86.57     663.00      25.75
 86.67     627.00      25.04
 86.77     670.00      25.88
 86.87     688.00      26.23
 86.97     733.00      27.07
 87.07     660.00      25.69
 87.17     715.00      26.74
 87.27     701.00      26.48
 87.37     711.00      26.66
 87.47     675.00      25.98
 87.57     715.44      26.75
 87.67     702.00      26.50
 87.77     678.69      26.05
 87.87     751.00      27.40
 87.97     758.41      27.54
 88.07     735.00      27.11
 88.17     723.30      26.89
 88.27     732.76      27.07
 88.37     739.00      27.18
 88.47     747.00      27.33
 88.57     708.22      26.61
 88.67     732.80      27.07
 88.77     747.34      27.34
 88.87     674.00      25.96
 88.97     672.00      25.92
 89.07     678.00      26.04
 89.17     674.93      25.98
 89.27     652.00      25.53
 89.37     661.00      25.71
 89.47     654.29      25.58
 89.57     641.00      25.32
 89.67     665.00      25.79
 89.77     616.77      24.83
 89.87     640.00      25.30
 89.97     700.00      26.46
 90.07     723.68      26.90
 90.17     720.00      26.83
 90.27     720.00      26.83
 90.37     697.00      26.40
 90.47     653.00      25.55
 90.57     637.00      25.24
 90.67     640.17      25.30
 90.77     663.00      25.75
 90.87     651.00      25.51
 90.97     659.00      25.67
 91.07     589.00      24.27
 91.17     576.00      24.00
 91.27     602.51      24.55
 91.37     604.00      24.58
 91.47     655.90      25.61
 91.57     594.00      24.37
 91.67     597.76      24.45
 91.77     607.00      24.64
 91.87     623.00      24.96
 91.97     566.60      23.80
 92.07     589.00      24.27
 92.17     610.00      24.70
 92.27     635.93      25.22
 92.37     583.00      24.15
 92.47     615.53      24.81
 92.57     613.00      24.76
 92.67     582.00      24.12
 92.77     639.00      25.28
 92.87     657.00      25.63
 92.97     638.00      25.26
 93.07     639.00      25.28
 93.17     644.00      25.38
 93.27     708.00      26.61
 93.37     659.00      25.67
 93.47     697.00      26.40
 93.57     776.62      27.87
 93.67     692.00      26.31
 93.77     810.00      28.46
 93.87     779.00      27.91
 93.97     808.00      28.43
 94.07     858.94      29.31
 94.17     895.00      29.92
 94.27     859.00      29.31
 94.37     904.00      30.07
 94.47     857.00      29.27
 94.57     933.00      30.55
 94.67     963.00      31.03
 94.77     916.05      30.27
 94.87    1008.40      31.76
 94.97     964.00      31.05
 95.07    1010.81      31.79
 95.17     973.02      31.19
 95.27    1051.45      32.43
 95.37    1035.00      32.17
 95.47    1107.14      33.27
 95.57    1081.47      32.89
 95.67    1025.00      32.02
 95.77     976.05      31.24
 95.87     994.24      31.53
 95.97    1026.00      32.03
 96.07    1006.00      31.72
 96.17     974.00      31.21
 96.27     891.00      29.85
 96.37     896.00      29.93
 96.47     810.40      28.47
 96.57     811.00      28.48
 96.67     850.00      29.15
 96.77     840.47      28.99
 96.87     841.16      29.00
 96.97     792.27      28.15
 97.07     812.36      28.50
 97.17     911.74      30.19
 97.27     884.00      29.73
 97.37     964.00      31.05
 97.47    1005.00      31.70
 97.57    1031.00      32.11
 97.67    1166.00      34.15
 97.77    1121.90      33.49
 97.87    1293.00      35.96
 97.97    1356.59      36.83
 98.07    1393.00      37.32
 98.17    1507.21      38.82
 98.27    1525.00      39.05
 98.37    1514.86      38.92
 98.47    1570.69      39.63
 98.57    1633.00      40.41
 98.67    1536.14      39.19
 98.77    1491.00      38.61
 98.87    1530.15      39.12
 98.97    1491.00      38.61
 99.07    1344.95      36.67
 99.17    1320.00      36.33
 99.27    1251.00      35.37
 99.37    1181.00      34.37
 99.47    1150.33      33.92
 99.57    1088.00      32.98
 99.67    1058.42      32.53
 99.77    1036.00      32.19
 99.87    1050.55      32.41
 99.97     964.00      31.05
100.07    1007.00      31.73
100.17    1022.00      31.97
100.27    1065.22      32.64
100.37    1076.37      32.81
100.47    1230.00      35.07
100.57    1272.00      35.67
100.67    1342.00      36.63
100.77    1504.79      38.79
100.87    1506.80      38.82
100.97    1585.00      39.81
101.07    1796.00      42.38
101.17    1830.00      42.78
101.27    1903.00      43.62
101.37    2029.21      45.05
101.47    1948.44      44.14
101.57    2112.00      45.96
101.67    2065.00      45.44
101.77    2106.00      45.89
101.87    2155.00      46.42
101.97    2069.14      45.49
102.07    2189.50      46.79
102.17    2014.00      44.88
102.27    1988.00      44.59
102.37    1931.81      43.95
102.47    1901.27      43.60
102.57    1862.47      43.16
102.67    1669.00      40.85
102.77    1636.22      40.45
102.87    1579.65      39.74
102.97    1452.00      38.11
103.07    1421.00      37.70
103.17    1473.96      38.39
103.27    1365.80      36.96
103.37    1321.00      36.35
103.47    1278.00      35.75
103.57    1305.00      36.12
103.67    1228.00      35.04
103.77    1197.00      34.60
103.87    1170.00      34.21
103.97    1118.00      33.44
104.07    1161.30      34.08
104.17    1063.00      32.60
104.27    1065.85      32.65
104.37     958.23      30.96
104.47     929.00      30.48
104.57     937.85      30.62
104.67     823.00      28.69
104.77     860.00      29.33
104.87     779.00      27.91
104.97     797.75      28.24
105.07     734.78      27.11
105.17     678.54      26.05
105.27     696.49      26.39
105.37     704.00      26.53
105.47     665.00      25.79
105.57     668.93      25.86
105.67     625.00      25.00
105.77     638.00      25.26
105.87     604.00      24.58
105.97     645.00      25.40
106.07     612.00      24.74
106.17     686.00      26.19
106.27     646.00      25.42
106.37     643.00      25.36
106.47     654.00      25.57
106.57     633.00      25.16
106.67     640.00      25.30
106.77     613.00      24.76
106.87     657.16      25.64
106.97     619.00      24.88
107.07     684.00      26.15
107.17     685.00      26.17
107.27     723.21      26.89
107.37     677.00      26.02
107.47     664.00      25.77
107.57     690.36      26.27
107.67     704.00      26.53
107.77     701.00      26.48
107.87     735.00      27.11
107.97     768.32      27.72
108.07     749.00      27.37
108.17     793.97      28.18
108.27     772.31      27.79
108.37     759.00      27.55
108.47     787.00      28.05
108.57     751.00      27.40
108.67     798.00      28.25
108.77     850.28      29.16
108.87     794.00      28.18
108.97     754.40      27.47
109.07     779.00      27.91
109.17     773.00      27.80
109.27     738.00      27.17
109.37     739.85      27.20
109.47     795.00      28.20
109.57     734.00      27.09
109.67     785.00      28.02
109.77     820.00      28.64
109.87     810.00      28.46
109.97     786.00      28.04
110.07     736.55      27.14
110.17     737.00      27.15
110.27     724.00      26.91
110.37     699.00      26.44
110.47     758.83      27.55
110.57     789.00      28.09
110.67     777.13      27.88
110.77     758.00      27.53
110.87     731.00      27.04
110.97     728.71      26.99
111.07     732.00      27.06
111.17     701.00      26.48
111.27     653.00      25.55
111.37     624.00      24.98
111.47     725.00      26.93
111.57     666.00      25.81
111.67     689.00      26.25
111.77     703.00      26.51
111.87     650.00      25.50
111.97     643.00      25.36
112.07     570.83      23.89
112.17     655.93      25.61
112.27     641.00      25.32
112.37     583.00      24.15
112.47     624.69      24.99
112.57     644.15      25.38
112.67     626.68      25.03
112.77     668.59      25.86
112.87     656.00      25.61
112.97     603.31      24.56
113.07     653.68      25.57
113.17     576.24      24.00
113.27     614.00      24.78
113.37     629.00      25.08
113.47     621.00      24.92
113.57     629.00      25.08
113.67     618.00      24.86
113.77     668.00      25.85
113.87     649.00      25.48
113.97     608.00      24.66
114.07     631.00      25.12
114.17     654.00      25.57
114.27     693.57      26.34
114.37     627.46      25.05
114.47     727.00      26.96
114.57     745.00      27.29
114.67     734.00      27.09
114.77     744.92      27.29
114.87     769.00      27.73
114.97     742.26      27.24
115.07     861.87      29.36
115.17     927.47      30.45
115.27     887.00      29.78
115.37     980.00      31.30
115.47    1073.41      32.76
115.57    1218.98      34.91
115.67    1242.00      35.24
115.77    1422.00      37.71
115.87    1564.00      39.55
115.97    1843.00      42.93
116.07    2038.00      45.14
116.17    2271.00      47.66
116.27    2419.63      49.19
116.37    2702.00      51.98
116.47    3057.52      55.29
116.57    3309.00      57.52
116.67    3671.57      60.59
116.77    4213.00      64.91
116.87    4462.64      66.80
116.97    4890.00      69.93
117.07    5276.00      72.64
117.17    5871.55      76.63
117.27    5890.00      76.75
117.37    6573.15      81.07
117.47    6659.02      81.60
117.57    6968.62      83.48
117.67    7173.00      84.69
117.77    7547.73      86.88
117.87    7481.00      86.49
117.97    7708.80      87.80
118.07    7652.00      87.48
118.17    7496.08      86.58
118.27    7502.00      86.61
118.37    7013.00      83.74
118.47    6651.14      81.55
118.57    6522.34      80.76
118.67    6162.21      78.50
118.77    5644.00      75.13
118.87    5395.31      73.45
118.97    4890.00      69.93
119.07    4712.00      68.64
119.17    4323.00      65.75
119.27    3868.39      62.20
119.37    3440.78      58.66
119.47    3170.97      56.31
119.57    2963.00      54.43
119.67    2628.00      51.26
119.77    2457.00      49.57
119.87    2168.00      46.56
119.97    1975.00      44.44
120.07    1732.00      41.62
120.17    1629.00      40.36
120.27    1502.00      38.76
120.37    1358.00      36.85
120.47    1237.56      35.18
120.57    1156.71      34.01
120.67    1089.00      33.00
120.77     964.05      31.05
120.87     996.00      31.56
120.97     949.00      30.81
121.07     892.00      29.87
121.17     848.00      29.12
121.27     805.00      28.37
121.37     817.00      28.58
121.47     807.00      28.41
121.57     814.13      28.53
121.67     753.00      27.44
121.77     721.28      26.86
121.87     692.49      26.32
121.97     728.00      26.98
122.07     685.00      26.17
122.17     706.89      26.59
122.27     716.00      26.76
122.37     691.00      26.29
122.47     716.00      26.76
122.57     681.00      26.10
122.67     662.00      25.73
122.77     758.81      27.55
122.87     681.56      26.11
122.97     742.67      27.25
123.07     743.18      27.26
123.17     755.59      27.49
123.27     692.00      26.31
123.37     753.44      27.45
123.47     692.00      26.31
123.57     726.00      26.94
123.67     771.00      27.77
123.77     760.00      27.57
123.87     793.00      28.16
123.97     779.24      27.91
124.07     784.22      28.00
124.17     762.00      27.60
124.27     818.00      28.60
124.37     791.00      28.12
124.47     808.36      28.43
124.57     791.00      28.12
124.67     841.00      29.00
124.77     835.00      28.90
124.87     782.34      27.97
124.97     804.00      28.35
