  9.97     731.00      27.04
 10.07     747.37      27.34
 10.17     714.96      26.74
 10.27     712.00      26.68
 10.37     747.48      27.34
 10.47     724.19      26.91
 10.57     721.00      26.85
 10.67     732.00      27.06
 10.77     713.00      26.70
 10.87     737.00      27.15
 10.97     720.99      26.85
 11.07     713.00      26.70
 11.17     725.00      26.93
 11.27     744.00      27.28
 11.37     719.26      26.82
 11.47     650.92      25.51
 11.57     732.00      27.06
 11.67     772.00      27.78
 11.77     757.00      27.51
 11.87     762.60      27.62
 11.97     773.00      27.80
 12.07     830.00      28.81
 12.17     841.00      29.00
 12.27     859.00      29.31
 12.37     828.00      28.77
 12.47     820.00      28.64
 12.57     758.00      27.53
 12.67     770.01      27.75
 12.77     688.00      26.23
 12.87     737.10      27.15
 12.97     653.24      25.56
 13.07     666.00      25.81
 13.17     718.77      26.81
 13.27     618.00      24.86
 13.37     728.39      26.99
 13.47     656.00      25.61
 13.57     643.38      25.36
 13.67     632.00      25.14
 13.77     688.00      26.23
 13.87     650.00      25.50
 13.97     665.00      25.79
 14.07     685.00      26.17
 14.17     723.00      26.89
 14.27     672.66      25.94
 14.37     628.00      25.06
 14.47     643.36      25.36
 14.57     626.00      25.02
 14.67     640.00      25.30
 14.77     678.20      26.04
 14.87     627.86      25.06
 14.97     598.00      24.45
 15.07     711.17      26.67
 15.17     668.48      25.85
 15.27     680.67      26.09
 15.37     634.26      25.18
 15.47     651.00      25.51
 15.57     664.00      25.77
 15.67     673.00      25.94
 15.77     667.00      25.83
 15.87     648.00      25.46
 15.97     647.40      25.44
 16.07     632.11      25.14
 16.17     672.00      25.92
 16.27     642.68      25.35
 16.37     670.00      25.88
 16.47     652.00      25.53
 16.57     634.00      25.18
 16.67     662.00      25.73
 16.77     635.00      25.20
 16.87     682.42      26.12
 16.97     692.34      26.31
 17.07     598.00      24.45
 17.17     618.81      24.88
 17.27     662.32      25.74
 17.37     639.90      25.30
 17.47     658.00      25.65
 17.57     656.00      25.61
 17.67     632.00      25.14
 17.77     573.00      23.94
 17.87     635.00      25.20
 17.97     672.86      25.94
 18.07     666.62      25.82
 18.17     617.00      24.84
 18.27     675.00      25.98
 18.37     648.24      25.46
 18.47     640.00      25.30
 18.57     669.00      25.87
 18.67     616.00      24.82
 18.77     647.00      25.44
 18.87     663.75      25.76
 18.97     643.55      25.37
 19.07     623.00      24.96
 19.17     661.28      25.72
 19.27     623.00      24.96
 19.37     662.00      25.73
 19.47     613.00      24.76
 19.57     599.00      24.47
 19.67     613.18      24.76
 19.77     644.06      25.38
 19.87     649.15      25.48
 19.97     599.00      24.47
 20.07     645.00      25.40
 20.17     602.87      24.55
 20.27     650.00      25.50
 20.37     612.00      24.74
 20.47     649.72      25.49
 20.57     598.15      24.46
 20.67     636.00      25.22
 20.77     650.00      25.50
 20.87     628.66      25.07
 20.97     646.05      25.42
 21.07     603.00      24.56
 21.17     666.92      25.82
 21.27     618.78      24.88
 21.37     630.00      25.10
 21.47     608.43      24.67
 21.57     608.00      24.66
 21.67     629.00      25.08
 21.77     602.45      24.54
 21.87     614.00      24.78
 21.97     627.00      25.04
 22.07     651.00      25.51
 22.17     608.00      24.66
 22.27     587.57      24.24
 22.37     606.85      24.63
 22.47     658.00      25.65
 22.57     666.69      25.82
 22.67     652.30      25.54
 22.77     636.00      25.22
 22.87     622.91      24.96
 22.97     564.00      23.75
 23.07     653.13      25.56
 23.17     622.37      24.95
 23.27     631.15      25.12
 23.37     626.00      25.02
 23.47     665.36      25.79
 23.57     605.18      24.60
 23.67     674.80      25.98
 23.77     606.00      24.62
 23.87     670.73      25.90
 23.97     620.75      24.91
 24.07     630.12      25.10
 24.17     650.00      25.50
 24.27     658.49      25.66
 24.37     683.00      26.13
 24.47     696.00      26.38
 24.57     627.00      25.04
 24.67     674.00      25.96
 24.77     692.00      26.31
 24.87     717.00      26.78
 24.97     707.00      26.59
 25.07     766.00      27.68
 25.17     750.08      27.39
 25.27     694.99      26.36
 25.37     704.00      26.53
 25.47     706.00      26.57
 25.57     661.00      25.71
 25.67     688.72      26.24
 25.77     720.00      26.83
 25.87     629.26      25.09
 25.97     555.00      23.56
 26.07     639.00      25.28
 26.17     631.54      25.13
 26.27     675.07      25.98
 26.37     631.00      25.12
 26.47     643.00      25.36
 26.57     621.00      24.92
 26.67     621.63      24.93
 26.77     625.73      25.01
 26.87     691.09      26.29
 26.97     736.00      27.13
 27.07     661.00      25.71
 27.17     676.00      26.00
 27.27     686.00      26.19
 27.37     743.00      27.26
 27.47     709.00      26.63
 27.57     808.00      28.43
 27.67     816.00      28.57
 27.77     911.00      30.18
 27.87     977.78      31.27
 27.97    1285.00      35.85
 28.07    1963.00      44.31
 28.17    3191.00      56.49
 28.27    5239.00      72.38
 28.37    7621.91      87.30
 28.47    8441.00      91.87
 28.57    7500.30      86.60
 28.67    5753.75      75.85
 28.77    4451.00      66.72
 28.87    3482.00      59.01
 28.97    3733.54      61.10
 29.07    4275.00      65.38
 29.17    4693.00      68.51
 29.27    4269.00      65.34
 29.37    3258.66      57.08
 29.47    2273.00      47.68
 29.57    1576.00      39.70
 29.67    1223.00      34.97
 29.77     957.33      30.94
 29.87     912.50      30.21
 29.97     808.45      28.43
 30.07     783.00      27.98
 30.17     782.74      27.98
 30.27     749.00      27.37
 30.37     763.00      27.62
 30.47     654.00      25.57
 30.57     746.00      27.31
 30.67     729.91      27.02
 30.77     740.00      27.20
 30.87     726.00      26.94
 30.97     746.00      27.31
 31.07     747.00      27.33
 31.17     823.00      28.69
 31.27     782.00      27.96
 31.37     789.00      28.09
 31.47     728.00      26.98
 31.57     681.43      26.10
 31.67     753.00      27.44
 31.77     634.20      25.18
 31.87     661.00      25.71
 31.97     665.00      25.79
 32.07     675.00      25.98
 32.17     604.00      24.58
 32.27     625.00      25.00
 32.37     601.35      24.52
 32.47     633.80      25.18
 32.57     621.00      24.92
 32.67     593.36      24.36
 32.77     637.00      25.24
 32.87     615.26      24.80
 32.97     635.28      25.20
 33.07     667.00      25.83
 33.17     580.87      24.10
 33.27     686.00      26.19
 33.37     631.00      25.12
 33.47     654.00      25.57
 33.57     701.00      26.48
 33.67     704.00      26.53
 33.77     687.00      26.21
 33.87     799.00      28.27
 33.97     880.57      29.67
 34.07     957.00      30.94
 34.17    1149.57      33.91
 34.27    1218.22      34.90
 34.37    1306.00      36.14
 34.47    1226.00      35.01
 34.57    1113.64      33.37
 34.67     904.00      30.07
 34.77     795.00      28.20
 34.87     750.00      27.39
 34.97     679.00      26.06
 35.07     680.00      26.08
 35.17     635.00      25.20
 35.27     659.00      25.67
 35.37     614.00      24.78
 35.47     607.00      24.64
 35.57     645.56      25.41
 35.67     632.00      25.14
 35.77     613.00      24.76
 35.87     625.00      25.00
 35.97     565.35      23.78
 36.07     589.00      24.27
 36.17     614.00      24.78
 36.27     607.00      24.64
 36.37     635.43      25.21
 36.47     646.00      25.42
 36.57     626.95      25.04
 36.67     629.00      25.08
 36.77     636.37      25.23
 36.87     571.90      23.91
 36.97     594.02      24.37
 37.07     622.00      24.94
 37.17     619.74      24.89
 37.27     628.00      25.06
 37.37     604.00      24.58
 37.47     624.00      24.98
 37.57     642.00      25.34
 37.67     578.49      24.05
 37.77     661.69      25.72
 37.87     668.41      25.85
 37.97     672.00      25.92
 38.07     757.00      27.51
 38.17     739.00      27.18
 38.27     709.00      26.63
 38.37     788.00      28.07
 38.47     752.00      27.42
 38.57     728.00      26.98
 38.67     702.75      26.51
 38.77     651.00      25.51
 38.87     608.00      24.66
 38.97     605.00      24.60
 39.07     598.16      24.46
 39.17     571.00      23.90
 39.27     575.00      23.98
 39.37     612.00      24.74
 39.47     578.00      24.04
 39.57     611.00      24.72
 39.67     579.00      24.06
 39.77     570.71      23.89
 39.87     585.00      24.19
 39.97     603.00      24.56
 40.07     576.00      24.00
 40.17     606.00      24.62
 40.27     573.00      23.94
 40.37     620.05      24.90
 40.47     612.56      24.75
 40.57     598.00      24.45
 40.67     618.00      24.86
 40.77     576.24      24.00
 40.87     602.23      24.54
 40.97     631.10      25.12
 41.07     580.00      24.08
 41.17     601.00      24.52
 41.27     587.00      24.23
 41.37     607.00      24.64
 41.47     621.00      24.92
 41.57     615.00      24.80
 41.67     592.00      24.33
 41.77     636.38      25.23
 41.87     604.00      24.58
 41.97     613.00      24.76
 42.07     597.00      24.43
 42.17     616.00      24.82
 42.27     587.00      24.23
 42.37     616.53      24.83
 42.47     629.60      25.09
 42.57     623.00      24.96
 42.67     632.00      25.14
 42.77     627.00      25.04
 42.87     675.00      25.98
 42.97     666.38      25.81
 43.07     763.34      27.63
 43.17     665.00      25.79
 43.27     661.00      25.71
 43.37     675.00      25.98
 43.47     667.00      25.83
 43.57     583.00      24.15
 43.67     559.00      23.64
 43.77     651.00      25.51
 43.87     656.00      25.61
 43.97     574.29      23.96
 44.07     587.60      24.24
 44.17     586.00      24.21
 44.27     573.00      23.94
 44.37     593.00      24.35
 44.47     568.00      23.83
 44.57     588.50      24.26
 44.67     567.00      23.81
 44.77     571.00      23.90
 44.87     587.08      24.23
 44.97     602.00      24.54
 45.07     646.00      25.42
 45.17     587.00      24.23
 45.27     556.34      23.59
 45.37     592.00      24.33
 45.47     610.49      24.71
 45.57     656.00      25.61
 45.67     626.00      25.02
 45.77     571.99      23.92
 45.87     574.38      23.97
 45.97     635.00      25.20
 46.07     664.00      25.77
 46.17     619.19      24.88
 46.27     570.00      23.87
 46.37     592.00      24.33
 46.47     570.87      23.89
 46.57     598.00      24.45
 46.67     606.00      24.62
 46.77     586.00      24.21
 46.87     598.10      24.46
 46.97     585.22      24.19
 47.07     601.00      24.52
 47.17     560.00      23.66
 47.27     606.48      24.63
 47.37     578.00      24.04
 47.47     608.00      24.66
 47.57     571.00      23.90
 47.67     582.00      24.12
 47.77     597.00      24.43
 47.87     595.00      24.39
 47.97     639.00      25.28
 48.07     655.00      25.59
 48.17     635.00      25.20
 48.27     690.00      26.27
 48.37     720.00      26.83
 48.47     760.00      27.57
 48.57     647.00      25.44
 48.67     621.53      24.93
 48.77     642.93      25.36
 48.87     657.68      25.65
 48.97     603.65      24.57
 49.07     636.00      25.22
 49.17     645.15      25.40
 49.27     582.00      24.12
 49.37     635.24      25.20
 49.47     609.00      24.68
 49.57     645.00      25.40
 49.67     701.00      26.48
 49.77     743.00      27.26
 49.87     863.50      29.39
 49.97     916.00      30.27
 50.07    1157.00      34.01
 50.17    1567.00      39.59
 50.27    1975.99      44.45
 50.37    2498.48      49.98
 50.47    2853.00      53.41
 50.57    3217.00      56.72
 50.67    3063.00      55.34
 50.77    2694.51      51.91
 50.87    2376.00      48.74
 50.97    1820.00      42.66
 51.07    1429.00      37.80
 51.17    1064.43      32.63
 51.27     933.00      30.55
 51.37     848.00      29.12
 51.47     824.23      28.71
 51.57     808.00      28.43
 51.67     698.00      26.42
 51.77     726.00      26.94
 51.87     772.00      27.78
 51.97     658.90      25.67
 52.07     675.07      25.98
 52.17     717.37      26.78
 52.27     722.00      26.87
 52.37     690.00      26.27
 52.47     678.07      26.04
 52.57     675.66      25.99
 52.67     624.25      24.98
 52.77     624.96      25.00
 52.87     663.00      25.75
 52.97     713.00      26.70
 53.07     701.28      26.48
 53.17     745.00      27.29
 53.27     745.00      27.29
 53.37     776.00      27.86
 53.47     799.00      28.27
 53.57     916.26      30.27
 53.67    1082.31      32.90
 53.77    1164.00      34.12
 53.87    1256.00      35.44
 53.97    1317.54      36.30
 54.07    1247.00      35.31
 54.17    1193.00      34.54
 54.27    1100.49      33.17
 54.37    1016.00      31.87
 54.47     940.00      30.66
 54.57     830.00      28.81
 54.67     765.00      27.66
 54.77     688.00      26.23
 54.87     733.00      27.07
 54.97     674.00      25.96
 55.07     652.74      25.55
 55.17     683.00      26.13
 55.27     667.51      25.84
 55.37     647.00      25.44
 55.47     625.89      25.02
 55.57     653.00      25.55
 55.67     699.20      26.44
 55.77     677.00      26.02
 55.87     639.68      25.29
 55.97     637.00      25.24
 56.07     671.00      25.90
 56.17     722.00      26.87
 56.27     744.00      27.28
 56.37     786.00      28.04
 56.47     865.96      29.43
 56.57     907.00      30.12
 56.67    1030.00      32.09
 56.77    1265.00      35.57
 56.87    1537.37      39.21
 56.97    1770.00      42.07
 57.07    2093.00      45.75
 57.17    2491.00      49.91
 57.27    2669.00      51.66
 57.37    2740.00      52.35
 57.47    2562.39      50.62
 57.57    2353.00      48.51
 57.67    2039.00      45.16
 57.77    1717.15      41.44
 57.87    1399.75      37.41
 57.97    1144.00      33.82
 58.07    1008.90      31.76
 58.17     867.00      29.44
 58.27     817.35      28.59
 58.37     800.00      28.28
 58.47     790.93      28.12
 58.57     777.00      27.87
 58.67     835.99      28.91
 58.77     955.70      30.91
 58.87     955.70      30.91
 58.97    1036.12      32.19
 59.07    1084.00      32.92
 59.17    1220.00      34.93
 59.27    1313.00      36.24
 59.37    1372.78      37.05
 59.47    1310.19      36.20
 59.57    1415.43      37.62
 59.67    1365.51      36.95
 59.77    1259.51      35.49
 59.87    1322.00      36.36
 59.97    1260.00      35.50
 60.07    1274.00      35.69
 60.17    1219.27      34.92
 60.27    1348.00      36.72
 60.37    1434.88      37.88
 60.47    1525.00      39.05
 60.57    1548.23      39.35
 60.67    1586.00      39.82
 60.77    1556.27      39.45
 60.87    1550.00      39.37
 60.97    1425.00      37.75
 61.07    1337.00      36.57
 61.17    1173.00      34.25
 61.27    1018.00      31.91
 61.37     927.00      30.45
 61.47     826.00      28.74
 61.57     874.72      29.58
 61.67     821.00      28.65
 61.77     838.90      28.96
 61.87     781.00      27.95
 61.97     953.10      30.87
 62.07    1092.00      33.05
 62.17    1100.00      33.17
 62.27    1278.59      35.76
 62.37    1520.48      38.99
 62.47    1610.58      40.13
 62.57    1693.00      41.15
 62.67    1829.87      42.78
 62.77    1768.00      42.05
 62.87    1672.00      40.89
 62.97    1604.15      40.05
 63.07    1309.65      36.19
 63.17    1205.00      34.71
 63.27    1008.44      31.76
 63.37    1025.00      32.02
 63.47     874.00      29.56
 63.57     850.00      29.15
 63.67     770.00      27.75
 63.77     710.00      26.65
 63.87     735.00      27.11
 63.97     767.00      27.69
 64.07     765.59      27.67
 64.17     695.65      26.38
 64.27     796.00      28.21
 64.37     792.00      28.14
 64.47     887.38      29.79
 64.57     936.00      30.59
 64.67    1031.00      32.11
 64.77    1078.29      32.84
 64.87    1237.00      35.17
 64.97    1372.00      37.04
 65.07    1521.35      39.00
 65.17    1655.00      40.68
 65.27    1586.00      39.82
 65.37    1587.00      39.84
 65.47    1556.00      39.45
 65.57    1444.00      38.00
 65.67    1282.00      35.81
 65.77    1202.00      34.67
 65.87    1020.00      31.94
 65.97     943.00      30.71
 66.07     883.00      29.72
 66.17     786.00      28.04
 66.27     795.13      28.20
 66.37     710.00      26.65
 66.47     714.03      26.72
 66.57     658.00      25.65
 66.67     740.49      27.21
 66.77     703.00      26.51
 66.87     751.29      27.41
 66.97     711.82      26.68
 67.07     702.64      26.51
 67.17     684.00      26.15
 67.27     716.33      26.76
 67.37     707.00      26.59
 67.47     729.13      27.00
 67.57     769.00      27.73
 67.67     884.00      29.73
 67.77     947.79      30.79
 67.87    1044.62      32.32
 67.97    1130.00      33.62
 68.07    1360.00      36.88
 68.17    1542.00      39.27
 68.27    1734.00      41.64
 68.37    2099.75      45.82
 68.47    2363.23      48.61
 68.57    2390.29      48.89
 68.67    2591.00      50.90
 68.77    2584.00      50.83
 68.87    2360.97      48.59
 68.97    2210.30      47.01
 69.07    1970.00      44.38
 69.17    1699.00      41.22
 69.27    1459.00      38.20
 69.37    1217.83      34.90
 69.47    1203.00      34.68
 69.57     968.46      31.12
 69.67     898.50      29.97
 69.77     817.06      28.58
 69.87     781.70      27.96
 69.97     773.00      27.80
 70.07     767.00      27.69
 70.17     726.32      26.95
 70.27     739.00      27.18
 70.37     737.00      27.15
 70.47     728.00      26.98
 70.57     643.97      25.38
 70.67     698.65      26.43
 70.77     732.00      27.06
 70.87     727.00      26.96
 70.97     708.00      26.61
 71.07     694.00      26.34
 71.17     702.10      26.50
 71.27     660.00      25.69
 71.37     694.00      26.34
 71.47     759.91      27.57
 71.57     796.00      28.21
 71.67     875.02      29.58
 71.77     860.00      29.33
 71.87     971.00      31.16
 71.97    1097.75      33.13
 72.07    1254.62      35.42
 72.17    1387.13      37.24
 72.27    1498.00      38.70
 72.37    1803.00      42.46
 72.47    1925.00      43.87
 72.57    1915.58      43.77
 72.67    2073.32      45.53
 72.77    2038.05      45.14
 72.87    1897.26      43.56
 72.97    1746.42      41.79
 73.07    1660.23      40.75
 73.17    1401.00      37.43
 73.27    1201.87      34.67
 73.37    1154.00      33.97
 73.47     981.00      31.32
 73.57     909.00      30.15
 73.67     838.29      28.95
 73.77     773.00      27.80
 73.87     742.00      27.24
 73.97     702.89      26.51
 74.07     668.01      25.85
 74.17     694.00      26.34
 74.27     634.00      25.18
 74.37     707.00      26.59
 74.47     663.00      25.75
 74.57     694.00      26.34
 74.67     624.00      24.98
 74.77     653.00      25.55
 74.87     719.58      26.82
 74.97     648.00      25.46
 75.07     747.00      27.33
 75.17     657.00      25.63
 75.27     722.00      26.87
 75.37     695.00      26.36
 75.47     741.00      27.22
 75.57     652.00      25.53
 75.67     706.00      26.57
 75.77     740.00      27.20
 75.87     694.00      26.34
 75.97     704.00      26.53
 76.07     714.00      26.72
 76.17     672.13      25.93
 76.27     718.00      26.80
 76.37     722.00      26.87
 76.47     747.00      27.33
 76.57     794.36      28.18
 76.67     825.00      28.72
 76.77     834.57      28.89
 76.87     893.47      29.89
 76.97     953.00      30.87
 77.07    1003.00      31.67
 77.17    1055.23      32.48
 77.27     984.00      31.37
 77.37    1044.63      32.32
 77.47     989.43      31.46
 77.57     959.00      30.97
 77.67     954.58      30.90
 77.77     887.00      29.78
 77.87     812.00      28.50
 77.97     724.00      26.91
 78.07     785.90      28.03
 78.17     731.31      27.04
 78.27     725.55      26.94
 78.37     653.00      25.55
 78.47     643.00      25.36
 78.57     625.00      25.00
 78.67     672.00      25.92
 78.77     605.00      24.60
 78.87     651.79      25.53
 78.97     630.00      25.10
 79.07     606.00      24.62
 79.17     620.00      24.90
 79.27     648.52      25.47
 79.37     609.00      24.68
 79.47     644.00      25.38
 79.57     625.00      25.00
 79.67     583.00      24.15
 79.77     637.00      25.24
 79.87     644.00      25.38
 79.97     644.91      25.40
 80.07     669.59      25.88
 80.17     625.00      25.00
 80.27     650.00      25.50
 80.37     627.43      25.05
 80.47     685.00      26.17
 80.57     646.00      25.42
 80.67     730.97      27.04
 80.77     748.34      27.36
 80.87     801.29      28.31
 80.97     824.28      28.71
 81.07    1011.00      31.80
 81.17    1092.00      33.05
 81.27    1148.00      33.88
 81.37    1303.00      36.10
 81.47    1334.00      36.52
 81.57    1376.29      37.10
 81.67    1313.68      36.24
 81.77    1386.08      37.23
 81.87    1471.02      38.35
 81.97    1422.34      37.71
 82.07    1504.00      38.78
 82.17    1414.00      37.60
 82.27    1212.72      34.82
 82.37    1223.81      34.98
 82.47    1189.00      34.48
 82.57    1098.00      33.14
 82.67     944.45      30.73
 82.77     962.00      31.02
 82.87     841.00      29.00
 82.97     795.00      28.20
 83.07     844.00      29.05
 83.17     719.00      26.81
 83.27     752.36      27.43
 83.37     713.71      26.72
 83.47     729.57      27.01
 83.57     640.00      25.30
 83.67     656.00      25.61
 83.77     650.53      25.51
 83.87     649.00      25.48
 83.97     682.79      26.13
 84.07     697.89      26.42
 84.17     703.94      26.53
 84.27     699.00      26.44
 84.37     661.73      25.72
 84.47     679.00      26.06
 84.57     641.00      25.32
 84.67     627.00      25.04
 84.77     693.84      26.34
 84.87     679.52      26.07
 84.97     632.00      25.14
 85.07     689.00      26.25
 85.17     712.91      26.70
 85.27     651.00      25.51
 85.37     686.51      26.20
 85.47     623.00      24.96
 85.57     580.00      24.08
 85.67     610.00      24.70
 85.77     602.38      24.54
 85.87     575.89      24.00
 85.97     583.00      24.15
 86.07     610.66      24.71
 86.17     632.00      25.14
 86.27     598.00      24.45
 86.37     616.00      24.82
 86.47     691.00      26.29
 86.57     639.00      25.28
 86.67     588.00      24.25
 86.77     683.00      26.13
 86.87     654.92      25.59
 86.97     662.00      25.73
 87.07     707.00      26.59
 87.17     643.00      25.36
 87.27     745.00      27.29
 87.37     683.80      26.15
 87.47     680.00      26.08
 87.57     706.00      26.57
 87.67     688.00      26.23
 87.77     750.00      27.39
 87.87     696.00      26.38
 87.97     740.00      27.20
 88.07     745.00      27.29
 88.17     690.42      26.28
 88.27     717.00      26.78
 88.37     716.00      26.76
 88.47     716.90      26.78
 88.57     743.00      27.26
 88.67     722.00      26.87
 88.77     652.00      25.53
 88.87     651.89      25.53
 88.97     633.85      25.18
 89.07     640.00      25.30
 89.17     661.00      25.71
 89.27     639.00      25.28
 89.37     677.00      26.02
 89.47     673.00      25.94
 89.57     699.65      26.45
 89.67     665.00      25.79
 89.77     647.56      25.45
 89.87     681.00      26.10
 89.97     636.28      25.22
 90.07     705.53      26.56
 90.17     692.00      26.31
 90.27     681.00      26.10
 90.37     679.00      26.06
 90.47     666.00      25.81
 90.57     644.97      25.40
 90.67     707.00      26.59
 90.77     648.00      25.46
 90.87     630.00      25.10
 90.97     589.78      24.29
 91.07     666.71      25.82
 91.17     574.99      23.98
 91.27     646.00      25.42
 91.37     575.00      23.98
 91.47     646.21      25.42
 91.57     624.00      24.98
 91.67     596.16      24.42
 91.77     607.00      24.64
 91.87     597.00      24.43
 91.97     608.00      24.66
 92.07     615.00      24.80
 92.17     626.87      25.04
 92.27     583.00      24.15
 92.37     578.01      24.04
 92.47     561.09      23.69
 92.57     570.00      23.87
 92.67     641.00      25.32
 92.77     642.00      25.34
 92.87     622.00      24.94
 92.97     628.12      25.06
 93.07     610.25      24.70
 93.17     657.00      25.63
 93.27     714.23      26.73
 93.37     704.00      26.53
 93.47     708.01      26.61
 93.57     724.90      26.92
 93.67     737.00      27.15
 93.77     788.00      28.07
 93.87     770.00      27.75
 93.97     805.00      28.37
 94.07     832.00      28.84
 94.17     811.00      28.48
 94.27     840.22      28.99
 94.37     822.00      28.67
 94.47     866.00      29.43
 94.57     923.00      30.38
 94.67     927.00      30.45
 94.77     970.72      31.16
 94.87     954.00      30.89
 94.97     955.00      30.90
 95.07     996.92      31.57
 95.17     964.06      31.05
 95.27    1076.47      32.81
 95.37    1012.00      31.81
 95.47    1005.64      31.71
 95.57    1071.52      32.73
 95.67     987.00      31.42
 95.77    1086.00      32.95
 95.87    1059.00      32.54
 95.97    1016.00      31.87
 96.07     997.28      31.58
 96.17     965.52      31.07
 96.27     950.05      30.82
 96.37     936.78      30.61
 96.47     814.65      28.54
 96.57     878.00      29.63
 96.67     813.00      28.51
 96.77     807.00      28.41
 96.87     818.00      28.60
 96.97     800.00      28.28
 97.07     862.00      29.36
 97.17     821.92      28.67
 97.27     910.00      30.17
 97.37    1000.00      31.62
 97.47    1043.00      32.30
 97.57    1058.00      32.53
 97.67    1095.71      33.10
 97.77    1196.00      34.58
 97.87    1258.00      35.47
 97.97    1360.00      36.88
 98.07    1390.00      37.28
 98.17    1444.55      38.01
 98.27    1532.00      39.14
 98.37    1630.76      40.38
 98.47    1583.00      39.79
 98.57    1643.54      40.54
 98.67    1630.05      40.37
 98.77    1618.00      40.22
 98.87    1462.40      38.24
 98.97    1403.47      37.46
 99.07    1348.37      36.72
 99.17    1367.11      36.97
 99.27    1266.48      35.59
 99.37    1202.00      34.67
 99.47    1084.41      32.93
 99.57    1106.00      33.26
 99.67    1046.09      32.34
 99.77     997.00      31.58
 99.87    1007.00      31.73
 99.97     986.00      31.40
100.07     977.95      31.27
100.17    1083.54      32.92
100.27    1074.00      32.77
100.37    1136.00      33.70
100.47    1124.51      33.53
100.57    1219.71      34.92
100.67    1430.00      37.82
100.77    1418.42      37.66
100.87    1584.00      39.80
100.97    1628.00      40.35
101.07    1742.11      41.74
101.17    1736.92      41.68
101.27    1836.86      42.86
101.37    1902.46      43.62
101.47    2029.51      45.05
101.57    2073.00      45.53
101.67    2140.00      46.26
101.77    2132.67      46.18
101.87    2160.59      46.48
101.97    2111.60      45.95
102.07    2097.70      45.80
102.17    2104.78      45.88
102.27    1961.78      44.29
102.37    1933.99      43.98
102.47    1849.00      43.00
102.57    1739.00      41.70
102.67    1705.00      41.29
102.77    1612.00      40.15
102.87    1535.00      39.18
102.97    1555.34      39.44
103.07    1449.00      38.07
103.17    1399.77      37.41
103.27    1388.00      37.26
103.37    1416.06      37.63
103.47    1342.00      36.63
103.57    1231.00      35.09
103.67    1246.01      35.30
103.77    1246.38      35.30
103.87    1175.58      34.29
103.97    1117.00      33.42
104.07    1154.88      33.98
104.17    1078.00      32.83
104.27    1023.86      32.00
104.37     986.51      31.41
104.47     991.86      31.49
104.57     926.00      30.43
104.67     876.00      29.60
104.77     805.00      28.37
104.87     805.00      28.37
104.97     799.00      28.27
105.07     701.94      26.49
105.17     701.63      26.49
105.27     730.00      27.02
105.37     714.00      26.72
105.47     663.00      25.75
105.57     649.00      25.48
105.67     636.00      25.22
105.77     647.56      25.45
105.87     632.00      25.14
105.97     614.27      24.78
106.07     616.00      24.82
106.17     646.00      25.42
106.27     569.79      23.87
106.37     567.43      23.82
106.47     568.45      23.84
106.57     644.85      25.39
106.67     644.00      25.38
106.77     667.00      25.83
106.87     646.00      25.42
106.97     616.00      24.82
107.07     604.00      24.58
107.17     640.63      25.31
107.27     711.00      26.66
107.37     715.00      26.74
107.47     654.51      25.58
107.57     658.81      25.67
107.67     664.00      25.77
107.77     771.02      27.77
107.87     729.00      27.00
107.97     753.00      27.44
108.07     793.00      28.16
108.17     793.00      28.16
108.27     731.00      27.04
108.37     782.00      27.96
108.47     745.00      27.29
108.57     738.00      27.17
108.67     826.00      28.74
108.77     816.47      28.57
108.87     731.00      27.04
108.97     762.63      27.62
109.07     767.00      27.69
109.17     767.00      27.69
109.27     770.00      27.75
109.37     773.32      27.81
109.47     770.36      27.76
109.57     808.11      28.43
109.67     731.00      27.04
109.77     765.00      27.66
109.87     758.00      27.53
109.97     792.00      28.14
110.07     844.16      29.05
110.17     758.00      27.53
110.27     827.97      28.77
110.37     804.00      28.35
110.47     753.00      27.44
110.57     747.00      27.33
110.67     779.00      27.91
110.77     739.00      27.18
110.87     750.46      27.39
110.97     734.00      27.09
111.07     746.24      27.32
111.17     718.00      26.80
111.27     750.00      27.39
111.37     707.00      26.59
111.47     589.00      24.27
111.57     679.00      26.06
111.67     680.00      26.08
111.77     650.00      25.50
111.87     603.00      24.56
111.97     626.78      25.04
112.07     604.64      24.59
112.17     576.43      24.01
112.27     645.00      25.40
112.37     618.00      24.86
112.47     629.00      25.08
112.57     573.43      23.95
112.67     620.00      24.90
112.77     609.00      24.68
112.87     635.68      25.21
112.97     638.00      25.26
113.07     593.70      24.37
113.17     609.00      24.68
113.27     605.00      24.60
113.37     591.00      24.31
113.47     599.00      24.47
113.57     662.00      25.73
113.67     659.00      25.67
113.77     644.00      25.38
113.87     657.00      25.63
113.97     598.00      24.45
114.07     697.52      26.41
114.17     643.00      25.36
114.27     645.00      25.40
114.37     622.00      24.94
114.47     699.00      26.44
114.57     669.30      25.87
114.67     740.00      27.20
114.77     765.72      27.67
114.87     767.00      27.69
114.97     800.00      28.28
115.07     789.24      28.09
115.17     838.00      28.95
115.27     925.00      30.41
115.37     996.00      31.56
115.47    1024.85      32.01
115.57    1239.21      35.20
115.67    1317.00      36.29
115.77    1415.57      37.62
115.87    1603.19      40.04
115.97    1759.00      41.94
116.07    1963.19      44.31
116.17    2230.00      47.22
116.27    2401.00      49.00
116.37    2703.63      52.00
116.47    3058.00      55.30
116.57    3328.00      57.69
116.67    3565.00      59.71
116.77    4076.53      63.85
116.87    4522.00      67.25
116.97    4861.00      69.72
117.07    5229.00      72.31
117.17    5743.92      75.79
117.27    5909.00      76.87
117.37    6412.57      80.08
117.47    6594.72      81.21
117.57    7140.00      84.50
117.67    7247.77      85.13
117.77    7327.00      85.60
117.87    7576.00      87.04
117.97    7632.59      87.36
118.07    7584.00      87.09
118.17    7260.96      85.21
118.27    7202.00      84.86
118.37    6951.00      83.37
118.47    6527.00      80.79
118.57    6414.00      80.09
118.67    6174.38      78.58
118.77    5660.67      75.24
118.87    5290.00      72.73
118.97    5009.00      70.77
119.07    4604.00      67.85
119.17    4270.00      65.35
119.27    3981.00      63.10
119.37    3657.22      60.47
119.47    3330.47      57.71
119.57    2929.22      54.12
119.67    2644.00      51.42
119.77    2443.00      49.43
119.87    2206.00      46.97
119.97    1981.00      44.51
120.07    1790.99      42.32
120.17    1624.00      40.30
120.27    1551.00      39.38
120.37    1411.00      37.56
120.47    1273.00      35.68
120.57    1225.00      35.00
120.67    1077.80      32.83
120.77     993.73      31.52
120.87     998.94      31.61
120.97     909.60      30.16
121.07     944.00      30.72
121.17     880.83      29.68
121.27     841.00      29.00
121.37     791.00      28.12
121.47     778.00      27.89
121.57     745.00      27.29
121.67     715.85      26.76
121.77     767.46      27.70
121.87     713.00      26.70
121.97     696.18      26.39
122.07     745.57      27.31
122.17     719.00      26.81
122.27     654.00      25.57
122.37     668.54      25.86
122.47     672.00      25.92
122.57     672.00      25.92
122.67     658.00      25.65
122.77     699.00      26.44
122.87     730.00      27.02
122.97     772.34      27.79
123.07     699.00      26.44
123.17     652.00      25.53
123.27     701.00      26.48
123.37     768.00      27.71
123.47     748.62      27.36
123.57     745.00      27.29
123.67     733.00      27.07
123.77     774.00      27.82
123.87     732.43      27.06
123.97     769.00      27.73
124.07     807.70      28.42
124.17     827.00      28.76
124.27     753.60      27.45
124.37     760.00      27.57
124.47     789.13      28.09
124.57     823.00      28.69
124.67     767.00      27.69
124.77     769.19      27.73
124.87     830.00      28.81
124.97     789.18      28.09
