  9.97     760.00      27.57
 10.07     734.87      27.11
 10.17     731.73      27.05
 10.27     728.00      26.98
 10.37     730.00      27.02
 10.47     728.00      26.98
 10.57     733.00      27.07
 10.67     747.00      27.33
 10.77     719.00      26.81
 10.87     714.58      26.73
 10.97     690.32      26.27
 11.07     724.00      26.91
 11.17     747.24      27.34
 11.27     737.00      27.15
 11.37     791.00      28.12
 11.47     679.18      26.06
 11.57     789.00      28.09
 11.67     769.00      27.73
 11.77     791.00      28.12
 11.87     763.00      27.62
 11.97     721.22      26.86
 12.07     855.00      29.24
 12.17     817.85      28.60
 12.27     882.00      29.70
 12.37     841.00      29.00
 12.47     787.83      28.07
 12.57     784.27      28.00
 12.67     712.00      26.68
 12.77     753.00      27.44
 12.87     743.00      27.26
 12.97     742.51      27.25
 13.07     706.77      26.59
 13.17     657.34      25.64
 13.27     761.00      27.59
 13.37     674.00      25.96
 13.47     702.00      26.50
 13.57     668.00      25.85
 13.67     659.00      25.67
 13.77     695.00      26.36
 13.87     752.73      27.44
 13.97     728.00      26.98
 14.07     763.00      27.62
 14.17     686.00      26.19
 14.27     748.50      27.36
 14.37     727.53      26.97
 14.47     711.78      26.68
 14.57     741.30      27.23
 14.67     736.30      27.13
 14.77     679.00      26.06
 14.87     676.98      26.02
 14.97     717.30      26.78
 15.07     640.49      25.31
 15.17     620.00      24.90
 15.27     692.00      26.31
 15.37     693.00      26.32
 15.47     683.00      26.13
 15.57     720.00      26.83
 15.67     679.00      26.06
 15.77     673.00      25.94
 15.87     670.00      25.88
 15.97     707.00      26.59
 16.07     684.00      26.15
 16.17     637.99      25.26
 16.27     683.00      26.13
 16.37     627.66      25.05
 16.47     686.00      26.19
 16.57     635.36      25.21
 16.67     725.29      26.93
 16.77     667.00      25.83
 16.87     618.00      24.86
 16.97     661.00      25.71
 17.07     658.00      25.65
 17.17     636.00      25.22
 17.27     634.00      25.18
 17.37     670.00      25.88
 17.47     703.52      26.52
 17.57     658.00      25.65
 17.67     672.00      25.92
 17.77     602.00      24.54
 17.87     657.00      25.63
 17.97     637.00      25.24
 18.07     619.04      24.88
 18.17     662.49      25.74
 18.27     682.00      26.12
 18.37     652.00      25.53
 18.47     699.83      26.45
 18.57     667.00      25.83
 18.67     712.00      26.68
 18.77     701.24      26.48
 18.87     649.02      25.48
 18.97     608.00      24.66
 19.07     657.97      25.65
 19.17     643.00      25.36
 19.27     617.00      24.84
 19.37     636.00      25.22
 19.47     670.00      25.88
 19.57     615.01      24.80
 19.67     648.00      25.46
 19.77     665.45      25.80
 19.87     653.10      25.56
 19.97     650.00      25.50
 20.07     628.00      25.06
 20.17     693.58      26.34
 20.27     659.14      25.67
 20.37     635.46      25.21
 20.47     651.00      25.51
 20.57     655.00      25.59
 20.67     696.32      26.39
 20.77     639.00      25.28
 20.87     603.71      24.57
 20.97     674.35      25.97
 21.07     696.00      26.38
 21.17     669.07      25.87
 21.27     686.49      26.20
 21.37     604.37      24.58
 21.47     655.00      25.59
 21.57     616.89      24.84
 21.67     646.00      25.42
 21.77     636.73      25.23
 21.87     632.00      25.14
 21.97     669.00      25.87
 22.07     666.00      25.81
 22.17     637.00      25.24
 22.27     641.00      25.32
 22.37     695.76      26.38
 22.47     700.97      26.48
 22.57     616.00      24.82
 22.67     628.00      25.06
 22.77     648.00      25.46
 22.87     640.38      25.31
 22.97     618.77      24.88
 23.07     648.00      25.46
 23.17     616.00      24.82
 23.27     628.00      25.06
 23.37     662.00      25.73
 23.47     655.00      25.59
 23.57     643.67      25.37
 23.67     658.00      25.65
 23.77     682.25      26.12
 23.87     640.00      25.30
 23.97     627.00      25.04
 24.07     651.00      25.51
 24.17     724.00      26.91
 24.27     651.74      25.53
 24.37     717.00      26.78
 24.47     685.00      26.17
 24.57     618.27      24.87
 24.67     651.60      25.53
 24.77     650.23      25.50
 24.87     728.00      26.98
 24.97     748.00      27.35
 25.07     726.00      26.94
 25.17     741.78      27.24
 25.27     737.00      27.15
 25.37     732.20      27.06
 25.47     655.00      25.59
 25.57     662.00      25.73
 25.67     645.00      25.40
 25.77     694.07      26.35
 25.87     645.00      25.40
 25.97     694.00      26.34
 26.07     655.03      25.59
 26.17     700.00      26.46
 26.27     651.00      25.51
 26.37     712.71      26.70
 26.47     654.00      25.57
 26.57     687.08      26.21
 26.67     671.00      25.90
 26.77     710.00      26.65
 26.87     705.00      26.55
 26.97     680.98      26.10
 27.07     705.00      26.55
 27.17     719.00      26.81
 27.27     755.00      27.48
 27.37     762.00      27.60
 27.47     758.29      27.54
 27.57     810.00      28.46
 27.67     839.00      28.97
 27.77     916.00      30.27
 27.87    1035.00      32.17
 27.97    1391.00      37.30
 28.07    2135.93      46.22
 28.17    3382.87      58.16
 28.27    5389.00      73.41
 28.37    7827.00      88.47
 28.47    9111.00      95.45
 28.57    8866.00      94.16
 28.67    6901.00      83.07
 28.77    5001.00      70.72
 28.87    3974.00      63.04
 28.97    3981.46      63.10
 29.07    4787.00      69.19
 29.17    5205.51      72.15
 29.27    4865.80      69.76
 29.37    3824.80      61.84
 29.47    2735.00      52.30
 29.57    1894.00      43.52
 29.67    1327.39      36.43
 29.77    1103.00      33.21
 29.87     864.22      29.40
 29.97     814.83      28.55
 30.07     876.00      29.60
 30.17     797.00      28.23
 30.27     773.00      27.80
 30.37     745.00      27.29
 30.47     726.00      26.94
 30.57     743.00      27.26
 30.67     750.83      27.40
 30.77     713.85      26.72
 30.87     735.00      27.11
 30.97     785.79      28.03
 31.07     761.59      27.60
 31.17     910.00      30.17
 31.27     802.21      28.32
 31.37     754.00      27.46
 31.47     728.00      26.98
 31.57     691.99      26.31
 31.67     703.00      26.51
 31.77     692.97      26.32
 31.87     672.69      25.94
 31.97     690.00      26.27
 32.07     617.68      24.85
 32.17     631.63      25.13
 32.27     658.16      25.65
 32.37     659.41      25.68
 32.47     651.70      25.53
 32.57     696.08      26.38
 32.67     664.06      25.77
 32.77     688.00      26.23
 32.87     695.00      26.36
 32.97     667.00      25.83
 33.07     642.00      25.34
 33.17     644.00      25.38
 33.27     701.22      26.48
 33.37     698.86      26.44
 33.47     695.00      26.36
 33.57     710.00      26.65
 33.67     670.00      25.88
 33.77     732.40      27.06
 33.87     794.00      28.18
 33.97     835.00      28.90
 34.07     965.15      31.07
 34.17    1049.00      32.39
 34.27    1254.00      35.41
 34.37    1327.00      36.43
 34.47    1264.00      35.55
 34.57    1073.00      32.76
 34.67     931.00      30.51
 34.77     817.00      28.58
 34.87     788.00      28.07
 34.97     760.56      27.58
 35.07     732.00      27.06
 35.17     678.00      26.04
 35.27     709.19      26.63
 35.37     680.00      26.08
 35.47     668.00      25.85
 35.57     646.00      25.42
 35.67     621.00      24.92
 35.77     628.00      25.06
 35.87     622.37      24.95
 35.97     630.00      25.10
 36.07     652.88      25.55
 36.17     655.00      25.59
 36.27     618.00      24.86
 36.37     639.00      25.28
 36.47     614.36      24.79
 36.57     588.38      24.26
 36.67     637.00      25.24
 36.77     615.12      24.80
 36.87     600.00      24.49
 36.97     649.00      25.48
 37.07     619.00      24.88
 37.17     658.00      25.65
 37.27     688.00      26.23
 37.37     622.23      24.94
 37.47     620.24      24.90
 37.57     656.00      25.61
 37.67     655.00      25.59
 37.77     679.00      26.06
 37.87     669.66      25.88
 37.97     736.34      27.14
 38.07     697.00      26.40
 38.17     713.47      26.71
 38.27     817.00      28.58
 38.37     759.49      27.56
 38.47     799.00      28.27
 38.57     774.00      27.82
 38.67     728.00      26.98
 38.77     658.00      25.65
 38.87     668.01      25.85
 38.97     649.85      25.49
 39.07     654.54      25.58
 39.17     629.00      25.08
 39.27     616.00      24.82
 39.37     613.87      24.78
 39.47     622.00      24.94
 39.57     626.00      25.02
 39.67     585.86      24.20
 39.77     611.00      24.72
 39.87     605.00      24.60
 39.97     640.00      25.30
 40.07     573.06      23.94
 40.17     598.00      24.45
 40.27     643.01      25.36
 40.37     596.00      24.41
 40.47     651.55      25.53
 40.57     655.58      25.60
 40.67     587.00      24.23
 40.77     617.00      24.84
 40.87     642.00      25.34
 40.97     629.00      25.08
 41.07     655.02      25.59
 41.17     614.00      24.78
 41.27     636.00      25.22
 41.37     608.00      24.66
 41.47     630.00      25.10
 41.57     644.39      25.38
 41.67     616.00      24.82
 41.77     630.00      25.10
 41.87     652.38      25.54
 41.97     622.00      24.94
 42.07     607.00      24.64
 42.17     629.62      25.09
 42.27     607.00      24.64
 42.37     610.00      24.70
 42.47     663.98      25.77
 42.57     617.00      24.84
 42.67     630.00      25.10
 42.77     737.01      27.15
 42.87     683.51      26.14
 42.97     686.00      26.19
 43.07     767.00      27.69
 43.17     745.00      27.29
 43.27     739.00      27.18
 43.37     653.92      25.57
 43.47     680.00      26.08
 43.57     650.00      25.50
 43.67     663.82      25.76
 43.77     664.00      25.77
 43.87     710.00      26.65
 43.97     618.80      24.88
 44.07     639.00      25.28
 44.17     644.00      25.38
 44.27     600.74      24.51
 44.37     634.00      25.18
 44.47     630.00      25.10
 44.57     643.00      25.36
 44.67     611.03      24.72
 44.77     700.00      26.46
 44.87     626.00      25.02
 44.97     624.00      24.98
 45.07     639.26      25.28
 45.17     647.00      25.44
 45.27     613.45      24.77
 45.37     662.00      25.73
 45.47     690.00      26.27
 45.57     647.00      25.44
 45.67     579.00      24.06
 45.77     643.09      25.36
 45.87     630.00      25.10
 45.97     652.00      25.53
 46.07     650.00      25.50
 46.17     619.65      24.89
 46.27     622.00      24.94
 46.37     651.31      25.52
 46.47     625.00      25.00
 46.57     671.78      25.92
 46.67     657.00      25.63
 46.77     663.00      25.75
 46.87     616.00      24.82
 46.97     668.02      25.85
 47.07     635.00      25.20
 47.17     597.00      24.43
 47.27     670.26      25.89
 47.37     617.00      24.84
 47.47     638.00      25.26
 47.57     696.91      26.40
 47.67     622.39      24.95
 47.77     607.58      24.65
 47.87     676.68      26.01
 47.97     636.54      25.23
 48.07     700.00      26.46
 48.17     706.31      26.58
 48.27     707.00      26.59
 48.37     780.00      27.93
 48.47     720.00      26.83
 48.57     681.00      26.10
 48.67     694.00      26.34
 48.77     721.58      26.86
 48.87     643.48      25.37
 48.97     626.65      25.03
 49.07     627.68      25.05
 49.17     667.35      25.83
 49.27     713.85      26.72
 49.37     649.00      25.48
 49.47     654.73      25.59
 49.57     708.00      26.61
 49.67     712.00      26.68
 49.77     783.00      27.98
 49.87     809.00      28.44
 49.97     927.00      30.45
 50.07    1125.00      33.54
 50.17    1497.00      38.69
 50.27    1865.00      43.19
 50.37    2433.90      49.33
 50.47    3028.07      55.03
 50.57    3224.00      56.78
 50.67    3206.00      56.62
 50.77    2905.00      53.90
 50.87    2585.14      50.84
 50.97    2124.12      46.09
 51.07    1514.00      38.91
 51.17    1284.00      35.83
 51.27    1123.00      33.51
 51.37     932.72      30.54
 51.47     845.00      29.07
 51.57     823.00      28.69
 51.67     782.00      27.96
 51.77     710.00      26.65
 51.87     751.00      27.40
 51.97     759.00      27.55
 52.07     721.00      26.85
 52.17     766.00      27.68
 52.27     728.00      26.98
 52.37     681.69      26.11
 52.47     711.29      26.67
 52.57     688.00      26.23
 52.67     735.00      27.11
 52.77     755.68      27.49
 52.87     680.00      26.08
 52.97     698.94      26.44
 53.07     774.58      27.83
 53.17     784.17      28.00
 53.27     759.00      27.55
 53.37     804.00      28.35
 53.47     911.00      30.18
 53.57     940.00      30.66
 53.67     971.00      31.16
 53.77    1131.00      33.63
 53.87    1264.09      35.55
 53.97    1227.00      35.03
 54.07    1257.64      35.46
 54.17    1251.96      35.38
 54.27    1265.01      35.57
 54.37    1152.87      33.95
 54.47     974.00      31.21
 54.57     860.00      29.33
 54.67     854.74      29.24
 54.77     745.15      27.30
 54.87     770.00      27.75
 54.97     687.72      26.22
 55.07     745.98      27.31
 55.17     686.00      26.19
 55.27     675.47      25.99
 55.37     724.00      26.91
 55.47     767.00      27.69
 55.57     708.61      26.62
 55.67     731.00      27.04
 55.77     667.61      25.84
 55.87     733.00      27.07
 55.97     732.00      27.06
 56.07     695.00      26.36
 56.17     752.00      27.42
 56.27     768.00      27.71
 56.37     820.00      28.64
 56.47     872.25      29.53
 56.57     902.00      30.03
 56.67    1047.10      32.36
 56.77    1137.00      33.72
 56.87    1454.00      38.13
 56.97    1716.00      41.42
 57.07    2075.00      45.55
 57.17    2301.98      47.98
 57.27    2638.00      51.36
 57.37    2811.00      53.02
 57.47    2716.00      52.12
 57.57    2500.00      50.00
 57.67    2186.93      46.76
 57.77    1836.52      42.85
 57.87    1532.00      39.14
 57.97    1311.00      36.21
 58.07    1099.00      33.15
 58.17     991.00      31.48
 58.27     933.00      30.55
 58.37     863.00      29.38
 58.47     781.00      27.95
 58.57     874.00      29.56
 58.67     880.00      29.66
 58.77     882.00      29.70
 58.87    1035.05      32.17
 58.97    1018.00      31.91
 59.07    1091.59      33.04
 59.17    1175.90      34.29
 59.27    1283.00      35.82
 59.37    1427.77      37.79
 59.47    1332.41      36.50
 59.57    1454.04      38.13
 59.67    1316.10      36.28
 59.77    1346.00      36.69
 59.87    1306.00      36.14
 59.97    1280.00      35.78
 60.07    1343.00      36.65
 60.17    1187.93      34.47
 60.27    1344.00      36.66
 60.37    1435.00      37.88
 60.47    1561.00      39.51
 60.57    1567.00      39.59
 60.67    1629.18      40.36
 60.77    1640.00      40.50
 60.87    1654.59      40.68
 60.97    1492.71      38.64
 61.07    1338.00      36.58
 61.17    1243.00      35.26
 61.27    1099.00      33.15
 61.37    1044.57      32.32
 61.47     928.00      30.46
 61.57     855.07      29.24
 61.67     804.41      28.36
 61.77     800.00      28.28
 61.87     823.62      28.70
 61.97    1001.35      31.64
 62.07     984.03      31.37
 62.17    1183.51      34.40
 62.27    1302.00      36.08
 62.37    1510.00      38.86
 62.47    1580.82      39.76
 62.57    1831.00      42.79
 62.67    1877.00      43.32
 62.77    1865.00      43.19
 62.87    1798.00      42.40
 62.97    1674.00      40.91
 63.07    1451.00      38.09
 63.17    1288.00      35.89
 63.27    1160.00      34.06
 63.37     956.00      30.92
 63.47     954.00      30.89
 63.57     823.00      28.69
 63.67     797.00      28.23
 63.77     790.00      28.11
 63.87     765.00      27.66
 63.97     741.00      27.22
 64.07     824.00      28.71
 64.17     788.00      28.07
 64.27     754.00      27.46
 64.37     834.00      28.88
 64.47     816.58      28.58
 64.57     973.09      31.19
 64.67    1018.05      31.91
 64.77    1119.48      33.46
 64.87    1243.00      35.26
 64.97    1373.00      37.05
 65.07    1442.00      37.97
 65.17    1551.25      39.39
 65.27    1619.35      40.24
 65.37    1761.00      41.96
 65.47    1650.00      40.62
 65.57    1506.00      38.81
 65.67    1380.00      37.15
 65.77    1261.57      35.52
 65.87    1137.37      33.72
 65.97    1043.00      32.30
 66.07    1045.52      32.33
 66.17     897.00      29.95
 66.27     821.63      28.66
 66.37     836.69      28.93
 66.47     773.00      27.80
 66.57     725.98      26.94
 66.67     737.39      27.16
 66.77     720.00      26.83
 66.87     738.00      27.17
 66.97     708.00      26.61
 67.07     713.00      26.70
 67.17     793.53      28.17
 67.27     763.72      27.64
 67.37     818.36      28.61
 67.47     794.00      28.18
 67.57     809.00      28.44
 67.67     831.00      28.83
 67.77     895.19      29.92
 67.87    1012.94      31.83
 67.97    1185.66      34.43
 68.07    1252.00      35.38
 68.17    1484.00      38.52
 68.27    1715.07      41.41
 68.37    1937.20      44.01
 68.47    2157.40      46.45
 68.57    2576.00      50.75
 68.67    2497.00      49.97
 68.77    2576.00      50.75
 68.87    2442.75      49.42
 68.97    2261.33      47.55
 69.07    2123.00      46.08
 69.17    1855.73      43.08
 69.27    1625.00      40.31
 69.37    1414.21      37.61
 69.47    1318.00      36.30
 69.57    1114.00      33.38
 69.67    1030.00      32.09
 69.77     967.00      31.10
 69.87     899.00      29.98
 69.97     847.00      29.10
 70.07     797.00      28.23
 70.17     764.89      27.66
 70.27     697.60      26.41
 70.37     699.75      26.45
 70.47     757.00      27.51
 70.57     788.00      28.07
 70.67     719.77      26.83
 70.77     717.16      26.78
 70.87     751.00      27.40
 70.97     773.51      27.81
 71.07     703.12      26.52
 71.17     724.00      26.91
 71.27     832.00      28.84
 71.37     739.00      27.18
 71.47     730.00      27.02
 71.57     777.00      27.87
 71.67     887.16      29.79
 71.77     872.95      29.55
 71.87     915.00      30.25
 71.97    1126.00      33.56
 72.07    1284.00      35.83
 72.17    1275.16      35.71
 72.27    1439.00      37.93
 72.37    1672.00      40.89
 72.47    1752.26      41.86
 72.57    1986.00      44.56
 72.67    2081.56      45.62
 72.77    2029.00      45.04
 72.87    1894.00      43.52
 72.97    1903.40      43.63
 73.07    1635.16      40.44
 73.17    1500.19      38.73
 73.27    1316.33      36.28
 73.37    1208.00      34.76
 73.47    1161.18      34.08
 73.57    1012.00      31.81
 73.67     899.00      29.98
 73.77     837.00      28.93
 73.87     838.00      28.95
 73.97     750.50      27.40
 74.07     745.82      27.31
 74.17     693.85      26.34
 74.27     745.86      27.31
 74.37     686.00      26.19
 74.47     744.00      27.28
 74.57     666.00      25.81
 74.67     694.08      26.35
 74.77     649.53      25.49
 74.87     725.00      26.93
 74.97     671.00      25.90
 75.07     706.00      26.57
 75.17     691.00      26.29
 75.27     756.63      27.51
 75.37     751.00      27.40
 75.47     687.67      26.22
 75.57     694.44      26.35
 75.67     699.00      26.44
 75.77     730.00      27.02
 75.87     705.99      26.57
 75.97     753.35      27.45
 76.07     656.30      25.62
 76.17     718.00      26.80
 76.27     684.00      26.15
 76.37     734.00      27.09
 76.47     811.88      28.49
 76.57     748.65      27.36
 76.67     849.01      29.14
 76.77     940.30      30.66
 76.87     905.00      30.08
 76.97     894.00      29.90
 77.07    1068.00      32.68
 77.17    1026.00      32.03
 77.27    1042.00      32.28
 77.37    1091.00      33.03
 77.47    1076.00      32.80
 77.57     980.00      31.30
 77.67     959.60      30.98
 77.77     918.00      30.30
 77.87     891.00      29.85
 77.97     789.18      28.09
 78.07     808.00      28.43
 78.17     750.00      27.39
 78.27     752.00      27.42
 78.37     700.00      26.46
 78.47     685.13      26.17
 78.57     659.29      25.68
 78.67     654.00      25.57
 78.77     713.00      26.70
 78.87     710.00      26.65
 78.97     696.00      26.38
 79.07     656.00      25.61
 79.17     673.00      25.94
 79.27     684.74      26.17
 79.37     611.08      24.72
 79.47     643.00      25.36
 79.57     689.89      26.27
 79.67     625.00      25.00
 79.77     680.00      26.08
 79.87     659.00      25.67
 79.97     661.72      25.72
 80.07     631.89      25.14
 80.17     684.52      26.16
 80.27     701.00      26.48
 80.37     668.31      25.85
 80.47     724.00      26.91
 80.57     735.00      27.11
 80.67     743.00      27.26
 80.77     783.00      27.98
 80.87     872.00      29.53
 80.97     899.00      29.98
 81.07    1027.28      32.05
 81.17    1088.00      32.98
 81.27    1210.00      34.79
 81.37    1198.05      34.61
 81.47    1275.57      35.72
 81.57    1449.00      38.07
 81.67    1499.36      38.72
 81.77    1568.00      39.60
 81.87    1549.57      39.36
 81.97    1596.00      39.95
 82.07    1519.73      38.98
 82.17    1497.00      38.69
 82.27    1410.27      37.55
 82.37    1309.00      36.18
 82.47    1245.24      35.29
 82.57    1209.00      34.77
 82.67    1015.54      31.87
 82.77    1054.00      32.47
 82.87     977.00      31.26
 82.97     934.00      30.56
 83.07     839.00      28.97
 83.17     780.99      27.95
 83.27     811.91      28.49
 83.37     720.76      26.85
 83.47     731.00      27.04
 83.57     653.00      25.55
 83.67     680.00      26.08
 83.77     642.00      25.34
 83.87     713.17      26.71
 83.97     645.00      25.40
 84.07     702.00      26.50
 84.17     734.77      27.11
 84.27     659.00      25.67
 84.37     682.00      26.12
 84.47     765.47      27.67
 84.57     744.37      27.28
 84.67     741.14      27.22
 84.77     677.21      26.02
 84.87     671.00      25.90
 84.97     648.00      25.46
 85.07     707.34      26.60
 85.17     635.00      25.20
 85.27     642.00      25.34
 85.37     655.00      25.59
 85.47     695.52      26.37
 85.57     647.00      25.44
 85.67     713.19      26.71
 85.77     601.00      24.52
 85.87     695.80      26.38
 85.97     674.00      25.96
 86.07     622.00      24.94
 86.17     597.95      24.45
 86.27     676.68      26.01
 86.37     658.00      25.65
 86.47     637.00      25.24
 86.57     706.62      26.58
 86.67     713.00      26.70
 86.77     657.00      25.63
 86.87     682.00      26.12
 86.97     673.00      25.94
 87.07     662.00      25.73
 87.17     654.18      25.58
 87.27     729.00      27.00
 87.37     717.00      26.78
 87.47     755.00      27.48
 87.57     742.72      27.25
 87.67     762.40      27.61
 87.77     695.56      26.37
 87.87     722.00      26.87
 87.97     744.00      27.28
 88.07     756.00      27.50
 88.17     751.40      27.41
 88.27     736.00      27.13
 88.37     757.00      27.51
 88.47     726.58      26.96
 88.57     753.00      27.44
 88.67     766.00      27.68
 88.77     743.00      27.26
 88.87     734.00      27.09
 88.97     707.00      26.59
 89.07     691.00      26.29
 89.17     706.00      26.57
 89.27     642.22      25.34
 89.37     626.00      25.02
 89.47     644.00      25.38
 89.57     681.00      26.10
 89.67     691.80      26.30
 89.77     699.00      26.44
 89.87     715.82      26.75
 89.97     646.37      25.42
 90.07     665.89      25.80
 90.17     738.00      27.17
 90.27     784.00      28.00
 90.37     706.00      26.57
 90.47     749.65      27.38
 90.57     653.00      25.55
 90.67     707.37      26.60
 90.77     628.68      25.07
 90.87     643.00      25.36
 90.97     643.00      25.36
 91.07     684.00      26.15
 91.17     641.00      25.32
 91.27     630.00      25.10
 91.37     628.00      25.06
 91.47     674.67      25.97
 91.57     588.37      24.26
 91.67     583.20      24.15
 91.77     608.00      24.66
 91.87     601.47      24.52
 91.97     584.72      24.18
 92.07     584.00      24.17
 92.17     635.66      25.21
 92.27     591.50      24.32
 92.37     609.00      24.68
 92.47     631.00      25.12
 92.57     583.00      24.15
 92.67     637.00      25.24
 92.77     658.00      25.65
 92.87     619.80      24.90
 92.97     633.00      25.16
 93.07     682.00      26.12
 93.17     678.00      26.04
 93.27     680.76      26.09
 93.37     735.00      27.11
 93.47     719.00      26.81
 93.57     704.10      26.53
 93.67     767.00      27.69
 93.77     740.00      27.20
 93.87     817.00      28.58
 93.97     796.00      28.21
 94.07     880.15      29.67
 94.17     782.00      27.96
 94.27     845.00      29.07
 94.37     862.00      29.36
 94.47     842.54      29.03
 94.57     928.00      30.46
 94.67     895.00      29.92
 94.77     954.00      30.89
 94.87     980.00      31.30
 94.97    1008.00      31.75
 95.07     974.81      31.22
 95.17    1036.00      32.19
 95.27    1040.00      32.25
 95.37    1059.00      32.54
 95.47    1064.03      32.62
 95.57    1127.00      33.57
 95.67    1147.00      33.87
 95.77    1104.00      33.23
 95.87    1104.00      33.23
 95.97    1024.29      32.00
 96.07    1062.47      32.60
 96.17     952.92      30.87
 96.27    1002.00      31.65
 96.37     938.10      30.63
 96.47     948.00      30.79
 96.57     952.00      30.85
 96.67     835.00      28.90
 96.77     882.00      29.70
 96.87     830.00      28.81
 96.97     818.00      28.60
 97.07     896.91      29.95
 97.17     901.00      30.02
 97.27     934.00      30.56
 97.37     995.00      31.54
 97.47     996.00      31.56
 97.57    1040.00      32.25
 97.67    1111.00      33.33
 97.77    1168.06      34.18
 97.87    1240.00      35.21
 97.97    1257.14      35.46
 98.07    1286.00      35.86
 98.17    1505.00      38.79
 98.27    1546.00      39.32
 98.37    1603.48      40.04
 98.47    1621.14      40.26
 98.57    1700.13      41.23
 98.67    1703.00      41.27
 98.77    1650.39      40.62
 98.87    1619.17      40.24
 98.97    1571.85      39.65
 99.07    1518.00      38.96
 99.17    1341.30      36.62
 99.27    1291.00      35.93
 99.37    1271.00      35.65
 99.47    1239.02      35.20
 99.57    1206.00      34.73
 99.67    1121.00      33.48
 99.77    1069.39      32.70
 99.87    1081.58      32.89
 99.97    1057.00      32.51
100.07    1040.00      32.25
100.17    1010.02      31.78
100.27    1033.33      32.15
100.37    1143.00      33.81
100.47    1228.10      35.04
100.57    1268.67      35.62
100.67    1287.00      35.87
100.77    1424.00      37.74
100.87    1551.00      39.38
100.97    1501.65      38.75
101.07    1683.00      41.02
101.17    1759.00      41.94
101.27    1760.44      41.96
101.37    1916.00      43.77
101.47    1978.00      44.47
101.57    2069.00      45.49
101.67    2107.99      45.91
101.77    2050.00      45.28
101.87    2209.70      47.01
101.97    2150.27      46.37
102.07    2163.17      46.51
102.17    2035.00      45.11
102.27    2074.00      45.54
102.37    2021.00      44.96
102.47    1993.00      44.64
102.57    1871.39      43.26
102.67    1812.00      42.57
102.77    1706.35      41.31
102.87    1650.00      40.62
102.97    1669.91      40.86
103.07    1506.85      38.82
103.17    1504.93      38.79
103.27    1388.63      37.26
103.37    1353.21      36.79
103.47    1466.46      38.29
103.57    1262.00      35.52
103.67    1266.38      35.59
103.77    1266.00      35.58
103.87    1307.03      36.15
103.97    1264.00      35.55
104.07    1188.00      34.47
104.17    1170.00      34.21
104.27    1160.36      34.06
104.37     993.00      31.51
104.47    1011.00      31.80
104.57    1038.00      32.22
104.67     941.28      30.68
104.77     928.86      30.48
104.87     848.00      29.12
104.97     809.14      28.45
105.07     785.00      28.02
105.17     758.00      27.53
105.27     735.00      27.11
105.37     702.00      26.50
105.47     773.00      27.80
105.57     663.42      25.76
105.67     716.56      26.77
105.77     675.00      25.98
105.87     684.00      26.15
105.97     692.00      26.31
106.07     698.00      26.42
106.17     648.00      25.46
106.27     662.00      25.73
106.37     608.59      24.67
106.47     688.00      26.23
106.57     595.43      24.40
106.67     677.00      26.02
106.77     692.95      26.32
106.87     621.84      24.94
106.97     675.00      25.98
107.07     669.00      25.87
107.17     722.01      26.87
107.27     710.00      26.65
107.37     676.00      26.00
107.47     754.00      27.46
107.57     686.00      26.19
107.67     776.37      27.86
107.77     733.30      27.08
107.87     739.00      27.18
107.97     806.41      28.40
108.07     765.00      27.66
108.17     808.00      28.43
108.27     752.00      27.42
108.37     824.00      28.71
108.47     870.97      29.51
108.57     793.00      28.16
108.67     824.00      28.71
108.77     869.00      29.48
108.87     794.00      28.18
108.97     771.10      27.77
109.07     771.00      27.77
109.17     766.00      27.68
109.27     739.00      27.18
109.37     775.00      27.84
109.47     732.00      27.06
109.57     741.00      27.22
109.67     815.00      28.55
109.77     770.00      27.75
109.87     781.00      27.95
109.97     806.00      28.39
110.07     804.57      28.36
110.17     819.00      28.62
110.27     849.00      29.14
110.37     828.00      28.77
110.47     750.64      27.40
110.57     804.00      28.35
110.67     788.00      28.07
110.77     782.00      27.96
110.87     785.00      28.02
110.97     752.00      27.42
111.07     780.00      27.93
111.17     741.00      27.22
111.27     690.89      26.28
111.37     692.00      26.31
111.47     718.00      26.80
111.57     702.00      26.50
111.67     642.08      25.34
111.77     685.00      26.17
111.87     656.00      25.61
111.97     669.34      25.87
112.07     628.00      25.06
112.17     672.00      25.92
112.27     642.00      25.34
112.37     668.00      25.85
112.47     627.63      25.05
112.57     626.00      25.02
112.67     626.00      25.02
112.77     665.00      25.79
112.87     615.00      24.80
112.97     631.00      25.12
113.07     644.13      25.38
113.17     643.00      25.36
113.27     651.00      25.51
113.37     683.00      26.13
113.47     652.44      25.54
113.57     706.08      26.57
113.67     668.00      25.85
113.77     712.43      26.69
113.87     662.00      25.73
113.97     628.00      25.06
114.07     697.00      26.40
114.17     689.00      26.25
114.27     660.00      25.69
114.37     731.53      27.05
114.47     704.35      26.54
114.57     750.00      27.39
114.67     704.00      26.53
114.77     705.00      26.55
114.87     755.00      27.48
114.97     797.00      28.23
115.07     783.86      28.00
115.17     903.55      30.06
115.27     954.95      30.90
115.37     952.88      30.87
115.47    1019.00      31.92
115.57    1144.00      33.82
115.67    1192.00      34.53
115.77    1344.00      36.66
115.87    1538.93      39.23
115.97    1652.00      40.64
116.07    1713.56      41.40
116.17    1993.51      44.65
116.27    2169.19      46.57
116.37    2584.00      50.83
116.47    2741.69      52.36
116.57    3100.00      55.68
116.67    3444.00      58.69
116.77    3857.79      62.11
116.87    4118.00      64.17
116.97    4504.72      67.12
117.07    4889.00      69.92
117.17    5268.00      72.58
117.27    5542.85      74.45
117.37    6111.00      78.17
117.47    6553.71      80.95
117.57    6694.00      81.82
117.67    7183.00      84.75
117.77    7068.00      84.07
117.87    7525.00      86.75
117.97    7764.00      88.11
118.07    7666.00      87.56
118.17    7696.72      87.73
118.27    7675.00      87.61
118.37    7520.47      86.72
118.47    7054.00      83.99
118.57    6858.40      82.82
118.67    6260.00      79.12
118.77    6111.00      78.17
118.87    5803.00      76.18
118.97    5477.00      74.01
119.07    5136.60      71.67
119.17    4756.00      68.96
119.27    4419.00      66.48
119.37    3967.19      62.99
119.47    3817.00      61.78
119.57    3361.00      57.97
119.67    3112.95      55.79
119.77    2784.00      52.76
119.87    2540.00      50.40
119.97    2348.00      48.46
120.07    2047.00      45.24
120.17    1903.00      43.62
120.27    1792.00      42.33
120.37    1541.18      39.26
120.47    1387.79      37.25
120.57    1363.28      36.92
120.67    1250.41      35.36
120.77    1112.24      33.35
120.87    1028.38      32.07
120.97    1013.85      31.84
121.07    1004.44      31.69
121.17     982.00      31.34
121.27     899.00      29.98
121.37     865.00      29.41
121.47     868.00      29.46
121.57     813.02      28.51
121.67     803.00      28.34
121.77     777.00      27.87
121.87     776.00      27.86
121.97     727.00      26.96
122.07     737.00      27.15
122.17     727.00      26.96
122.27     762.99      27.62
122.37     797.29      28.24
122.47     741.00      27.22
122.57     709.00      26.63
122.67     719.00      26.81
122.77     721.00      26.85
122.87     720.00      26.83
122.97     681.00      26.10
123.07     730.60      27.03
123.17     714.00      26.72
123.27     739.00      27.18
123.37     774.85      27.84
123.47     791.80      28.14
123.57     759.56      27.56
123.67     765.00      27.66
123.77     747.00      27.33
123.87     780.00      27.93
123.97     791.16      28.13
124.07     832.26      28.85
124.17     782.00      27.96
124.27     778.35      27.90
124.37     818.00      28.60
124.47     805.29      28.38
124.57     783.48      27.99
124.67     845.00      29.07
124.77     845.00      29.07
124.87     870.00      29.50
124.97     740.25      27.21
