  9.97     729.30      27.01
 10.07     776.84      27.87
 10.17     747.00      27.33
 10.27     751.73      27.42
 10.37     814.00      28.53
 10.47     759.00      27.55
 10.57     757.00      27.51
 10.67     723.69      26.90
 10.77     810.00      28.46
 10.87     714.00      26.72
 10.97     800.00      28.28
 11.07     769.00      27.73
 11.17     735.00      27.11
 11.27     745.00      27.29
 11.37     732.92      27.07
 11.47     771.00      27.77
 11.57     771.00      27.77
 11.67     815.00      28.55
 11.77     806.00      28.39
 11.87     850.00      29.15
 11.97     809.00      28.44
 12.07     848.00      29.12
 12.17     837.00      28.93
 12.27     851.02      29.17
 12.37     850.00      29.15
 12.47     855.26      29.24
 12.57     766.00      27.68
 12.67     790.00      28.11
 12.77     774.40      27.83
 12.87     739.00      27.18
 12.97     719.00      26.81
 13.07     704.00      26.53
 13.17     750.40      27.39
 13.27     715.00      26.74
 13.37     732.00      27.06
 13.47     681.30      26.10
 13.57     691.42      26.29
 13.67     775.29      27.84
 13.77     704.63      26.54
 13.87     672.00      25.92
 13.97     749.00      27.37
 14.07     710.00      26.65
 14.17     706.89      26.59
 14.27     684.00      26.15
 14.37     737.00      27.15
 14.47     714.00      26.72
 14.57     738.00      27.17
 14.67     714.26      26.73
 14.77     722.00      26.87
 14.87     724.85      26.92
 14.97     686.00      26.19
 15.07     695.02      26.36
 15.17     706.02      26.57
 15.27     682.00      26.12
 15.37     723.00      26.89
 15.47     690.00      26.27
 15.57     687.00      26.21
 15.67     716.12      26.76
 15.77     670.29      25.89
 15.87     676.00      26.00
 15.97     660.51      25.70
 16.07     708.00      26.61
 16.17     746.48      27.32
 16.27     672.00      25.92
 16.37     744.13      27.28
 16.47     746.33      27.32
 16.57     726.06      26.95
 16.67     732.84      27.07
 16.77     647.60      25.45
 16.87     701.00      26.48
 16.97     720.47      26.84
 17.07     704.00      26.53
 17.17     653.00      25.55
 17.27     638.05      25.26
 17.37     698.00      26.42
 17.47     670.00      25.88
 17.57     699.00      26.44
 17.67     672.00      25.92
 17.77     691.00      26.29
 17.87     704.00      26.53
 17.97     687.38      26.22
 18.07     667.00      25.83
 18.17     689.00      26.25
 18.27     641.00      25.32
 18.37     663.00      25.75
 18.47     682.00      26.12
 18.57     699.00      26.44
 18.67     626.00      25.02
 18.77     721.98      26.87
 18.87     688.00      26.23
 18.97     643.79      25.37
 19.07     724.30      26.91
 19.17     658.00      25.65
 19.27     671.00      25.90
 19.37     681.54      26.11
 19.47     666.00      25.81
 19.57     634.00      25.18
 19.67     647.00      25.44
 19.77     664.00      25.77
 19.87     688.00      26.23
 19.97     657.50      25.64
 20.07     651.00      25.51
 20.17     666.00      25.81
 20.27     638.25      25.26
 20.37     683.00      26.13
 20.47     711.99      26.68
 20.57     672.00      25.92
 20.67     647.33      25.44
 20.77     674.00      25.96
 20.87     655.00      25.59
 20.97     699.17      26.44
 21.07     642.00      25.34
 21.17     679.31      26.06
 21.27     659.00      25.67
 21.37     667.48      25.84
 21.47     710.67      26.66
 21.57     684.00      26.15
 21.67     689.00      26.25
 21.77     670.00      25.88
 21.87     715.75      26.75
 21.97     611.44      24.73
 22.07     666.39      25.81
 22.17     705.27      26.56
 22.27     616.00      24.82
 22.37     634.00      25.18
 22.47     681.01      26.10
 22.57     634.80      25.20
 22.67     632.34      25.15
 22.77     681.84      26.11
 22.87     701.00      26.48
 22.97     662.00      25.73
 23.07     639.00      25.28
 23.17     706.02      26.57
 23.27     668.05      25.85
 23.37     674.00      25.96
 23.47     699.00      26.44
 23.57     630.77      25.12
 23.67     677.00      26.02
 23.77     674.00      25.96
 23.87     616.00      24.82
 23.97     683.00      26.13
 24.07     613.30      24.76
 24.17     677.00      26.02
 24.27     637.57      25.25
 24.37     650.37      25.50
 24.47     681.00      26.10
 24.57     724.00      26.91
 24.67     686.00      26.19
 24.77     695.59      26.37
 24.87     739.00      27.18
 24.97     754.00      27.46
 25.07     729.00      27.00
 25.17     731.00      27.04
 25.27     739.00      27.18
 25.37     731.00      27.04
 25.47     711.00      26.66
 25.57     688.00      26.23
 25.67     661.49      25.72
 25.77     683.00      26.13
 25.87     663.00      25.75
 25.97     697.78      26.42
 26.07     648.00      25.46
 26.17     683.68      26.15
 26.27     704.00      26.53
 26.37     663.25      25.75
 26.47     764.00      27.64
 26.57     640.00      25.30
 26.67     684.00      26.15
 26.77     690.00      26.27
 26.87     682.11      26.12
 26.97     744.49      27.29
 27.07     692.00      26.31
 27.17     732.00      27.06
 27.27     759.28      27.56
 27.37     764.66      27.65
 27.47     830.00      28.81
 27.57     863.47      29.38
 27.67     898.00      29.97
 27.77     977.00      31.26
 27.87    1138.48      33.74
 27.97    1427.00      37.78
 28.07    2073.53      45.54
 28.17    3323.00      57.65
 28.27    5428.00      73.67
 28.37    7943.91      89.13
 28.47    9431.00      97.11
 28.57    9082.00      95.30
 28.67    6907.06      83.11
 28.77    4969.24      70.49
 28.87    4292.00      65.51
 28.97    4201.00      64.82
 29.07    4961.62      70.44
 29.17    5355.00      73.18
 29.27    5032.00      70.94
 29.37    4030.00      63.48
 29.47    2798.00      52.90
 29.57    1971.00      44.40
 29.67    1314.00      36.25
 29.77    1212.00      34.81
 29.87     973.17      31.20
 29.97     930.00      30.50
 30.07     888.68      29.81
 30.17     802.00      28.32
 30.27     831.00      28.83
 30.37     756.00      27.50
 30.47     787.00      28.05
 30.57     766.04      27.68
 30.67     746.00      27.31
 30.77     778.00      27.89
 30.87     784.00      28.00
 30.97     765.00      27.66
 31.07     843.00      29.03
 31.17     829.00      28.79
 31.27     810.74      28.47
 31.37     809.00      28.44
 31.47     771.93      27.78
 31.57     672.36      25.93
 31.67     676.00      26.00
 31.77     717.00      26.78
 31.87     723.00      26.89
 31.97     701.00      26.48
 32.07     685.80      26.19
 32.17     670.95      25.90
 32.27     663.00      25.75
 32.37     699.00      26.44
 32.47     628.00      25.06
 32.57     647.67      25.45
 32.67     643.29      25.36
 32.77     678.78      26.05
 32.87     641.99      25.34
 32.97     636.00      25.22
 33.07     673.00      25.94
 33.17     652.00      25.53
 33.27     646.00      25.42
 33.37     689.00      26.25
 33.47     700.00      26.46
 33.57     690.00      26.27
 33.67     689.24      26.25
 33.77     750.00      27.39
 33.87     787.00      28.05
 33.97     859.00      29.31
 34.07    1018.00      31.91
 34.17    1119.09      33.45
 34.27    1314.00      36.25
 34.37    1318.00      36.30
 34.47    1309.00      36.18
 34.57    1198.91      34.63
 34.67    1010.00      31.78
 34.77     836.00      28.91
 34.87     780.90      27.94
 34.97     743.00      27.26
 35.07     708.00      26.61
 35.17     727.00      26.96
 35.27     705.05      26.55
 35.37     640.43      25.31
 35.47     717.00      26.78
 35.57     625.21      25.00
 35.67     668.00      25.85
 35.77     668.00      25.85
 35.87     684.50      26.16
 35.97     648.18      25.46
 36.07     655.00      25.59
 36.17     625.00      25.00
 36.27     639.00      25.28
 36.37     651.00      25.51
 36.47     602.34      24.54
 36.57     651.46      25.52
 36.67     637.00      25.24
 36.77     619.00      24.88
 36.87     671.00      25.90
 36.97     647.00      25.44
 37.07     681.60      26.11
 37.17     659.00      25.67
 37.27     631.00      25.12
 37.37     648.00      25.46
 37.47     614.82      24.80
 37.57     660.00      25.69
 37.67     688.00      26.23
 37.77     671.00      25.90
 37.87     672.00      25.92
 37.97     718.00      26.80
 38.07     793.64      28.17
 38.17     776.00      27.86
 38.27     709.00      26.63
 38.37     791.21      28.13
 38.47     788.00      28.07
 38.57     776.00      27.86
 38.67     780.00      27.93
 38.77     731.00      27.04
 38.87     635.00      25.20
 38.97     630.01      25.10
 39.07     661.00      25.71
 39.17     597.00      24.43
 39.27     623.00      24.96
 39.37     613.00      24.76
 39.47     663.04      25.75
 39.57     610.00      24.70
 39.67     654.00      25.57
 39.77     602.23      24.54
 39.87     624.00      24.98
 39.97     638.00      25.26
 40.07     624.00      24.98
 40.17     561.00      23.69
 40.27     619.00      24.88
 40.37     586.83      24.22
 40.47     609.00      24.68
 40.57     652.52      25.54
 40.67     645.00      25.40
 40.77     610.00      24.70
 40.87     599.00      24.47
 40.97     630.00      25.10
 41.07     630.00      25.10
 41.17     665.49      25.80
 41.27     648.83      25.47
 41.37     604.00      24.58
 41.47     632.00      25.14
 41.57     621.00      24.92
 41.67     612.00      24.74
 41.77     618.00      24.86
 41.87     659.00      25.67
 41.97     585.00      24.19
 42.07     628.74      25.07
 42.17     642.00      25.34
 42.27     608.00      24.66
 42.37     684.96      26.17
 42.47     589.00      24.27
 42.57     675.34      25.99
 42.67     647.00      25.44
 42.77     659.05      25.67
 42.87     690.00      26.27
 42.97     737.00      27.15
 43.07     743.96      27.28
 43.17     733.00      27.07
 43.27     733.00      27.07
 43.37     714.00      26.72
 43.47     710.00      26.65
 43.57     703.76      26.53
 43.67     694.39      26.35
 43.77     694.91      26.36
 43.87     643.00      25.36
 43.97     668.00      25.85
 44.07     596.82      24.43
 44.17     616.15      24.82
 44.27     647.55      25.45
 44.37     589.00      24.27
 44.47     643.00      25.36
 44.57     664.00      25.77
 44.67     621.00      24.92
 44.77     588.00      24.25
 44.87     617.99      24.86
 44.97     654.00      25.57
 45.07     666.00      25.81
 45.17     667.00      25.83
 45.27     652.00      25.53
 45.37     616.66      24.83
 45.47     594.59      24.38
 45.57     685.00      26.17
 45.67     628.00      25.06
 45.77     621.56      24.93
 45.87     587.09      24.23
 45.97     644.00      25.38
 46.07     599.13      24.48
 46.17     648.00      25.46
 46.27     677.84      26.04
 46.37     659.00      25.67
 46.47     631.94      25.14
 46.57     606.00      24.62
 46.67     609.61      24.69
 46.77     666.00      25.81
 46.87     663.00      25.75
 46.97     613.00      24.76
 47.07     623.00      24.96
 47.17     623.00      24.96
 47.27     643.00      25.36
 47.37     627.03      25.04
 47.47     648.00      25.46
 47.57     666.00      25.81
 47.67     663.00      25.75
 47.77     655.00      25.59
 47.87     637.00      25.24
 47.97     712.00      26.68
 48.07     710.00      26.65
 48.17     719.00      26.81
 48.27     701.68      26.49
 48.37     763.34      27.63
 48.47     740.00      27.20
 48.57     687.04      26.21
 48.67     719.56      26.82
 48.77     677.00      26.02
 48.87     671.00      25.90
 48.97     706.00      26.57
 49.07     645.00      25.40
 49.17     675.00      25.98
 49.27     700.90      26.47
 49.37     643.95      25.38
 49.47     666.80      25.82
 49.57     671.61      25.92
 49.67     743.49      27.27
 49.77     793.00      28.16
 49.87     849.18      29.14
 49.97     899.00      29.98
 50.07    1226.91      35.03
 50.17    1574.45      39.68
 50.27    1883.15      43.40
 50.37    2401.00      49.00
 50.47    2851.00      53.39
 50.57    3258.00      57.08
 50.67    3225.00      56.79
 50.77    3128.00      55.93
 50.87    2636.00      51.34
 50.97    2148.00      46.35
 51.07    1641.00      40.51
 51.17    1303.00      36.10
 51.27    1007.19      31.74
 51.37     938.00      30.63
 51.47     885.54      29.76
 51.57     844.76      29.06
 51.67     851.00      29.17
 51.77     774.91      27.84
 51.87     734.00      27.09
 51.97     768.00      27.71
 52.07     777.00      27.87
 52.17     726.16      26.95
 52.27     725.00      26.93
 52.37     678.25      26.04
 52.47     698.00      26.42
 52.57     715.00      26.74
 52.67     714.00      26.72
 52.77     723.00      26.89
 52.87     744.00      27.28
 52.97     697.00      26.40
 53.07     705.23      26.56
 53.17     754.55      27.47
 53.27     819.00      28.62
 53.37     854.42      29.23
 53.47     852.00      29.19
 53.57     914.32      30.24
 53.67     984.00      31.37
 53.77    1125.90      33.55
 53.87    1249.00      35.34
 53.97    1325.00      36.40
 54.07    1344.00      36.66
 54.17    1363.25      36.92
 54.27    1213.00      34.83
 54.37    1161.00      34.07
 54.47    1011.00      31.80
 54.57     903.87      30.06
 54.67     848.00      29.12
 54.77     814.77      28.54
 54.87     808.24      28.43
 54.97     718.72      26.81
 55.07     699.00      26.44
 55.17     739.00      27.18
 55.27     687.40      26.22
 55.37     691.50      26.30
 55.47     727.31      26.97
 55.57     702.00      26.50
 55.67     699.00      26.44
 55.77     746.00      27.31
 55.87     719.95      26.83
 55.97     690.00      26.27
 56.07     714.00      26.72
 56.17     702.00      26.50
 56.27     724.99      26.93
 56.37     833.53      28.87
 56.47     818.00      28.60
 56.57     915.28      30.25
 56.67    1007.00      31.73
 56.77    1113.00      33.36
 56.87    1337.00      36.57
 56.97    1675.00      40.93
 57.07    2042.00      45.19
 57.17    2322.00      48.19
 57.27    2717.00      52.12
 57.37    2825.00      53.15
 57.47    2729.44      52.24
 57.57    2490.05      49.90
 57.67    2278.00      47.73
 57.77    1950.24      44.16
 57.87    1585.67      39.82
 57.97    1304.89      36.12
 58.07    1202.77      34.68
 58.17     995.00      31.54
 58.27     922.00      30.36
 58.37     875.00      29.58
 58.47     891.00      29.85
 58.57     858.52      29.30
 58.67     862.24      29.36
 58.77     926.00      30.43
 58.87     971.67      31.17
 58.97    1109.52      33.31
 59.07    1081.11      32.88
 59.17    1246.00      35.30
 59.27    1276.81      35.73
 59.37    1357.90      36.85
 59.47    1285.00      35.85
 59.57    1440.88      37.96
 59.67    1364.50      36.94
 59.77    1357.44      36.84
 59.87    1299.00      36.04
 59.97    1320.86      36.34
 60.07    1240.43      35.22
 60.17    1350.00      36.74
 60.27    1376.00      37.09
 60.37    1445.16      38.02
 60.47    1443.82      38.00
 60.57    1498.00      38.70
 60.67    1640.00      40.50
 60.77    1679.00      40.98
 60.87    1598.00      39.97
 60.97    1538.00      39.22
 61.07    1419.71      37.68
 61.17    1180.00      34.35
 61.27    1163.33      34.11
 61.37    1084.00      32.92
 61.47     977.54      31.27
 61.57     831.98      28.84
 61.67     906.62      30.11
 61.77     838.00      28.95
 61.87     909.00      30.15
 61.97     982.00      31.34
 62.07    1045.90      32.34
 62.17    1136.00      33.70
 62.27    1374.08      37.07
 62.37    1437.66      37.92
 62.47    1597.00      39.96
 62.57    1908.00      43.68
 62.67    1909.00      43.69
 62.77    1877.00      43.32
 62.87    1868.00      43.22
 62.97    1722.00      41.50
 63.07    1604.00      40.05
 63.17    1428.00      37.79
 63.27    1183.00      34.39
 63.37    1103.00      33.21
 63.47     930.00      30.50
 63.57     887.00      29.78
 63.67     826.00      28.74
 63.77     798.00      28.25
 63.87     780.60      27.94
 63.97     789.78      28.10
 64.07     847.00      29.10
 64.17     735.25      27.12
 64.27     769.70      27.74
 64.37     794.00      28.18
 64.47     828.00      28.77
 64.57     911.46      30.19
 64.67    1034.00      32.16
 64.77    1125.40      33.55
 64.87    1214.00      34.84
 64.97    1358.00      36.85
 65.07    1529.00      39.10
 65.17    1635.00      40.44
 65.27    1698.00      41.21
 65.37    1748.00      41.81
 65.47    1717.00      41.44
 65.57    1532.57      39.15
 65.67    1424.00      37.74
 65.77    1379.00      37.13
 65.87    1170.00      34.21
 65.97    1037.00      32.20
 66.07     987.31      31.42
 66.17     914.09      30.23
 66.27     885.00      29.75
 66.37     864.84      29.41
 66.47     767.59      27.71
 66.57     710.00      26.65
 66.67     792.50      28.15
 66.77     776.34      27.86
 66.87     703.00      26.51
 66.97     701.19      26.48
 67.07     732.70      27.07
 67.17     704.10      26.53
 67.27     775.00      27.84
 67.37     740.00      27.20
 67.47     793.00      28.16
 67.57     735.00      27.11
 67.67     846.00      29.09
 67.77     937.00      30.61
 67.87    1030.42      32.10
 67.97    1110.00      33.32
 68.07    1360.00      36.88
 68.17    1453.00      38.12
 68.27    1686.00      41.06
 68.37    1937.17      44.01
 68.47    2183.00      46.72
 68.57    2471.00      49.71
 68.67    2550.00      50.50
 68.77    2666.00      51.63
 68.87    2555.00      50.55
 68.97    2384.00      48.83
 69.07    2114.34      45.98
 69.17    1943.00      44.08
 69.27    1701.00      41.24
 69.37    1441.00      37.96
 69.47    1241.75      35.24
 69.57    1161.00      34.07
 69.67    1041.00      32.26
 69.77     941.00      30.68
 69.87     877.00      29.61
 69.97     786.26      28.04
 70.07     752.76      27.44
 70.17     799.00      28.27
 70.27     779.00      27.91
 70.37     732.00      27.06
 70.47     776.22      27.86
 70.57     710.00      26.65
 70.67     795.00      28.20
 70.77     757.94      27.53
 70.87     696.00      26.38
 70.97     723.32      26.89
 71.07     704.00      26.53
 71.17     784.17      28.00
 71.27     803.00      28.34
 71.37     767.00      27.69
 71.47     769.00      27.73
 71.57     780.09      27.93
 71.67     797.00      28.23
 71.77     925.00      30.41
 71.87    1038.49      32.23
 71.97    1083.00      32.91
 72.07    1137.00      33.72
 72.17    1354.00      36.80
 72.27    1488.00      38.57
 72.37    1761.00      41.96
 72.47    1914.92      43.76
 72.57    1981.17      44.51
 72.67    2003.00      44.75
 72.77    2069.00      45.49
 72.87    1975.79      44.45
 72.97    1886.00      43.43
 73.07    1733.56      41.64
 73.17    1655.59      40.69
 73.27    1389.00      37.27
 73.37    1247.00      35.31
 73.47    1118.00      33.44
 73.57     972.00      31.18
 73.67     876.70      29.61
 73.77     840.00      28.98
 73.87     805.00      28.37
 73.97     808.00      28.43
 74.07     801.51      28.31
 74.17     756.00      27.50
 74.27     719.00      26.81
 74.37     750.58      27.40
 74.47     714.00      26.72
 74.57     724.00      26.91
 74.67     717.00      26.78
 74.77     747.00      27.33
 74.87     686.93      26.21
 74.97     764.45      27.65
 75.07     732.00      27.06
 75.17     735.92      27.13
 75.27     715.00      26.74
 75.37     693.85      26.34
 75.47     750.64      27.40
 75.57     764.53      27.65
 75.67     745.00      27.29
 75.77     742.40      27.25
 75.87     701.00      26.48
 75.97     660.02      25.69
 76.07     733.00      27.07
 76.17     761.95      27.60
 76.27     751.00      27.40
 76.37     722.00      26.87
 76.47     792.56      28.15
 76.57     839.43      28.97
 76.67     823.63      28.70
 76.77     910.00      30.17
 76.87     945.00      30.74
 76.97    1051.00      32.42
 77.07    1095.06      33.09
 77.17    1045.00      32.33
 77.27    1144.00      33.82
 77.37    1095.45      33.10
 77.47    1132.73      33.66
 77.57    1012.23      31.82
 77.67    1034.00      32.16
 77.77     951.00      30.84
 77.87     910.35      30.17
 77.97     881.39      29.69
 78.07     810.00      28.46
 78.17     780.00      27.93
 78.27     802.00      28.32
 78.37     723.00      26.89
 78.47     676.00      26.00
 78.57     688.00      26.23
 78.67     695.00      26.36
 78.77     703.00      26.51
 78.87     658.00      25.65
 78.97     686.67      26.20
 79.07     640.00      25.30
 79.17     653.58      25.57
 79.27     703.00      26.51
 79.37     680.00      26.08
 79.47     614.67      24.79
 79.57     667.00      25.83
 79.67     674.60      25.97
 79.77     621.00      24.92
 79.87     655.00      25.59
 79.97     644.00      25.38
 80.07     642.62      25.35
 80.17     628.00      25.06
 80.27     691.00      26.29
 80.37     647.75      25.45
 80.47     695.34      26.37
 80.57     716.00      26.76
 80.67     790.00      28.11
 80.77     834.96      28.90
 80.87     907.00      30.12
 80.97     929.73      30.49
 81.07     945.41      30.75
 81.17     979.00      31.29
 81.27    1243.00      35.26
 81.37    1300.00      36.06
 81.47    1367.67      36.98
 81.57    1468.33      38.32
 81.67    1566.00      39.57
 81.77    1675.00      40.93
 81.87    1568.61      39.61
 81.97    1547.00      39.33
 82.07    1662.00      40.77
 82.17    1614.00      40.17
 82.27    1494.00      38.65
 82.37    1316.35      36.28
 82.47    1283.00      35.82
 82.57    1206.00      34.73
 82.67    1055.34      32.49
 82.77    1026.00      32.03
 82.87     932.00      30.53
 82.97     891.00      29.85
 83.07     784.00      28.00
 83.17     878.60      29.64
 83.27     832.05      28.85
 83.37     757.00      27.51
 83.47     719.89      26.83
 83.57     701.00      26.48
 83.67     773.34      27.81
 83.77     671.37      25.91
 83.87     644.00      25.38
 83.97     676.00      26.00
 84.07     717.00      26.78
 84.17     706.00      26.57
 84.27     700.00      26.46
 84.37     672.00      25.92
 84.47     657.00      25.63
 84.57     752.51      27.43
 84.67     672.00      25.92
 84.77     790.69      28.12
 84.87     730.00      27.02
 84.97     697.36      26.41
 85.07     707.18      26.59
 85.17     672.00      25.92
 85.27     667.00      25.83
 85.37     734.89      27.11
 85.47     659.00      25.67
 85.57     695.00      26.36
 85.67     636.65      25.23
 85.77     679.00      26.06
 85.87     655.00      25.59
 85.97     654.00      25.57
 86.07     700.00      26.46
 86.17     611.46      24.73
 86.27     658.00      25.65
 86.37     667.77      25.84
 86.47     641.00      25.32
 86.57     663.00      25.75
 86.67     707.00      26.59
 86.77     688.00      26.23
 86.87     691.00      26.29
 86.97     685.02      26.17
 87.07     657.89      25.65
 87.17     716.00      26.76
 87.27     698.32      26.43
 87.37     685.00      26.17
 87.47     715.00      26.74
 87.57     668.51      25.86
 87.67     696.71      26.40
 87.77     799.00      28.27
 87.87     726.00      26.94
 87.97     711.85      26.68
 88.07     775.38      27.85
 88.17     709.34      26.63
 88.27     790.00      28.11
 88.37     817.15      28.59
 88.47     734.95      27.11
 88.57     757.00      27.51
 88.67     725.57      26.94
 88.77     726.00      26.94
 88.87     698.00      26.42
 88.97     757.00      27.51
 89.07     672.00      25.92
 89.17     700.00      26.46
 89.27     727.00      26.96
 89.37     706.79      26.59
 89.47     766.00      27.68
 89.57     672.00      25.92
 89.67     736.34      27.14
 89.77     716.00      26.76
 89.87     709.00      26.63
 89.97     718.92      26.81
 90.07     684.13      26.16
 90.17     666.18      25.81
 90.27     756.00      27.50
 90.37     725.00      26.93
 90.47     717.00      26.78
 90.57     743.00      27.26
 90.67     724.00      26.91
 90.77     697.38      26.41
 90.87     667.00      25.83
 90.97     695.00      26.36
 91.07     673.40      25.95
 91.17     632.00      25.14
 91.27     644.71      25.39
 91.37     686.18      26.19
 91.47     693.80      26.34
 91.57     676.65      26.01
 91.67     607.00      24.64
 91.77     601.00      24.52
 91.87     622.00      24.94
 91.97     632.00      25.14
 92.07     609.00      24.68
 92.17     655.00      25.59
 92.27     657.00      25.63
 92.37     585.00      24.19
 92.47     640.71      25.31
 92.57     675.00      25.98
 92.67     595.00      24.39
 92.77     649.00      25.48
 92.87     645.00      25.40
 92.97     681.00      26.10
 93.07     710.00      26.65
 93.17     731.00      27.04
 93.27     719.06      26.82
 93.37     704.00      26.53
 93.47     706.00      26.57
 93.57     756.00      27.50
 93.67     714.79      26.74
 93.77     782.00      27.96
 93.87     783.00      27.98
 93.97     881.00      29.68
 94.07     880.86      29.68
 94.17     910.51      30.17
 94.27     862.00      29.36
 94.37     922.45      30.37
 94.47     921.00      30.35
 94.57     970.00      31.14
 94.67     946.00      30.76
 94.77     910.00      30.17
 94.87     998.95      31.61
 94.97    1039.00      32.23
 95.07    1028.07      32.06
 95.17    1034.00      32.16
 95.27    1095.75      33.10
 95.37    1032.83      32.14
 95.47    1023.05      31.99
 95.57    1153.99      33.97
 95.67    1051.05      32.42
 95.77    1073.89      32.77
 95.87    1056.00      32.50
 95.97    1039.00      32.23
 96.07    1034.00      32.16
 96.17    1059.00      32.54
 96.27    1015.00      31.86
 96.37    1010.74      31.79
 96.47    1013.00      31.83
 96.57     928.00      30.46
 96.67     906.55      30.11
 96.77     917.30      30.29
 96.87     818.07      28.60
 96.97     876.80      29.61
 97.07     895.00      29.92
 97.17     825.49      28.73
 97.27     947.33      30.78
 97.37     960.00      30.98
 97.47    1022.00      31.97
 97.57    1071.00      32.73
 97.67    1069.00      32.70
 97.77    1192.74      34.54
 97.87    1295.22      35.99
 97.97    1308.00      36.17
 98.07    1318.21      36.31
 98.17    1500.03      38.73
 98.27    1535.08      39.18
 98.37    1604.00      40.05
 98.47    1587.00      39.84
 98.57    1680.33      40.99
 98.67    1649.63      40.62
 98.77    1642.00      40.52
 98.87    1654.00      40.67
 98.97    1622.91      40.29
 99.07    1529.00      39.10
 99.17    1414.00      37.60
 99.27    1307.00      36.15
 99.37    1341.64      36.63
 99.47    1208.00      34.76
 99.57    1152.29      33.95
 99.67    1092.00      33.05
 99.77    1077.00      32.82
 99.87    1042.97      32.30
 99.97    1061.00      32.57
100.07    1021.00      31.95
100.17    1092.00      33.05
100.27    1020.69      31.95
100.37    1061.42      32.58
100.47    1219.00      34.91
100.57    1212.00      34.81
100.67    1307.20      36.16
100.77    1411.00      37.56
100.87    1516.00      38.94
100.97    1542.30      39.27
101.07    1659.00      40.73
101.17    1805.00      42.49
101.27    1809.69      42.54
101.37    1941.49      44.06
101.47    2090.00      45.72
101.57    2060.00      45.39
101.67    2124.03      46.09
101.77    2199.61      46.90
101.87    2239.00      47.32
101.97    2133.79      46.19
102.07    2127.00      46.12
102.17    2128.00      46.13
102.27    2083.00      45.64
102.37    2069.00      45.49
102.47    2051.15      45.29
102.57    1862.00      43.15
102.67    1881.00      43.37
102.77    1901.00      43.60
102.87    1695.00      41.17
102.97    1665.81      40.81
103.07    1636.56      40.45
103.17    1428.00      37.79
103.27    1486.00      38.55
103.37    1447.49      38.05
103.47    1372.00      37.04
103.57    1427.01      37.78
103.67    1385.32      37.22
103.77    1209.00      34.77
103.87    1286.37      35.87
103.97    1283.00      35.82
104.07    1186.00      34.44
104.17    1139.33      33.75
104.27    1145.67      33.85
104.37    1040.55      32.26
104.47    1050.70      32.41
104.57    1034.46      32.16
104.67    1007.00      31.73
104.77     937.00      30.61
104.87     815.44      28.56
104.97     875.00      29.58
105.07     761.90      27.60
105.17     787.00      28.05
105.27     775.00      27.84
105.37     764.00      27.64
105.47     763.00      27.62
105.57     683.00      26.13
105.67     743.00      27.26
105.77     730.00      27.02
105.87     635.01      25.20
105.97     715.00      26.74
106.07     689.00      26.25
106.17     621.13      24.92
106.27     603.00      24.56
106.37     600.70      24.51
106.47     632.95      25.16
106.57     592.56      24.34
106.67     622.41      24.95
106.77     638.01      25.26
106.87     668.00      25.85
106.97     660.00      25.69
107.07     691.00      26.29
107.17     626.69      25.03
107.27     686.55      26.20
107.37     689.00      26.25
107.47     759.66      27.56
107.57     736.49      27.14
107.67     706.00      26.57
107.77     744.00      27.28
107.87     762.00      27.60
107.97     744.09      27.28
108.07     799.00      28.27
108.17     769.00      27.73
108.27     780.00      27.93
108.37     803.00      28.34
108.47     826.00      28.74
108.57     837.00      28.93
108.67     763.00      27.62
108.77     781.93      27.96
108.87     823.35      28.69
108.97     800.00      28.28
109.07     811.00      28.48
109.17     872.17      29.53
109.27     780.00      27.93
109.37     768.00      27.71
109.47     829.20      28.80
109.57     777.00      27.87
109.67     774.55      27.83
109.77     752.00      27.42
109.87     788.00      28.07
109.97     865.77      29.42
110.07     836.64      28.92
110.17     815.00      28.55
110.27     782.00      27.96
110.37     816.00      28.57
110.47     831.00      28.83
110.57     802.00      28.32
110.67     848.15      29.12
110.77     823.00      28.69
110.87     722.00      26.87
110.97     798.00      28.25
111.07     754.00      27.46
111.17     796.72      28.23
111.27     723.00      26.89
111.37     778.00      27.89
111.47     718.00      26.80
111.57     749.00      27.37
111.67     668.93      25.86
111.77     647.53      25.45
111.87     644.74      25.39
111.97     715.95      26.76
112.07     659.17      25.67
112.17     654.00      25.57
112.27     645.00      25.40
112.37     642.00      25.34
112.47     638.00      25.26
112.57     673.43      25.95
112.67     620.00      24.90
112.77     699.00      26.44
112.87     668.00      25.85
112.97     681.00      26.10
113.07     671.00      25.90
113.17     632.00      25.14
113.27     611.97      24.74
113.37     641.00      25.32
113.47     623.46      24.97
113.57     658.00      25.65
113.67     643.00      25.36
113.77     670.76      25.90
113.87     669.00      25.87
113.97     636.00      25.22
114.07     672.06      25.92
114.17     677.16      26.02
114.27     714.00      26.72
114.37     745.00      27.29
114.47     710.90      26.66
114.57     757.00      27.51
114.67     660.00      25.69
114.77     740.10      27.20
114.87     797.00      28.23
114.97     849.00      29.14
115.07     803.00      28.34
115.17     837.00      28.93
115.27     888.00      29.80
115.37    1029.99      32.09
115.47     979.00      31.29
115.57    1107.00      33.27
115.67    1209.37      34.78
115.77    1253.79      35.41
115.87    1416.28      37.63
115.97    1567.00      39.59
116.07    1782.00      42.21
116.17    2032.00      45.08
116.27    2209.00      47.00
116.37    2499.00      49.99
116.47    2792.00      52.84
116.57    2936.43      54.19
116.67    3350.00      57.88
116.77    3676.00      60.63
116.87    4069.00      63.79
116.97    4368.00      66.09
117.07    4804.04      69.31
117.17    5314.40      72.90
117.27    5487.00      74.07
117.37    5974.00      77.29
117.47    6297.00      79.35
117.57    6840.26      82.71
117.67    6978.00      83.53
117.77    7311.48      85.51
117.87    7525.02      86.75
117.97    7665.00      87.55
118.07    7693.67      87.71
118.17    7511.77      86.67
118.27    7595.54      87.15
118.37    7474.00      86.45
118.47    7123.00      84.40
118.57    6934.00      83.27
118.67    6540.64      80.87
118.77    6177.00      78.59
118.87    5891.91      76.76
118.97    5599.00      74.83
119.07    5375.39      73.32
119.17    4833.00      69.52
119.27    4596.21      67.80
119.37    4326.00      65.77
119.47    3747.20      61.21
119.57    3458.00      58.80
119.67    3173.92      56.34
119.77    2864.93      53.53
119.87    2620.32      51.19
119.97    2334.92      48.32
120.07    2122.00      46.07
120.17    1961.73      44.29
120.27    1661.14      40.76
120.37    1623.00      40.29
120.47    1413.50      37.60
120.57    1296.57      36.01
120.67    1329.00      36.46
120.77    1178.46      34.33
120.87    1181.00      34.37
120.97    1112.00      33.35
121.07    1060.47      32.56
121.17    1010.00      31.78
121.27     933.00      30.55
121.37     843.98      29.05
121.47     832.00      28.84
121.57     855.00      29.24
121.67     813.00      28.51
121.77     814.00      28.53
121.87     737.00      27.15
121.97     755.41      27.48
122.07     796.80      28.23
122.17     706.00      26.57
122.27     705.00      26.55
122.37     743.00      27.26
122.47     698.00      26.42
122.57     738.00      27.17
122.67     743.00      27.26
122.77     720.00      26.83
122.87     699.00      26.44
122.97     720.00      26.83
123.07     729.00      27.00
123.17     743.00      27.26
123.27     717.00      26.78
123.37     757.00      27.51
123.47     741.00      27.22
123.57     733.41      27.08
123.67     739.00      27.18
123.77     752.00      27.42
123.87     794.10      28.18
123.97     744.24      27.28
124.07     785.20      28.02
124.17     819.36      28.62
124.27     847.00      29.10
124.37     869.83      29.49
124.47     847.78      29.12
124.57     811.00      28.48
124.67     838.00      28.95
124.77     874.00      29.56
124.87     843.00      29.03
124.97     948.00      30.79
