  9.97     748.00      27.35
 10.07     695.00      26.36
 10.17     678.84      26.05
 10.27     725.96      26.94
 10.37     708.00      26.61
 10.47     727.00      26.96
 10.57     670.98      25.90
 10.67     674.95      25.98
 10.77     675.41      25.99
 10.87     714.00      26.72
 10.97     695.00      26.36
 11.07     710.00      26.65
 11.17     731.23      27.04
 11.27     700.00      26.46
 11.37     709.45      26.64
 11.47     737.06      27.15
 11.57     691.00      26.29
 11.67     792.00      28.14
 11.77     729.00      27.00
 11.87     746.00      27.31
 11.97     791.04      28.13
 12.07     819.00      28.62
 12.17     881.00      29.68
 12.27     754.12      27.46
 12.37     782.56      27.97
 12.47     828.00      28.77
 12.57     753.47      27.45
 12.67     689.46      26.26
 12.77     696.46      26.39
 12.87     672.52      25.93
 12.97     630.00      25.10
 13.07     705.56      26.56
 13.17     732.00      27.06
 13.27     677.00      26.02
 13.37     633.00      25.16
 13.47     706.00      26.57
 13.57     718.63      26.81
 13.67     641.46      25.33
 13.77     674.00      25.96
 13.87     715.00      26.74
 13.97     700.00      26.46
 14.07     701.76      26.49
 14.17     683.00      26.13
 14.27     665.00      25.79
 14.37     679.00      26.06
 14.47     663.00      25.75
 14.57     636.00      25.22
 14.67     660.00      25.69
 14.77     672.00      25.92
 14.87     619.00      24.88
 14.97     619.00      24.88
 15.07     665.00      25.79
 15.17     641.00      25.32
 15.27     595.00      24.39
 15.37     649.98      25.49
 15.47     642.00      25.34
 15.57     670.00      25.88
 15.67     697.00      26.40
 15.77     617.13      24.84
 15.87     656.00      25.61
 15.97     623.00      24.96
 16.07     657.00      25.63
 16.17     619.29      24.89
 16.27     666.00      25.81
 16.37     684.66      26.17
 16.47     663.61      25.76
 16.57     634.00      25.18
 16.67     664.44      25.78
 16.77     592.00      24.33
 16.87     648.00      25.46
 16.97     609.77      24.69
 17.07     644.54      25.39
 17.17     644.00      25.38
 17.27     659.15      25.67
 17.37     682.77      26.13
 17.47     604.49      24.59
 17.57     601.00      24.52
 17.67     676.08      26.00
 17.77     676.00      26.00
 17.87     668.19      25.85
 17.97     643.00      25.36
 18.07     598.00      24.45
 18.17     601.00      24.52
 18.27     649.91      25.49
 18.37     641.00      25.32
 18.47     633.67      25.17
 18.57     623.13      24.96
 18.67     681.00      26.10
 18.77     661.00      25.71
 18.87     619.00      24.88
 18.97     653.05      25.55
 19.07     680.53      26.09
 19.17     650.00      25.50
 19.27     624.00      24.98
 19.37     676.00      26.00
 19.47     636.39      25.23
 19.57     632.00      25.14
 19.67     600.00      24.49
 19.77     653.00      25.55
 19.87     595.00      24.39
 19.97     593.59      24.36
 20.07     590.16      24.29
 20.17     586.00      24.21
 20.27     600.00      24.49
 20.37     653.42      25.56
 20.47     637.00      25.24
 20.57     673.16      25.95
 20.67     606.00      24.62
 20.77     617.00      24.84
 20.87     577.00      24.02
 20.97     601.00      24.52
 21.07     584.00      24.17
 21.17     600.00      24.49
 21.27     603.00      24.56
 21.37     614.94      24.80
 21.47     633.42      25.17
 21.57     642.00      25.34
 21.67     596.01      24.41
 21.77     599.00      24.47
 21.87     609.00      24.68
 21.97     664.98      25.79
 22.07     615.00      24.80
 22.17     573.00      23.94
 22.27     652.39      25.54
 22.37     611.00      24.72
 22.47     633.35      25.17
 22.57     602.69      24.55
 22.67     613.00      24.76
 22.77     643.00      25.36
 22.87     642.00      25.34
 22.97     592.00      24.33
 23.07     600.00      24.49
 23.17     579.00      24.06
 23.27     671.00      25.90
 23.37     573.00      23.94
 23.47     608.00      24.66
 23.57     612.24      24.74
 23.67     640.00      25.30
 23.77     681.00      26.10
 23.87     645.61      25.41
 23.97     637.00      25.24
 24.07     579.65      24.08
 24.17     617.71      24.85
 24.27     621.00      24.92
 24.37     637.00      25.24
 24.47     665.23      25.79
 24.57     654.00      25.57
 24.67     676.00      26.00
 24.77     650.00      25.50
 24.87     659.27      25.68
 24.97     711.71      26.68
 25.07     757.00      27.51
 25.17     731.32      27.04
 25.27     666.00      25.81
 25.37     672.00      25.92
 25.47     616.00      24.82
 25.57     675.00      25.98
 25.67     646.00      25.42
 25.77     618.00      24.86
 25.87     625.74      25.01
 25.97     645.00      25.40
 26.07     607.00      24.64
 26.17     656.70      25.63
 26.27     628.00      25.06
 26.37     642.00      25.34
 26.47     631.79      25.14
 26.57     626.00      25.02
 26.67     614.00      24.78
 26.77     621.47      24.93
 26.87     678.00      26.04
 26.97     659.59      25.68
 27.07     668.00      25.85
 27.17     725.00      26.93
 27.27     722.00      26.87
 27.37     673.56      25.95
 27.47     777.85      27.89
 27.57     778.00      27.89
 27.67     785.77      28.03
 27.77     911.26      30.19
 27.87    1058.00      32.53
 27.97    1266.00      35.58
 28.07    1963.00      44.31
 28.17    3099.00      55.67
 28.27    5226.68      72.30
 28.37    7064.00      84.05
 28.47    7825.00      88.46
 28.57    7223.00      84.99
 28.67    5224.42      72.28
 28.77    3810.60      61.73
 28.87    3245.00      56.96
 28.97    3586.42      59.89
 29.07    4212.00      64.90
 29.17    4466.00      66.83
 29.27    3901.30      62.46
 29.37    2974.00      54.53
 29.47    2123.00      46.08
 29.57    1516.36      38.94
 29.67    1156.00      34.00
 29.77     951.00      30.84
 29.87     851.73      29.18
 29.97     813.00      28.51
 30.07     758.80      27.55
 30.17     703.69      26.53
 30.27     716.00      26.76
 30.37     653.96      25.57
 30.47     725.00      26.93
 30.57     685.25      26.18
 30.67     678.00      26.04
 30.77     716.66      26.77
 30.87     762.00      27.60
 30.97     769.00      27.73
 31.07     740.17      27.21
 31.17     736.88      27.15
 31.27     808.00      28.43
 31.37     780.00      27.93
 31.47     761.00      27.59
 31.57     704.34      26.54
 31.67     662.00      25.73
 31.77     663.00      25.75
 31.87     632.00      25.14
 31.97     584.60      24.18
 32.07     668.98      25.86
 32.17     662.00      25.73
 32.27     654.29      25.58
 32.37     625.00      25.00
 32.47     625.00      25.00
 32.57     606.00      24.62
 32.67     597.71      24.45
 32.77     628.00      25.06
 32.87     613.00      24.76
 32.97     600.00      24.49
 33.07     569.90      23.87
 33.17     652.00      25.53
 33.27     612.00      24.74
 33.37     647.00      25.44
 33.47     639.18      25.28
 33.57     685.92      26.19
 33.67     654.00      25.57
 33.77     732.00      27.06
 33.87     785.58      28.03
 33.97     863.00      29.38
 34.07     978.00      31.27
 34.17    1152.85      33.95
 34.27    1273.07      35.68
 34.37    1238.63      35.19
 34.47    1197.00      34.60
 34.57    1007.65      31.74
 34.67     867.00      29.44
 34.77     749.00      27.37
 34.87     681.31      26.10
 34.97     694.00      26.34
 35.07     666.00      25.81
 35.17     657.00      25.63
 35.27     579.62      24.08
 35.37     672.00      25.92
 35.47     616.82      24.84
 35.57     598.00      24.45
 35.67     622.00      24.94
 35.77     562.66      23.72
 35.87     561.00      23.69
 35.97     577.00      24.02
 36.07     558.11      23.62
 36.17     592.52      24.34
 36.27     581.00      24.10
 36.37     585.00      24.19
 36.47     600.34      24.50
 36.57     599.00      24.47
 36.67     610.00      24.70
 36.77     574.00      23.96
 36.87     635.93      25.22
 36.97     589.00      24.27
 37.07     612.00      24.74
 37.17     591.00      24.31
 37.27     639.72      25.29
 37.37     639.23      25.28
 37.47     606.00      24.62
 37.57     617.81      24.86
 37.67     634.00      25.18
 37.77     594.09      24.37
 37.87     689.50      26.26
 37.97     656.00      25.61
 38.07     690.00      26.27
 38.17     750.00      27.39
 38.27     743.00      27.26
 38.37     686.00      26.19
 38.47     733.00      27.07
 38.57     685.59      26.18
 38.67     714.04      26.72
 38.77     602.00      24.54
 38.87     612.00      24.74
 38.97     620.00      24.90
 39.07     571.00      23.90
 39.17     625.00      25.00
 39.27     598.00      24.45
 39.37     553.00      23.52
 39.47     580.00      24.08
 39.57     603.00      24.56
 39.67     578.83      24.06
 39.77     541.57      23.27
 39.87     596.00      24.41
 39.97     630.00      25.10
 40.07     581.00      24.10
 40.17     587.55      24.24
 40.27     558.61      23.64
 40.37     644.00      25.38
 40.47     598.96      24.47
 40.57     622.23      24.94
 40.67     586.89      24.23
 40.77     539.00      23.22
 40.87     580.00      24.08
 40.97     596.00      24.41
 41.07     629.96      25.10
 41.17     624.77      25.00
 41.27     624.10      24.98
 41.37     624.00      24.98
 41.47     586.00      24.21
 41.57     574.00      23.96
 41.67     543.00      23.30
 41.77     573.00      23.94
 41.87     559.00      23.64
 41.97     553.90      23.54
 42.07     634.42      25.19
 42.17     609.56      24.69
 42.27     577.40      24.03
 42.37     617.00      24.84
 42.47     605.91      24.62
 42.57     587.00      24.23
 42.67     604.00      24.58
 42.77     680.93      26.09
 42.87     669.00      25.87
 42.97     653.00      25.55
 43.07     633.00      25.16
 43.17     669.00      25.87
 43.27     658.56      25.66
 43.37     675.00      25.98
 43.47     665.63      25.80
 43.57     637.00      25.24
 43.67     584.00      24.17
 43.77     633.00      25.16
 43.87     591.05      24.31
 43.97     585.00      24.19
 44.07     572.00      23.92
 44.17     592.00      24.33
 44.27     623.61      24.97
 44.37     598.00      24.45
 44.47     569.00      23.85
 44.57     590.00      24.29
 44.67     590.78      24.31
 44.77     590.00      24.29
 44.87     598.38      24.46
 44.97     569.55      23.87
 45.07     580.00      24.08
 45.17     629.00      25.08
 45.27     559.07      23.64
 45.37     572.84      23.93
 45.47     559.00      23.64
 45.57     674.00      25.96
 45.67     546.99      23.39
 45.77     627.00      25.04
 45.87     609.00      24.68
 45.97     591.00      24.31
 46.07     607.00      24.64
 46.17     572.00      23.92
 46.27     571.00      23.90
 46.37     580.72      24.10
 46.47     578.00      24.04
 46.57     603.00      24.56
 46.67     615.91      24.82
 46.77     585.00      24.19
 46.87     582.00      24.12
 46.97     630.00      25.10
 47.07     651.00      25.51
 47.17     595.67      24.41
 47.27     642.00      25.34
 47.37     604.00      24.58
 47.47     592.00      24.33
 47.57     598.00      24.45
 47.67     629.00      25.08
 47.77     590.52      24.30
 47.87     660.00      25.69
 47.97     646.00      25.42
 48.07     643.00      25.36
 48.17     662.00      25.73
 48.27     670.00      25.88
 48.37     691.07      26.29
 48.47     676.61      26.01
 48.57     716.52      26.77
 48.67     642.00      25.34
 48.77     584.00      24.17
 48.87     603.00      24.56
 48.97     662.00      25.73
 49.07     615.11      24.80
 49.17     682.03      26.12
 49.27     654.00      25.57
 49.37     633.17      25.16
 49.47     630.00      25.10
 49.57     642.86      25.35
 49.67     740.80      27.22
 49.77     694.54      26.35
 49.87     828.00      28.77
 49.97     962.00      31.02
 50.07    1265.37      35.57
 50.17    1500.00      38.73
 50.27    1969.00      44.37
 50.37    2539.00      50.39
 50.47    3008.81      54.85
 50.57    3106.00      55.73
 50.67    2975.50      54.55
 50.77    2623.57      51.22
 50.87    2159.00      46.47
 50.97    1689.00      41.10
 51.07    1342.00      36.63
 51.17    1041.00      32.26
 51.27     942.06      30.69
 51.37     827.00      28.76
 51.47     786.00      28.04
 51.57     689.55      26.26
 51.67     694.30      26.35
 51.77     699.00      26.44
 51.87     722.00      26.87
 51.97     722.50      26.88
 52.07     732.00      27.06
 52.17     710.00      26.65
 52.27     719.27      26.82
 52.37     654.00      25.57
 52.47     698.00      26.42
 52.57     695.00      26.36
 52.67     667.00      25.83
 52.77     662.35      25.74
 52.87     633.36      25.17
 52.97     676.61      26.01
 53.07     640.77      25.31
 53.17     684.38      26.16
 53.27     741.50      27.23
 53.37     789.00      28.09
 53.47     893.00      29.88
 53.57     993.00      31.51
 53.67    1078.00      32.83
 53.77    1229.95      35.07
 53.87    1269.00      35.62
 53.97    1262.00      35.52
 54.07    1278.76      35.76
 54.17    1212.00      34.81
 54.27    1072.87      32.75
 54.37     979.00      31.29
 54.47     854.00      29.22
 54.57     800.00      28.28
 54.67     727.00      26.96
 54.77     692.00      26.31
 54.87     673.00      25.94
 54.97     728.00      26.98
 55.07     690.23      26.27
 55.17     679.00      26.06
 55.27     639.00      25.28
 55.37     612.14      24.74
 55.47     635.00      25.20
 55.57     672.71      25.94
 55.67     665.00      25.79
 55.77     666.00      25.81
 55.87     658.00      25.65
 55.97     676.00      26.00
 56.07     684.71      26.17
 56.17     718.85      26.81
 56.27     780.00      27.93
 56.37     749.83      27.38
 56.47     835.39      28.90
 56.57     863.00      29.38
 56.67    1093.00      33.06
 56.77    1274.00      35.69
 56.87    1535.00      39.18
 56.97    1888.00      43.45
 57.07    2211.00      47.02
 57.17    2498.00      49.98
 57.27    2569.78      50.69
 57.37    2831.00      53.21
 57.47    2555.00      50.55
 57.57    2333.58      48.31
 57.67    1976.00      44.45
 57.77    1567.00      39.59
 57.87    1394.02      37.34
 57.97    1141.00      33.78
 58.07    1000.00      31.62
 58.17     925.63      30.42
 58.27     819.83      28.63
 58.37     788.00      28.07
 58.47     760.00      27.57
 58.57     784.00      28.00
 58.67     823.00      28.69
 58.77     876.40      29.60
 58.87     985.12      31.39
 58.97    1054.50      32.47
 59.07    1148.00      33.88
 59.17    1224.85      35.00
 59.27    1395.00      37.35
 59.37    1327.00      36.43
 59.47    1341.00      36.62
 59.57    1325.00      36.40
 59.67    1301.00      36.07
 59.77    1261.00      35.51
 59.87    1210.85      34.80
 59.97    1265.39      35.57
 60.07    1235.00      35.14
 60.17    1288.00      35.89
 60.27    1426.00      37.76
 60.37    1374.52      37.07
 60.47    1558.00      39.47
 60.57    1567.53      39.59
 60.67    1681.00      41.00
 60.77    1587.00      39.84
 60.87    1639.00      40.48
 60.97    1462.00      38.24
 61.07    1310.00      36.19
 61.17    1050.00      32.40
 61.27     946.28      30.76
 61.37     847.00      29.10
 61.47     780.00      27.93
 61.57     785.00      28.02
 61.67     780.00      27.93
 61.77     817.00      28.58
 61.87     893.30      29.89
 61.97     933.00      30.55
 62.07     993.00      31.51
 62.17    1171.00      34.22
 62.27    1280.00      35.78
 62.37    1451.00      38.09
 62.47    1562.00      39.52
 62.57    1786.00      42.26
 62.67    1617.00      40.21
 62.77    1771.06      42.08
 62.87    1629.63      40.37
 62.97    1370.00      37.01
 63.07    1231.66      35.10
 63.17    1197.77      34.61
 63.27    1016.77      31.89
 63.37     917.00      30.28
 63.47     794.00      28.18
 63.57     772.00      27.78
 63.67     791.00      28.12
 63.77     715.05      26.74
 63.87     722.00      26.87
 63.97     674.00      25.96
 64.07     723.00      26.89
 64.17     724.00      26.91
 64.27     814.00      28.53
 64.37     734.70      27.11
 64.47     872.42      29.54
 64.57     885.00      29.75
 64.67    1011.00      31.80
 64.77    1152.00      33.94
 64.87    1166.07      34.15
 64.97    1335.76      36.55
 65.07    1479.84      38.47
 65.17    1447.18      38.04
 65.27    1630.00      40.37
 65.37    1548.00      39.34
 65.47    1413.00      37.59
 65.57    1254.28      35.42
 65.67    1195.00      34.57
 65.77    1072.00      32.74
 65.87     976.44      31.25
 65.97     940.55      30.67
 66.07     895.00      29.92
 66.17     833.19      28.87
 66.27     765.50      27.67
 66.37     746.77      27.33
 66.47     690.35      26.27
 66.57     745.26      27.30
 66.67     695.00      26.36
 66.77     659.86      25.69
 66.87     742.23      27.24
 66.97     675.34      25.99
 67.07     682.00      26.12
 67.17     679.63      26.07
 67.27     670.75      25.90
 67.37     754.00      27.46
 67.47     761.00      27.59
 67.57     791.69      28.14
 67.67     837.59      28.94
 67.77     918.00      30.30
 67.87    1116.73      33.42
 67.97    1154.00      33.97
 68.07    1334.92      36.54
 68.17    1631.29      40.39
 68.27    1859.48      43.12
 68.37    2035.00      45.11
 68.47    2267.95      47.62
 68.57    2576.00      50.75
 68.67    2615.00      51.14
 68.77    2519.00      50.19
 68.87    2401.00      49.00
 68.97    2184.00      46.73
 69.07    1910.90      43.71
 69.17    1663.00      40.78
 69.27    1410.00      37.55
 69.37    1227.00      35.03
 69.47    1084.00      32.92
 69.57     941.00      30.68
 69.67     867.00      29.44
 69.77     802.71      28.33
 69.87     805.12      28.37
 69.97     768.57      27.72
 70.07     749.00      27.37
 70.17     660.13      25.69
 70.27     689.00      26.25
 70.37     700.00      26.46
 70.47     715.00      26.74
 70.57     684.70      26.17
 70.67     681.00      26.10
 70.77     662.00      25.73
 70.87     695.17      26.37
 70.97     606.00      24.62
 71.07     706.00      26.57
 71.17     661.29      25.72
 71.27     717.00      26.78
 71.37     721.00      26.85
 71.47     713.00      26.70
 71.57     855.00      29.24
 71.67     837.00      28.93
 71.77     917.00      30.28
 71.87    1029.55      32.09
 71.97    1133.17      33.66
 72.07    1262.00      35.52
 72.17    1474.00      38.39
 72.27    1581.00      39.76
 72.37    1817.96      42.64
 72.47    1958.22      44.25
 72.57    2002.68      44.75
 72.67    1941.00      44.06
 72.77    1932.00      43.95
 72.87    1835.00      42.84
 72.97    1635.21      40.44
 73.07    1467.00      38.30
 73.17    1345.00      36.67
 73.27    1269.11      35.62
 73.37    1013.12      31.83
 73.47    1005.00      31.70
 73.57     848.16      29.12
 73.67     833.00      28.86
 73.77     780.00      27.93
 73.87     766.00      27.68
 73.97     725.00      26.93
 74.07     641.37      25.33
 74.17     719.00      26.81
 74.27     703.28      26.52
 74.37     689.05      26.25
 74.47     626.00      25.02
 74.57     665.00      25.79
 74.67     649.00      25.48
 74.77     645.00      25.40
 74.87     703.60      26.53
 74.97     664.00      25.77
 75.07     636.00      25.22
 75.17     679.46      26.07
 75.27     703.00      26.51
 75.37     734.00      27.09
 75.47     700.19      26.46
 75.57     671.92      25.92
 75.67     671.00      25.90
 75.77     614.71      24.79
 75.87     665.00      25.79
 75.97     690.00      26.27
 76.07     703.00      26.51
 76.17     688.00      26.23
 76.27     713.94      26.72
 76.37     719.00      26.81
 76.47     687.89      26.23
 76.57     804.01      28.36
 76.67     792.00      28.14
 76.77     851.11      29.17
 76.87     869.00      29.48
 76.97     953.00      30.87
 77.07    1010.00      31.78
 77.17    1025.00      32.02
 77.27     983.00      31.35
 77.37     991.00      31.48
 77.47     932.65      30.54
 77.57     927.00      30.45
 77.67     869.00      29.48
 77.77     831.00      28.83
 77.87     784.00      28.00
 77.97     795.31      28.20
 78.07     717.71      26.79
 78.17     725.04      26.93
 78.27     629.42      25.09
 78.37     634.00      25.18
 78.47     645.00      25.40
 78.57     647.00      25.44
 78.67     588.00      24.25
 78.77     628.00      25.06
 78.87     638.00      25.26
 78.97     570.29      23.88
 79.07     617.00      24.84
 79.17     574.81      23.98
 79.27     619.77      24.90
 79.37     568.68      23.85
 79.47     610.00      24.70
 79.57     626.00      25.02
 79.67     616.00      24.82
 79.77     650.00      25.50
 79.87     559.00      23.64
 79.97     652.90      25.55
 80.07     618.00      24.86
 80.17     619.00      24.88
 80.27     620.05      24.90
 80.37     626.00      25.02
 80.47     664.06      25.77
 80.57     687.03      26.21
 80.67     711.00      26.66
 80.77     774.24      27.83
 80.87     810.11      28.46
 80.97     814.15      28.53
 81.07     984.71      31.38
 81.17    1031.00      32.11
 81.27    1074.12      32.77
 81.37    1219.00      34.91
 81.47    1202.30      34.67
 81.57    1220.35      34.93
 81.67    1394.00      37.34
 81.77    1288.92      35.90
 81.87    1417.00      37.64
 81.97    1424.00      37.74
 82.07    1317.00      36.29
 82.17    1303.00      36.10
 82.27    1229.00      35.06
 82.37    1124.00      33.53
 82.47    1058.00      32.53
 82.57    1011.00      31.80
 82.67     935.48      30.59
 82.77     905.00      30.08
 82.87     772.00      27.78
 82.97     772.00      27.78
 83.07     750.00      27.39
 83.17     743.00      27.26
 83.27     666.00      25.81
 83.37     684.00      26.15
 83.47     653.00      25.55
 83.57     717.35      26.78
 83.67     676.86      26.02
 83.77     696.37      26.39
 83.87     622.00      24.94
 83.97     600.00      24.49
 84.07     618.39      24.87
 84.17     627.00      25.04
 84.27     623.00      24.96
 84.37     659.00      25.67
 84.47     654.00      25.57
 84.57     688.36      26.24
 84.67     653.00      25.55
 84.77     668.00      25.85
 84.87     622.00      24.94
 84.97     643.00      25.36
 85.07     628.00      25.06
 85.17     672.76      25.94
 85.27     625.30      25.01
 85.37     592.00      24.33
 85.47     584.00      24.17
 85.57     566.00      23.79
 85.67     594.73      24.39
 85.77     626.00      25.02
 85.87     587.00      24.23
 85.97     594.91      24.39
 86.07     584.01      24.17
 86.17     626.00      25.02
 86.27     616.48      24.83
 86.37     634.56      25.19
 86.47     633.00      25.16
 86.57     652.00      25.53
 86.67     623.43      24.97
 86.77     674.62      25.97
 86.87     624.00      24.98
 86.97     591.00      24.31
 87.07     689.00      26.25
 87.17     673.00      25.94
 87.27     709.00      26.63
 87.37     672.72      25.94
 87.47     661.00      25.71
 87.57     653.75      25.57
 87.67     733.14      27.08
 87.77     698.00      26.42
 87.87     673.58      25.95
 87.97     695.00      26.36
 88.07     773.00      27.80
 88.17     710.81      26.66
 88.27     695.59      26.37
 88.37     672.00      25.92
 88.47     702.19      26.50
 88.57     670.89      25.90
 88.67     718.71      26.81
 88.77     699.00      26.44
 88.87     685.00      26.17
 88.97     702.00      26.50
 89.07     626.42      25.03
 89.17     684.00      26.15
 89.27     688.44      26.24
 89.37     609.12      24.68
 89.47     678.29      26.04
 89.57     630.00      25.10
 89.67     634.00      25.18
 89.77     641.11      25.32
 89.87     680.00      26.08
 89.97     665.00      25.79
 90.07     648.50      25.47
 90.17     643.51      25.37
 90.27     651.00      25.51
 90.37     682.00      26.12
 90.47     635.98      25.22
 90.57     685.34      26.18
 90.67     645.00      25.40
 90.77     618.00      24.86
 90.87     625.88      25.02
 90.97     609.00      24.68
 91.07     662.43      25.74
 91.17     550.00      23.45
 91.27     600.00      24.49
 91.37     617.00      24.84
 91.47     613.34      24.77
 91.57     593.00      24.35
 91.67     595.00      24.39
 91.77     613.00      24.76
 91.87     602.06      24.54
 91.97     558.43      23.63
 92.07     590.80      24.31
 92.17     548.59      23.42
 92.27     587.63      24.24
 92.37     595.00      24.39
 92.47     602.00      24.54
 92.57     622.00      24.94
 92.67     612.00      24.74
 92.77     625.00      25.00
 92.87     651.00      25.51
 92.97     641.00      25.32
 93.07     620.91      24.92
 93.17     615.73      24.81
 93.27     684.00      26.15
 93.37     658.56      25.66
 93.47     731.00      27.04
 93.57     768.11      27.71
 93.67     756.00      27.50
 93.77     783.00      27.98
 93.87     732.00      27.06
 93.97     776.41      27.86
 94.07     807.60      28.42
 94.17     856.12      29.26
 94.27     818.00      28.60
 94.37     843.00      29.03
 94.47     861.00      29.34
 94.57     914.00      30.23
 94.67     901.75      30.03
 94.77     932.00      30.53
 94.87     931.00      30.51
 94.97     959.00      30.97
 95.07    1046.78      32.35
 95.17    1061.44      32.58
 95.27    1027.00      32.05
 95.37    1024.89      32.01
 95.47    1084.00      32.92
 95.57    1058.00      32.53
 95.67    1061.00      32.57
 95.77    1071.00      32.73
 95.87     966.83      31.09
 95.97     957.25      30.94
 96.07    1001.40      31.64
 96.17     929.00      30.48
 96.27     910.00      30.17
 96.37     902.00      30.03
 96.47     875.00      29.58
 96.57     847.00      29.10
 96.67     843.00      29.03
 96.77     811.00      28.48
 96.87     835.00      28.90
 96.97     875.00      29.58
 97.07     874.00      29.56
 97.17     829.65      28.80
 97.27     907.00      30.12
 97.37     978.64      31.28
 97.47    1057.53      32.52
 97.57    1050.00      32.40
 97.67    1086.31      32.96
 97.77    1171.84      34.23
 97.87    1257.62      35.46
 97.97    1357.00      36.84
 98.07    1466.75      38.30
 98.17    1420.74      37.69
 98.27    1568.00      39.60
 98.37    1607.73      40.10
 98.47    1590.00      39.87
 98.57    1600.34      40.00
 98.67    1598.00      39.97
 98.77    1491.11      38.61
 98.87    1462.00      38.24
 98.97    1482.00      38.50
 99.07    1345.00      36.67
 99.17    1258.00      35.47
 99.27    1224.69      35.00
 99.37    1141.00      33.78
 99.47    1160.76      34.07
 99.57    1019.00      31.92
 99.67     995.49      31.55
 99.77     995.00      31.54
 99.87     960.00      30.98
 99.97     970.00      31.14
100.07    1036.91      32.20
100.17    1052.00      32.43
100.27    1103.00      33.21
100.37    1151.70      33.94
100.47    1294.00      35.97
100.57    1319.21      36.32
100.67    1373.00      37.05
100.77    1485.29      38.54
100.87    1619.55      40.24
100.97    1710.00      41.35
101.07    1800.43      42.43
101.17    1895.00      43.53
101.27    1926.00      43.89
101.37    1935.40      43.99
101.47    2012.00      44.86
101.57    2051.00      45.29
101.67    2069.61      45.49
101.77    2060.00      45.39
101.87    2103.00      45.86
101.97    2081.05      45.62
102.07    2059.00      45.38
102.17    2000.00      44.72
102.27    1949.00      44.15
102.37    1869.59      43.24
102.47    1765.00      42.01
102.57    1754.09      41.88
102.67    1651.00      40.63
102.77    1537.00      39.20
102.87    1450.00      38.08
102.97    1429.00      37.80
103.07    1471.00      38.35
103.17    1308.00      36.17
103.27    1319.00      36.32
103.37    1360.24      36.88
103.47    1255.00      35.43
103.57    1283.00      35.82
103.67    1241.00      35.23
103.77    1273.43      35.69
103.87    1140.00      33.76
103.97    1084.00      32.92
104.07    1107.00      33.27
104.17    1053.00      32.45
104.27     939.00      30.64
104.37     961.00      31.00
104.47     897.00      29.95
104.57     832.14      28.85
104.67     860.00      29.33
104.77     774.11      27.82
104.87     726.51      26.95
104.97     781.92      27.96
105.07     774.00      27.82
105.17     781.00      27.95
105.27     639.39      25.29
105.37     695.22      26.37
105.47     637.00      25.24
105.57     623.00      24.96
105.67     647.00      25.44
105.77     612.46      24.75
105.87     626.00      25.02
105.97     565.69      23.78
106.07     642.00      25.34
106.17     647.00      25.44
106.27     580.24      24.09
106.37     608.00      24.66
106.47     618.00      24.86
106.57     649.17      25.48
106.67     674.00      25.96
106.77     624.00      24.98
106.87     633.00      25.16
106.97     657.00      25.63
107.07     651.00      25.51
107.17     693.69      26.34
107.27     716.32      26.76
107.37     657.08      25.63
107.47     739.00      27.18
107.57     717.00      26.78
107.67     682.00      26.12
107.77     731.00      27.04
107.87     784.00      28.00
107.97     795.00      28.20
108.07     761.00      27.59
108.17     750.00      27.39
108.27     758.51      27.54
108.37     824.25      28.71
108.47     808.60      28.44
108.57     745.00      27.29
108.67     798.89      28.26
108.77     770.00      27.75
108.87     745.10      27.30
108.97     735.00      27.11
109.07     757.00      27.51
109.17     824.00      28.71
109.27     798.35      28.26
109.37     804.00      28.35
109.47     824.91      28.72
109.57     745.30      27.30
109.67     751.22      27.41
109.77     723.00      26.89
109.87     727.00      26.96
109.97     733.00      27.07
110.07     776.00      27.86
110.17     751.00      27.40
110.27     801.40      28.31
110.37     815.60      28.56
110.47     742.26      27.24
110.57     762.00      27.60
110.67     771.00      27.77
110.77     707.45      26.60
110.87     707.00      26.59
110.97     698.00      26.42
111.07     686.00      26.19
111.17     650.00      25.50
111.27     704.00      26.53
111.37     679.00      26.06
111.47     698.36      26.43
111.57     643.00      25.36
111.67     628.37      25.07
111.77     690.00      26.27
111.87     608.00      24.66
111.97     628.00      25.06
112.07     608.03      24.66
112.17     584.83      24.18
112.27     630.00      25.10
112.37     589.84      24.29
112.47     621.00      24.92
112.57     643.00      25.36
112.67     623.00      24.96
112.77     617.00      24.84
112.87     578.98      24.06
112.97     668.00      25.85
113.07     567.00      23.81
113.17     609.00      24.68
113.27     584.00      24.17
113.37     596.00      24.41
113.47     630.00      25.10
113.57     622.48      24.95
113.67     616.00      24.82
113.77     642.00      25.34
113.87     640.00      25.30
113.97     626.45      25.03
114.07     602.00      24.54
114.17     657.00      25.63
114.27     667.00      25.83
114.37     678.04      26.04
114.47     635.00      25.20
114.57     664.24      25.77
114.67     740.00      27.20
114.77     800.88      28.30
114.87     779.00      27.91
114.97     826.00      28.74
115.07     875.83      29.59
115.17     913.11      30.22
115.27     951.00      30.84
115.37     985.00      31.38
115.47    1071.00      32.73
115.57    1164.09      34.12
115.67    1305.00      36.12
115.77    1511.00      38.87
115.87    1700.60      41.24
115.97    1815.00      42.60
116.07    2018.52      44.93
116.17    2445.00      49.45
116.27    2489.06      49.89
116.37    2838.00      53.27
116.47    3181.00      56.40
116.57    3645.00      60.37
116.67    3939.00      62.76
116.77    4370.85      66.11
116.87    4791.31      69.22
116.97    5213.65      72.21
117.07    5389.00      73.41
117.17    5729.00      75.69
117.27    6185.00      78.64
117.37    6495.18      80.59
117.47    6876.00      82.92
117.57    7130.00      84.44
117.67    7438.70      86.25
117.77    7494.00      86.57
117.87    7660.21      87.52
117.97    7424.09      86.16
118.07    7477.00      86.47
118.17    7255.00      85.18
118.27    6877.00      82.93
118.37    6864.00      82.85
118.47    6555.00      80.96
118.57    6132.00      78.31
118.67    5784.20      76.05
118.77    5433.00      73.71
118.87    5015.01      70.82
118.97    4781.57      69.15
119.07    4578.00      67.66
119.17    4157.00      64.47
119.27    3596.32      59.97
119.37    3312.00      57.55
119.47    3100.89      55.69
119.57    2797.00      52.89
119.67    2467.00      49.67
119.77    2277.41      47.72
119.87    1927.40      43.90
119.97    1893.00      43.51
120.07    1574.41      39.68
120.17    1551.00      39.38
120.27    1492.00      38.63
120.37    1369.00      37.00
120.47    1150.43      33.92
120.57    1151.00      33.93
120.67    1106.00      33.26
120.77    1017.00      31.89
120.87     937.01      30.61
120.97     932.00      30.53
121.07     856.00      29.26
121.17     851.00      29.17
121.27     807.00      28.41
121.37     793.00      28.16
121.47     814.83      28.55
121.57     773.00      27.80
121.67     763.01      27.62
121.77     708.00      26.61
121.87     707.00      26.59
121.97     705.00      26.55
122.07     715.00      26.74
122.17     630.00      25.10
122.27     653.00      25.55
122.37     710.00      26.65
122.47     678.00      26.04
122.57     731.00      27.04
122.67     670.00      25.88
122.77     659.18      25.67
122.87     703.98      26.53
122.97     675.00      25.98
123.07     750.00      27.39
123.17     687.81      26.23
123.27     704.82      26.55
123.37     774.86      27.84
123.47     710.00      26.65
123.57     758.00      27.53
123.67     777.00      27.87
123.77     782.31      27.97
123.87     767.00      27.69
123.97     759.00      27.55
124.07     801.00      28.30
124.17     763.00      27.62
124.27     793.00      28.16
124.37     806.00      28.39
124.47     752.00      27.42
124.57     751.00      27.40
124.67     808.66      28.44
124.77     814.32      28.54
124.87     783.00      27.98
124.97     824.00      28.71
