  9.97     702.00      26.50
 10.07     724.55      26.92
 10.17     735.47      27.12
 10.27     731.00      27.04
 10.37     732.00      27.06
 10.47     743.95      27.28
 10.57     673.50      25.95
 10.67     711.00      26.66
 10.77     720.00      26.83
 10.87     701.00      26.48
 10.97     684.00      26.15
 11.07     696.00      26.38
 11.17     670.65      25.90
 11.27     702.00      26.50
 11.37     737.00      27.15
 11.47     723.00      26.89
 11.57     679.00      26.06
 11.67     783.00      27.98
 11.77     727.00      26.96
 11.87     719.45      26.82
 11.97     804.00      28.35
 12.07     788.00      28.07
 12.17     729.33      27.01
 12.27     789.68      28.10
 12.37     785.00      28.02
 12.47     830.00      28.81
 12.57     729.00      27.00
 12.67     762.00      27.60
 12.77     698.00      26.42
 12.87     685.00      26.17
 12.97     609.00      24.68
 13.07     646.99      25.44
 13.17     654.00      25.57
 13.27     698.76      26.43
 13.37     677.00      26.02
 13.47     656.00      25.61
 13.57     679.74      26.07
 13.67     658.00      25.65
 13.77     698.83      26.44
 13.87     677.00      26.02
 13.97     708.00      26.61
 14.07     666.00      25.81
 14.17     705.00      26.55
 14.27     618.00      24.86
 14.37     642.00      25.34
 14.47     668.00      25.85
 14.57     703.71      26.53
 14.67     654.00      25.57
 14.77     607.14      24.64
 14.87     679.37      26.06
 14.97     651.00      25.51
 15.07     606.00      24.62
 15.17     655.00      25.59
 15.27     682.00      26.12
 15.37     682.00      26.12
 15.47     657.66      25.64
 15.57     644.29      25.38
 15.67     620.00      24.90
 15.77     614.00      24.78
 15.87     604.00      24.58
 15.97     644.00      25.38
 16.07     650.00      25.50
 16.17     607.00      24.64
 16.27     612.00      24.74
 16.37     625.63      25.01
 16.47     619.00      24.88
 16.57     630.00      25.10
 16.67     605.00      24.60
 16.77     609.00      24.68
 16.87     653.73      25.57
 16.97     646.00      25.42
 17.07     668.16      25.85
 17.17     629.75      25.09
 17.27     630.00      25.10
 17.37     635.00      25.20
 17.47     646.95      25.44
 17.57     622.00      24.94
 17.67     629.79      25.10
 17.77     589.00      24.27
 17.87     617.77      24.85
 17.97     628.07      25.06
 18.07     591.00      24.31
 18.17     630.00      25.10
 18.27     612.75      24.75
 18.37     609.00      24.68
 18.47     635.00      25.20
 18.57     635.00      25.20
 18.67     637.00      25.24
 18.77     649.00      25.48
 18.87     678.45      26.05
 18.97     645.00      25.40
 19.07     626.00      25.02
 19.17     593.82      24.37
 19.27     592.00      24.33
 19.37     601.00      24.52
 19.47     608.00      24.66
 19.57     585.00      24.19
 19.67     618.00      24.86
 19.77     654.00      25.57
 19.87     594.00      24.37
 19.97     607.00      24.64
 20.07     580.00      24.08
 20.17     635.96      25.22
 20.27     585.00      24.19
 20.37     602.00      24.54
 20.47     607.00      24.64
 20.57     588.00      24.25
 20.67     634.00      25.18
 20.77     563.00      23.73
 20.87     606.76      24.63
 20.97     619.00      24.88
 21.07     612.84      24.76
 21.17     578.72      24.06
 21.27     593.23      24.36
 21.37     598.00      24.45
 21.47     606.00      24.62
 21.57     614.00      24.78
 21.67     617.52      24.85
 21.77     594.00      24.37
 21.87     638.24      25.26
 21.97     661.76      25.72
 22.07     637.00      25.24
 22.17     611.00      24.72
 22.27     581.38      24.11
 22.37     564.00      23.75
 22.47     658.33      25.66
 22.57     581.00      24.10
 22.67     582.51      24.14
 22.77     620.00      24.90
 22.87     560.00      23.66
 22.97     597.00      24.43
 23.07     639.88      25.30
 23.17     645.00      25.40
 23.27     570.00      23.87
 23.37     660.57      25.70
 23.47     641.00      25.32
 23.57     655.22      25.60
 23.67     623.00      24.96
 23.77     606.00      24.62
 23.87     605.00      24.60
 23.97     613.00      24.76
 24.07     622.00      24.94
 24.17     598.26      24.46
 24.27     661.00      25.71
 24.37     611.00      24.72
 24.47     643.00      25.36
 24.57     625.09      25.00
 24.67     670.00      25.88
 24.77     647.00      25.44
 24.87     640.11      25.30
 24.97     663.95      25.77
 25.07     737.80      27.16
 25.17     685.08      26.17
 25.27     676.00      26.00
 25.37     649.00      25.48
 25.47     591.48      24.32
 25.57     618.08      24.86
 25.67     643.18      25.36
 25.77     624.00      24.98
 25.87     573.78      23.95
 25.97     634.00      25.18
 26.07     634.00      25.18
 26.17     649.23      25.48
 26.27     658.66      25.66
 26.37     634.00      25.18
 26.47     663.14      25.75
 26.57     622.89      24.96
 26.67     600.78      24.51
 26.77     592.00      24.33
 26.87     631.00      25.12
 26.97     688.00      26.23
 27.07     640.00      25.30
 27.17     642.30      25.34
 27.27     727.30      26.97
 27.37     709.73      26.64
 27.47     710.00      26.65
 27.57     764.00      27.64
 27.67     845.00      29.07
 27.77     835.00      28.90
 27.87    1008.00      31.75
 27.97    1255.00      35.43
 28.07    1924.00      43.86
 28.17    3298.13      57.43
 28.27    4639.00      68.11
 28.37    6377.76      79.86
 28.47    6840.00      82.70
 28.57    6148.00      78.41
 28.67    4259.84      65.27
 28.77    3201.50      56.58
 28.87    2786.00      52.78
 28.97    3285.00      57.31
 29.07    3661.00      60.51
 29.17    3661.24      60.51
 29.27    3309.00      57.52
 29.37    2463.35      49.63
 29.47    1790.00      42.31
 29.57    1371.64      37.04
 29.67     996.92      31.57
 29.77     916.00      30.27
 29.87     837.00      28.93
 29.97     827.00      28.76
 30.07     753.00      27.44
 30.17     687.78      26.23
 30.27     722.00      26.87
 30.37     685.00      26.17
 30.47     735.00      27.11
 30.57     660.00      25.69
 30.67     669.99      25.88
 30.77     704.17      26.54
 30.87     695.88      26.38
 30.97     737.00      27.15
 31.07     729.90      27.02
 31.17     758.00      27.53
 31.27     724.00      26.91
 31.37     697.02      26.40
 31.47     624.45      24.99
 31.57     641.00      25.32
 31.67     696.00      26.38
 31.77     603.00      24.56
 31.87     678.00      26.04
 31.97     664.00      25.77
 32.07     643.00      25.36
 32.17     628.00      25.06
 32.27     605.00      24.60
 32.37     655.00      25.59
 32.47     590.04      24.29
 32.57     617.00      24.84
 32.67     608.00      24.66
 32.77     638.00      25.26
 32.87     643.00      25.36
 32.97     669.00      25.87
 33.07     623.00      24.96
 33.17     630.00      25.10
 33.27     619.83      24.90
 33.37     630.00      25.10
 33.47     652.00      25.53
 33.57     669.66      25.88
 33.67     666.00      25.81
 33.77     702.49      26.50
 33.87     732.00      27.06
 33.97     791.80      28.14
 34.07    1016.00      31.87
 34.17    1098.00      33.14
 34.27    1169.00      34.19
 34.37    1192.35      34.53
 34.47    1078.00      32.83
 34.57     909.80      30.16
 34.67     827.00      28.76
 34.77     726.00      26.94
 34.87     685.12      26.17
 34.97     664.00      25.77
 35.07     686.00      26.19
 35.17     653.00      25.55
 35.27     606.64      24.63
 35.37     693.00      26.32
 35.47     601.00      24.52
 35.57     637.00      25.24
 35.67     636.40      25.23
 35.77     576.00      24.00
 35.87     638.54      25.27
 35.97     581.00      24.10
 36.07     584.48      24.18
 36.17     608.51      24.67
 36.27     581.52      24.11
 36.37     543.36      23.31
 36.47     575.00      23.98
 36.57     568.00      23.83
 36.67     610.43      24.71
 36.77     606.52      24.63
 36.87     581.55      24.12
 36.97     545.93      23.37
 37.07     587.00      24.23
 37.17     598.00      24.45
 37.27     589.57      24.28
 37.37     571.26      23.90
 37.47     543.00      23.30
 37.57     617.00      24.84
 37.67     606.00      24.62
 37.77     645.00      25.40
 37.87     667.00      25.83
 37.97     687.00      26.21
 38.07     646.00      25.42
 38.17     739.00      27.18
 38.27     739.00      27.18
 38.37     679.00      26.06
 38.47     675.10      25.98
 38.57     675.00      25.98
 38.67     649.00      25.48
 38.77     602.00      24.54
 38.87     619.96      24.90
 38.97     640.25      25.30
 39.07     547.39      23.40
 39.17     575.38      23.99
 39.27     580.38      24.09
 39.37     583.40      24.15
 39.47     597.00      24.43
 39.57     604.26      24.58
 39.67     591.00      24.31
 39.77     578.00      24.04
 39.87     585.00      24.19
 39.97     607.00      24.64
 40.07     558.20      23.63
 40.17     576.00      24.00
 40.27     602.35      24.54
 40.37     552.00      23.49
 40.47     597.00      24.43
 40.57     529.00      23.00
 40.67     563.00      23.73
 40.77     569.00      23.85
 40.87     532.00      23.07
 40.97     592.22      24.34
 41.07     569.00      23.85
 41.17     560.00      23.66
 41.27     573.00      23.94
 41.37     572.73      23.93
 41.47     563.40      23.74
 41.57     519.00      22.78
 41.67     606.15      24.62
 41.77     588.00      24.25
 41.87     555.00      23.56
 41.97     594.53      24.38
 42.07     559.00      23.64
 42.17     554.59      23.55
 42.27     552.00      23.49
 42.37     570.00      23.87
 42.47     569.00      23.85
 42.57     587.42      24.24
 42.67     661.31      25.72
 42.77     631.36      25.13
 42.87     619.00      24.88
 42.97     665.00      25.79
 43.07     652.00      25.53
 43.17     651.00      25.51
 43.27     607.00      24.64
 43.37     625.00      25.00
 43.47     612.68      24.75
 43.57     581.88      24.12
 43.67     603.00      24.56
 43.77     572.00      23.92
 43.87     572.00      23.92
 43.97     559.00      23.64
 44.07     567.00      23.81
 44.17     595.18      24.40
 44.27     569.81      23.87
 44.37     615.00      24.80
 44.47     605.00      24.60
 44.57     608.00      24.66
 44.67     569.00      23.85
 44.77     603.00      24.56
 44.87     606.22      24.62
 44.97     544.00      23.32
 45.07     619.70      24.89
 45.17     598.18      24.46
 45.27     580.75      24.10
 45.37     531.09      23.05
 45.47     591.00      24.31
 45.57     562.00      23.71
 45.67     596.00      24.41
 45.77     588.00      24.25
 45.87     586.00      24.21
 45.97     563.00      23.73
 46.07     619.00      24.88
 46.17     553.00      23.52
 46.27     588.00      24.25
 46.37     598.00      24.45
 46.47     576.00      24.00
 46.57     590.00      24.29
 46.67     589.00      24.27
 46.77     598.72      24.47
 46.87     588.00      24.25
 46.97     572.01      23.92
 47.07     598.00      24.45
 47.17     587.15      24.23
 47.27     610.00      24.70
 47.37     580.00      24.08
 47.47     585.00      24.19
 47.57     609.75      24.69
 47.67     573.42      23.95
 47.77     622.00      24.94
 47.87     617.57      24.85
 47.97     654.00      25.57
 48.07     664.00      25.77
 48.17     641.11      25.32
 48.27     626.65      25.03
 48.37     669.00      25.87
 48.47     647.49      25.45
 48.57     709.00      26.63
 48.67     600.91      24.51
 48.77     633.00      25.16
 48.87     625.00      25.00
 48.97     611.33      24.73
 49.07     572.01      23.92
 49.17     614.59      24.79
 49.27     635.00      25.20
 49.37     643.00      25.36
 49.47     619.00      24.88
 49.57     623.00      24.96
 49.67     698.00      26.42
 49.77     739.00      27.18
 49.87     810.00      28.46
 49.97     996.85      31.57
 50.07    1376.97      37.11
 50.17    1587.00      39.84
 50.27    2098.00      45.80
 50.37    2617.00      51.16
 50.47    2875.00      53.62
 50.57    3094.84      55.63
 50.67    2918.00      54.02
 50.77    2470.00      49.70
 50.87    1942.00      44.07
 50.97    1466.84      38.30
 51.07    1206.00      34.73
 51.17     955.06      30.90
 51.27     780.00      27.93
 51.37     781.31      27.95
 51.47     801.00      28.30
 51.57     724.32      26.91
 51.67     694.00      26.34
 51.77     706.76      26.58
 51.87     662.29      25.73
 51.97     678.00      26.04
 52.07     737.00      27.15
 52.17     613.38      24.77
 52.27     711.00      26.66
 52.37     682.51      26.12
 52.47     685.00      26.17
 52.57     660.00      25.69
 52.67     677.00      26.02
 52.77     668.00      25.85
 52.87     686.75      26.21
 52.97     690.00      26.27
 53.07     722.00      26.87
 53.17     711.00      26.66
 53.27     750.00      27.39
 53.37     767.00      27.69
 53.47     899.62      29.99
 53.57    1020.00      31.94
 53.67    1178.00      34.32
 53.77    1228.00      35.04
 53.87    1258.00      35.47
 53.97    1272.00      35.67
 54.07    1201.26      34.66
 54.17    1146.00      33.85
 54.27    1105.00      33.24
 54.37     877.00      29.61
 54.47     815.38      28.55
 54.57     755.00      27.48
 54.67     704.00      26.53
 54.77     660.00      25.69
 54.87     626.05      25.02
 54.97     661.00      25.71
 55.07     717.00      26.78
 55.17     633.00      25.16
 55.27     661.00      25.71
 55.37     614.72      24.79
 55.47     688.00      26.23
 55.57     655.00      25.59
 55.67     607.27      24.64
 55.77     638.00      25.26
 55.87     616.00      24.82
 55.97     711.90      26.68
 56.07     706.00      26.57
 56.17     712.00      26.68
 56.27     740.00      27.20
 56.37     738.00      27.17
 56.47     806.42      28.40
 56.57     923.00      30.38
 56.67    1146.00      33.85
 56.77    1288.44      35.89
 56.87    1666.18      40.82
 56.97    1982.00      44.52
 57.07    2282.00      47.77
 57.17    2529.00      50.29
 57.27    2706.38      52.02
 57.37    2555.39      50.55
 57.47    2324.65      48.21
 57.57    2091.00      45.73
 57.67    1783.08      42.23
 57.77    1470.00      38.34
 57.87    1218.00      34.90
 57.97    1081.07      32.88
 58.07     874.00      29.56
 58.17     828.10      28.78
 58.27     815.00      28.55
 58.37     776.00      27.86
 58.47     794.00      28.18
 58.57     822.64      28.68
 58.67     825.70      28.74
 58.77     931.00      30.51
 58.87     926.00      30.43
 58.97    1110.94      33.33
 59.07    1129.00      33.60
 59.17    1140.00      33.76
 59.27    1266.55      35.59
 59.37    1315.13      36.26
 59.47    1368.45      36.99
 59.57    1328.81      36.45
 59.67    1352.00      36.77
 59.77    1269.00      35.62
 59.87    1240.00      35.21
 59.97    1251.71      35.38
 60.07    1173.12      34.25
 60.17    1269.27      35.63
 60.27    1391.00      37.30
 60.37    1441.38      37.97
 60.47    1482.00      38.50
 60.57    1596.00      39.95
 60.67    1585.00      39.81
 60.77    1527.00      39.08
 60.87    1511.00      38.87
 60.97    1302.00      36.08
 61.07    1226.81      35.03
 61.17    1009.00      31.76
 61.27     937.00      30.61
 61.37     896.00      29.93
 61.47     832.28      28.85
 61.57     789.10      28.09
 61.67     795.30      28.20
 61.77     803.47      28.35
 61.87     846.00      29.09
 61.97     894.00      29.90
 62.07    1010.31      31.79
 62.17    1079.00      32.85
 62.27    1321.00      36.35
 62.37    1423.00      37.72
 62.47    1606.00      40.07
 62.57    1634.21      40.43
 62.67    1667.00      40.83
 62.77    1573.00      39.66
 62.87    1537.23      39.21
 62.97    1317.00      36.29
 63.07    1155.00      33.99
 63.17    1078.00      32.83
 63.27     960.32      30.99
 63.37     838.00      28.95
 63.47     803.29      28.34
 63.57     740.09      27.20
 63.67     730.00      27.02
 63.77     734.58      27.10
 63.87     716.00      26.76
 63.97     697.00      26.40
 64.07     703.00      26.51
 64.17     686.00      26.19
 64.27     742.00      27.24
 64.37     896.00      29.93
 64.47     858.00      29.29
 64.57     885.00      29.75
 64.67     938.83      30.64
 64.77    1121.00      33.48
 64.87    1248.00      35.33
 64.97    1343.00      36.65
 65.07    1408.00      37.52
 65.17    1435.00      37.88
 65.27    1441.67      37.97
 65.37    1344.00      36.66
 65.47    1220.02      34.93
 65.57    1233.00      35.11
 65.67    1085.00      32.94
 65.77    1044.00      32.31
 65.87     867.17      29.45
 65.97     860.00      29.33
 66.07     750.00      27.39
 66.17     737.00      27.15
 66.27     696.00      26.38
 66.37     726.00      26.94
 66.47     689.00      26.25
 66.57     703.00      26.51
 66.67     695.64      26.37
 66.77     616.00      24.82
 66.87     700.28      26.46
 66.97     678.80      26.05
 67.07     711.00      26.66
 67.17     727.00      26.96
 67.27     723.80      26.90
 67.37     692.00      26.31
 67.47     796.60      28.22
 67.57     775.79      27.85
 67.67     912.12      30.20
 67.77     943.00      30.71
 67.87    1073.55      32.76
 67.97    1239.00      35.20
 68.07    1438.00      37.92
 68.17    1646.66      40.58
 68.27    2018.34      44.93
 68.37    2137.00      46.23
 68.47    2446.97      49.47
 68.57    2449.00      49.49
 68.67    2509.00      50.09
 68.77    2468.00      49.68
 68.87    2251.56      47.45
 68.97    2043.00      45.20
 69.07    1791.64      42.33
 69.17    1540.00      39.24
 69.27    1294.00      35.97
 69.37    1110.37      33.32
 69.47     993.00      31.51
 69.57     910.00      30.17
 69.67     834.00      28.88
 69.77     844.00      29.05
 69.87     732.83      27.07
 69.97     728.70      26.99
 70.07     679.00      26.06
 70.17     626.34      25.03
 70.27     635.46      25.21
 70.37     676.43      26.01
 70.47     743.00      27.26
 70.57     699.00      26.44
 70.67     707.28      26.59
 70.77     645.00      25.40
 70.87     676.00      26.00
 70.97     687.00      26.21
 71.07     688.00      26.23
 71.17     676.60      26.01
 71.27     701.52      26.49
 71.37     763.00      27.62
 71.47     773.00      27.80
 71.57     767.00      27.69
 71.67     832.00      28.84
 71.77     905.88      30.10
 71.87    1030.42      32.10
 71.97    1198.55      34.62
 72.07    1335.00      36.54
 72.17    1540.28      39.25
 72.27    1593.27      39.92
 72.37    1781.00      42.20
 72.47    1972.00      44.41
 72.57    2027.99      45.03
 72.67    2037.28      45.14
 72.77    1925.00      43.87
 72.87    1725.00      41.53
 72.97    1585.00      39.81
 73.07    1423.00      37.72
 73.17    1259.53      35.49
 73.27    1184.94      34.42
 73.37    1022.00      31.97
 73.47     900.50      30.01
 73.57     793.00      28.16
 73.67     779.00      27.91
 73.77     707.00      26.59
 73.87     700.00      26.46
 73.97     714.53      26.73
 74.07     694.00      26.34
 74.17     617.00      24.84
 74.27     684.87      26.17
 74.37     697.75      26.41
 74.47     597.81      24.45
 74.57     694.83      26.36
 74.67     636.00      25.22
 74.77     597.35      24.44
 74.87     614.22      24.78
 74.97     694.00      26.34
 75.07     664.00      25.77
 75.17     708.50      26.62
 75.27     612.34      24.75
 75.37     681.80      26.11
 75.47     734.00      27.09
 75.57     644.00      25.38
 75.67     715.00      26.74
 75.77     713.00      26.70
 75.87     671.00      25.90
 75.97     638.00      25.26
 76.07     659.00      25.67
 76.17     615.00      24.80
 76.27     615.00      24.80
 76.37     698.00      26.42
 76.47     743.00      27.26
 76.57     748.90      27.37
 76.67     819.22      28.62
 76.77     854.22      29.23
 76.87     878.00      29.63
 76.97     909.18      30.15
 77.07     911.00      30.18
 77.17     984.08      31.37
 77.27     932.00      30.53
 77.37     971.31      31.17
 77.47     885.00      29.75
 77.57     893.00      29.88
 77.67     807.00      28.41
 77.77     832.00      28.84
 77.87     683.00      26.13
 77.97     671.46      25.91
 78.07     627.32      25.05
 78.17     680.87      26.09
 78.27     642.00      25.34
 78.37     614.00      24.78
 78.47     622.00      24.94
 78.57     632.00      25.14
 78.67     610.00      24.70
 78.77     639.68      25.29
 78.87     608.73      24.67
 78.97     618.00      24.86
 79.07     652.23      25.54
 79.17     614.00      24.78
 79.27     597.00      24.43
 79.37     646.95      25.44
 79.47     607.26      24.64
 79.57     600.60      24.51
 79.67     569.13      23.86
 79.77     631.00      25.12
 79.87     577.00      24.02
 79.97     591.00      24.31
 80.07     638.00      25.26
 80.17     615.93      24.82
 80.27     581.71      24.12
 80.37     645.00      25.40
 80.47     642.00      25.34
 80.57     649.66      25.49
 80.67     667.73      25.84
 80.77     745.00      27.29
 80.87     800.13      28.29
 80.97     872.00      29.53
 81.07     907.36      30.12
 81.17     916.44      30.27
 81.27    1130.00      33.62
 81.37    1123.00      33.51
 81.47    1221.00      34.94
 81.57    1270.00      35.64
 81.67    1323.00      36.37
 81.77    1269.00      35.62
 81.87    1261.94      35.52
 81.97    1216.05      34.87
 82.07    1204.73      34.71
 82.17    1136.00      33.70
 82.27    1081.31      32.88
 82.37     998.00      31.59
 82.47     910.87      30.18
 82.57     937.26      30.61
 82.67     877.61      29.62
 82.77     774.00      27.82
 82.87     789.00      28.09
 82.97     763.00      27.62
 83.07     704.84      26.55
 83.17     649.00      25.48
 83.27     675.00      25.98
 83.37     677.92      26.04
 83.47     685.88      26.19
 83.57     672.78      25.94
 83.67     622.00      24.94
 83.77     649.12      25.48
 83.87     618.00      24.86
 83.97     656.33      25.62
 84.07     593.72      24.37
 84.17     635.20      25.20
 84.27     672.92      25.94
 84.37     650.28      25.50
 84.47     654.00      25.57
 84.57     651.46      25.52
 84.67     620.00      24.90
 84.77     628.00      25.06
 84.87     680.44      26.09
 84.97     624.00      24.98
 85.07     606.00      24.62
 85.17     666.33      25.81
 85.27     635.30      25.21
 85.37     585.60      24.20
 85.47     572.75      23.93
 85.57     596.00      24.41
 85.67     567.00      23.81
 85.77     587.10      24.23
 85.87     599.00      24.47
 85.97     579.00      24.06
 86.07     557.00      23.60
 86.17     617.00      24.84
 86.27     580.00      24.08
 86.37     629.00      25.08
 86.47     668.00      25.85
 86.57     616.00      24.82
 86.67     604.00      24.58
 86.77     650.00      25.50
 86.87     619.05      24.88
 86.97     693.00      26.32
 87.07     652.00      25.53
 87.17     623.00      24.96
 87.27     640.00      25.30
 87.37     690.00      26.27
 87.47     660.00      25.69
 87.57     699.00      26.44
 87.67     680.00      26.08
 87.77     749.00      27.37
 87.87     711.00      26.66
 87.97     640.11      25.30
 88.07     721.20      26.86
 88.17     737.00      27.15
 88.27     732.00      27.06
 88.37     685.00      26.17
 88.47     700.00      26.46
 88.57     662.71      25.74
 88.67     704.00      26.53
 88.77     701.52      26.49
 88.87     699.64      26.45
 88.97     596.37      24.42
 89.07     622.62      24.95
 89.17     678.14      26.04
 89.27     573.00      23.94
 89.37     598.00      24.45
 89.47     648.40      25.46
 89.57     670.00      25.88
 89.67     664.00      25.77
 89.77     666.00      25.81
 89.87     619.54      24.89
 89.97     641.00      25.32
 90.07     663.00      25.75
 90.17     657.00      25.63
 90.27     692.00      26.31
 90.37     616.21      24.82
 90.47     672.41      25.93
 90.57     649.20      25.48
 90.67     643.00      25.36
 90.77     627.73      25.05
 90.87     638.02      25.26
 90.97     608.00      24.66
 91.07     578.31      24.05
 91.17     601.70      24.53
 91.27     591.00      24.31
 91.37     568.00      23.83
 91.47     588.00      24.25
 91.57     602.00      24.54
 91.67     621.18      24.92
 91.77     583.81      24.16
 91.87     579.00      24.06
 91.97     602.57      24.55
 92.07     583.38      24.15
 92.17     572.00      23.92
 92.27     553.11      23.52
 92.37     576.00      24.00
 92.47     626.00      25.02
 92.57     612.36      24.75
 92.67     636.00      25.22
 92.77     625.00      25.00
 92.87     582.16      24.13
 92.97     657.00      25.63
 93.07     686.20      26.20
 93.17     692.15      26.31
 93.27     683.61      26.15
 93.37     674.00      25.96
 93.47     680.84      26.09
 93.57     773.73      27.82
 93.67     758.00      27.53
 93.77     811.85      28.49
 93.87     768.00      27.71
 93.97     796.00      28.21
 94.07     759.00      27.55
 94.17     819.00      28.62
 94.27     793.00      28.16
 94.37     824.00      28.71
 94.47     822.41      28.68
 94.57     949.33      30.81
 94.67     872.86      29.54
 94.77     886.00      29.77
 94.87     952.00      30.85
 94.97     890.00      29.83
 95.07     960.00      30.98
 95.17     983.00      31.35
 95.27    1029.00      32.08
 95.37    1012.00      31.81
 95.47    1025.00      32.02
 95.57    1008.00      31.75
 95.67    1031.00      32.11
 95.77    1005.00      31.70
 95.87     974.72      31.22
 95.97     994.00      31.53
 96.07     900.17      30.00
 96.17     925.71      30.43
 96.27     916.00      30.27
 96.37     923.00      30.38
 96.47     830.00      28.81
 96.57     814.00      28.53
 96.67     839.00      28.97
 96.77     830.82      28.82
 96.87     866.00      29.43
 96.97     850.66      29.17
 97.07     853.00      29.21
 97.17     897.00      29.95
 97.27     908.51      30.14
 97.37     984.36      31.37
 97.47    1135.00      33.69
 97.57    1131.00      33.63
 97.67    1185.00      34.42
 97.77    1181.44      34.37
 97.87    1319.00      36.32
 97.97    1449.54      38.07
 98.07    1455.00      38.14
 98.17    1487.00      38.56
 98.27    1616.00      40.20
 98.37    1546.00      39.32
 98.47    1488.30      38.58
 98.57    1567.00      39.59
 98.67    1547.00      39.33
 98.77    1437.00      37.91
 98.87    1393.00      37.32
 98.97    1347.17      36.70
 99.07    1238.00      35.19
 99.17    1189.00      34.48
 99.27    1174.00      34.26
 99.37    1142.00      33.79
 99.47    1073.00      32.76
 99.57     993.00      31.51
 99.67     945.00      30.74
 99.77     929.00      30.48
 99.87     989.00      31.45
 99.97    1011.00      31.80
100.07    1031.00      32.11
100.17    1050.00      32.40
100.27    1076.20      32.81
100.37    1247.00      35.31
100.47    1256.12      35.44
100.57    1383.18      37.19
100.67    1466.49      38.29
100.77    1540.86      39.25
100.87    1655.00      40.68
100.97    1676.00      40.94
101.07    1718.38      41.45
101.17    1934.22      43.98
101.27    1865.11      43.19
101.37    2048.00      45.25
101.47    2036.00      45.12
101.57    2079.00      45.60
101.67    2047.06      45.24
101.77    2058.00      45.37
101.87    2192.00      46.82
101.97    2044.00      45.21
102.07    2054.45      45.33
102.17    1931.30      43.95
102.27    1842.66      42.93
102.37    1727.00      41.56
102.47    1763.26      41.99
102.57    1628.00      40.35
102.67    1546.32      39.32
102.77    1506.00      38.81
102.87    1515.79      38.93
102.97    1324.00      36.39
103.07    1326.00      36.41
103.17    1272.00      35.67
103.27    1241.00      35.23
103.37    1266.51      35.59
103.47    1226.19      35.02
103.57    1218.55      34.91
103.67    1136.00      33.70
103.77    1183.06      34.40
103.87    1091.94      33.04
103.97    1047.00      32.36
104.07    1088.32      32.99
104.17     971.79      31.17
104.27     928.00      30.46
104.37     885.84      29.76
104.47     858.00      29.29
104.57     828.00      28.77
104.67     762.00      27.60
104.77     729.00      27.00
104.87     790.00      28.11
104.97     727.00      26.96
105.07     650.11      25.50
105.17     691.00      26.29
105.27     658.00      25.65
105.37     639.00      25.28
105.47     635.00      25.20
105.57     638.00      25.26
105.67     640.00      25.30
105.77     568.99      23.85
105.87     641.00      25.32
105.97     576.00      24.00
106.07     650.00      25.50
106.17     622.34      24.95
106.27     625.32      25.01
106.37     628.00      25.06
106.47     635.00      25.20
106.57     577.81      24.04
106.67     584.00      24.17
106.77     645.00      25.40
106.87     596.00      24.41
106.97     631.00      25.12
107.07     684.00      26.15
107.17     655.00      25.59
107.27     636.00      25.22
107.37     679.00      26.06
107.47     727.38      26.97
107.57     703.57      26.52
107.67     712.00      26.68
107.77     687.00      26.21
107.87     735.00      27.11
107.97     798.44      28.26
108.07     733.00      27.07
108.17     719.25      26.82
108.27     751.00      27.40
108.37     825.00      28.72
108.47     730.00      27.02
108.57     757.28      27.52
108.67     762.00      27.60
108.77     818.16      28.60
108.87     729.00      27.00
108.97     805.00      28.37
109.07     755.46      27.49
109.17     734.00      27.09
109.27     703.00      26.51
109.37     741.00      27.22
109.47     757.00      27.51
109.57     732.62      27.07
109.67     769.81      27.75
109.77     737.00      27.15
109.87     756.00      27.50
109.97     748.00      27.35
110.07     773.40      27.81
110.17     757.00      27.51
110.27     795.01      28.20
110.37     729.00      27.00
110.47     733.00      27.07
110.57     739.73      27.20
110.67     699.00      26.44
110.77     722.99      26.89
110.87     642.00      25.34
110.97     663.00      25.75
111.07     665.09      25.79
111.17     599.00      24.47
111.27     686.61      26.20
111.37     666.49      25.82
111.47     672.00      25.92
111.57     581.57      24.12
111.67     598.07      24.46
111.77     644.00      25.38
111.87     608.94      24.68
111.97     589.24      24.27
112.07     626.21      25.02
112.17     559.00      23.64
112.27     619.00      24.88
112.37     614.09      24.78
112.47     584.00      24.17
112.57     606.00      24.62
112.67     600.15      24.50
112.77     563.42      23.74
112.87     595.00      24.39
112.97     609.00      24.68
113.07     618.00      24.86
113.17     619.20      24.88
113.27     633.00      25.16
113.37     609.00      24.68
113.47     599.16      24.48
113.57     600.21      24.50
113.67     619.00      24.88
113.77     658.46      25.66
113.87     636.00      25.22
113.97     644.75      25.39
114.07     624.00      24.98
114.17     677.00      26.02
114.27     674.00      25.96
114.37     696.72      26.40
114.47     705.00      26.55
114.57     744.69      27.29
114.67     713.60      26.71
114.77     699.00      26.44
114.87     753.51      27.45
114.97     881.00      29.68
115.07     893.00      29.88
115.17     859.00      29.31
115.27     963.00      31.03
115.37    1124.59      33.53
115.47    1170.00      34.21
115.57    1268.00      35.61
115.67    1422.00      37.71
115.77    1644.00      40.55
115.87    1853.00      43.05
115.97    1947.75      44.13
116.07    2235.00      47.28
116.17    2632.25      51.31
116.27    2782.00      52.74
116.37    3213.99      56.69
116.47    3616.57      60.14
116.57    3939.00      62.76
116.67    4261.00      65.28
116.77    4688.88      68.48
116.87    5019.00      70.84
116.97    5295.00      72.77
117.07    5836.80      76.40
117.17    6038.25      77.71
117.27    6603.00      81.26
117.37    6814.60      82.55
117.47    6994.00      83.63
117.57    7301.84      85.45
117.67    7457.00      86.35
117.77    7486.00      86.52
117.87    7376.00      85.88
117.97    7354.00      85.76
118.07    7259.00      85.20
118.17    7099.34      84.26
118.27    6847.93      82.75
118.37    6300.00      79.37
118.47    6115.00      78.20
118.57    5784.69      76.06
118.67    5457.00      73.87
118.77    5029.00      70.92
118.87    4701.00      68.56
118.97    4316.00      65.70
119.07    3887.89      62.35
119.17    3610.00      60.08
119.27    3321.00      57.63
119.37    2990.81      54.69
119.47    2646.83      51.45
119.57    2474.00      49.74
119.67    2097.07      45.79
119.77    1928.71      43.92
119.87    1749.19      41.82
119.97    1556.00      39.45
120.07    1501.00      38.74
120.17    1318.73      36.31
120.27    1243.00      35.26
120.37    1163.00      34.10
120.47    1110.00      33.32
120.57    1033.45      32.15
120.67     973.00      31.19
120.77     941.00      30.68
120.87     915.00      30.25
120.97     839.00      28.97
121.07     856.10      29.26
121.17     826.00      28.74
121.27     737.00      27.15
121.37     735.00      27.11
121.47     766.55      27.69
121.57     749.00      27.37
121.67     756.54      27.51
121.77     662.24      25.73
121.87     697.37      26.41
121.97     691.00      26.29
122.07     659.00      25.67
122.17     700.00      26.46
122.27     699.85      26.45
122.37     647.43      25.44
122.47     660.00      25.69
122.57     655.00      25.59
122.67     708.71      26.62
122.77     718.00      26.80
122.87     679.00      26.06
122.97     619.00      24.88
123.07     719.14      26.82
123.17     670.64      25.90
123.27     729.00      27.00
123.37     711.00      26.66
123.47     728.00      26.98
123.57     678.00      26.04
123.67     742.00      27.24
123.77     765.15      27.66
123.87     730.13      27.02
123.97     770.09      27.75
124.07     777.00      27.87
124.17     713.81      26.72
124.27     778.00      27.89
124.37     748.00      27.35
124.47     790.00      28.11
124.57     781.97      27.96
124.67     765.00      27.66
124.77     686.37      26.20
124.87     777.00      27.87
124.97     794.00      28.18
