  9.97     828.00      28.77
 10.07     815.00      28.55
 10.17     827.00      28.76
 10.27     730.80      27.03
 10.37     798.00      28.25
 10.47     796.09      28.22
 10.57     763.00      27.62
 10.67     798.00      28.25
 10.77     783.00      27.98
 10.87     741.00      27.22
 10.97     744.00      27.28
 11.07     730.59      27.03
 11.17     755.00      27.48
 11.27     820.00      28.64
 11.37     747.00      27.33
 11.47     784.00      28.00
 11.57     791.02      28.13
 11.67     716.46      26.77
 11.77     818.00      28.60
 11.87     807.00      28.41
 11.97     811.83      28.49
 12.07     896.00      29.93
 12.17     887.00      29.78
 12.27     901.00      30.02
 12.37     941.00      30.68
 12.47     905.00      30.08
 12.57     784.00      28.00
 12.67     787.00      28.05
 12.77     734.00      27.09
 12.87     773.00      27.80
 12.97     738.91      27.18
 13.07     695.00      26.36
 13.17     793.95      28.18
 13.27     722.00      26.87
 13.37     749.97      27.39
 13.47     680.71      26.09
 13.57     729.42      27.01
 13.67     716.00      26.76
 13.77     682.00      26.12
 13.87     704.00      26.53
 13.97     720.96      26.85
 14.07     748.00      27.35
 14.17     737.81      27.16
 14.27     736.00      27.13
 14.37     775.46      27.85
 14.47     766.46      27.68
 14.57     740.31      27.21
 14.67     711.00      26.66
 14.77     681.00      26.10
 14.87     664.72      25.78
 14.97     702.00      26.50
 15.07     684.00      26.15
 15.17     742.00      27.24
 15.27     715.14      26.74
 15.37     658.53      25.66
 15.47     735.00      27.11
 15.57     705.00      26.55
 15.67     675.00      25.98
 15.77     672.00      25.92
 15.87     712.00      26.68
 15.97     676.00      26.00
 16.07     684.00      26.15
 16.17     666.00      25.81
 16.27     677.00      26.02
 16.37     722.00      26.87
 16.47     706.00      26.57
 16.57     702.33      26.50
 16.67     671.82      25.92
 16.77     692.00      26.31
 16.87     719.00      26.81
 16.97     690.00      26.27
 17.07     673.00      25.94
 17.17     658.00      25.65
 17.27     649.16      25.48
 17.37     669.03      25.87
 17.47     733.00      27.07
 17.57     701.00      26.48
 17.67     718.00      26.80
 17.77     745.62      27.31
 17.87     642.00      25.34
 17.97     673.00      25.94
 18.07     643.07      25.36
 18.17     672.00      25.92
 18.27     743.53      27.27
 18.37     683.00      26.13
 18.47     626.00      25.02
 18.57     678.00      26.04
 18.67     691.57      26.30
 18.77     666.92      25.82
 18.87     722.34      26.88
 18.97     690.00      26.27
 19.07     657.00      25.63
 19.17     660.00      25.69
 19.27     694.23      26.35
 19.37     660.00      25.69
 19.47     643.00      25.36
 19.57     677.00      26.02
 19.67     634.37      25.19
 19.77     691.00      26.29
 19.87     661.61      25.72
 19.97     688.39      26.24
 20.07     707.00      26.59
 20.17     642.00      25.34
 20.27     669.00      25.87
 20.37     627.00      25.04
 20.47     672.00      25.92
 20.57     638.28      25.26
 20.67     682.00      26.12
 20.77     670.91      25.90
 20.87     656.58      25.62
 20.97     697.27      26.41
 21.07     659.85      25.69
 21.17     676.00      26.00
 21.27     669.00      25.87
 21.37     694.00      26.34
 21.47     651.00      25.51
 21.57     685.00      26.17
 21.67     714.39      26.73
 21.77     669.00      25.87
 21.87     635.00      25.20
 21.97     666.00      25.81
 22.07     702.61      26.51
 22.17     606.00      24.62
 22.27     670.00      25.88
 22.37     713.25      26.71
 22.47     665.00      25.79
 22.57     669.00      25.87
 22.67     672.00      25.92
 22.77     630.00      25.10
 22.87     636.00      25.22
 22.97     695.38      26.37
 23.07     661.18      25.71
 23.17     656.00      25.61
 23.27     677.54      26.03
 23.37     671.52      25.91
 23.47     590.00      24.29
 23.57     723.89      26.91
 23.67     611.00      24.72
 23.77     692.00      26.31
 23.87     652.29      25.54
 23.97     644.00      25.38
 24.07     662.49      25.74
 24.17     666.00      25.81
 24.27     639.37      25.29
 24.37     677.00      26.02
 24.47     713.00      26.70
 24.57     704.00      26.53
 24.67     721.00      26.85
 24.77     698.39      26.43
 24.87     785.00      28.02
 24.97     768.00      27.71
 25.07     768.00      27.71
 25.17     715.00      26.74
 25.27     772.31      27.79
 25.37     737.00      27.15
 25.47     701.00      26.48
 25.57     740.05      27.20
 25.67     662.49      25.74
 25.77     716.00      26.76
 25.87     717.00      26.78
 25.97     673.00      25.94
 26.07     711.00      26.66
 26.17     711.00      26.66
 26.27     662.17      25.73
 26.37     713.00      26.70
 26.47     706.00      26.57
 26.57     707.79      26.60
 26.67     711.00      26.66
 26.77     729.00      27.00
 26.87     680.26      26.08
 26.97     792.49      28.15
 27.07     722.00      26.87
 27.17     751.04      27.41
 27.27     728.79      27.00
 27.37     800.00      28.28
 27.47     775.00      27.84
 27.57     823.00      28.69
 27.67     905.00      30.08
 27.77     926.00      30.43
 27.87    1100.00      33.17
 27.97    1366.37      36.96
 28.07    2200.55      46.91
 28.17    3206.00      56.62
 28.27    5499.00      74.16
 28.37    8088.68      89.94
 28.47    9354.00      96.72
 28.57    9277.00      96.32
 28.67    7049.22      83.96
 28.77    5228.00      72.30
 28.87    4152.00      64.44
 28.97    4174.00      64.61
 29.07    4864.44      69.75
 29.17    5372.80      73.30
 29.27    5156.00      71.81
 29.37    3997.00      63.22
 29.47    2936.53      54.19
 29.57    2047.00      45.24
 29.67    1436.00      37.89
 29.77    1198.00      34.61
 29.87     908.09      30.13
 29.97     959.00      30.97
 30.07     946.00      30.76
 30.17     826.56      28.75
 30.27     815.83      28.56
 30.37     811.00      28.48
 30.47     784.69      28.01
 30.57     765.00      27.66
 30.67     715.88      26.76
 30.77     773.00      27.80
 30.87     777.00      27.87
 30.97     761.00      27.59
 31.07     820.00      28.64
 31.17     852.00      29.19
 31.27     818.00      28.60
 31.37     816.00      28.57
 31.47     817.00      28.58
 31.57     732.28      27.06
 31.67     706.62      26.58
 31.77     774.00      27.82
 31.87     712.55      26.69
 31.97     724.00      26.91
 32.07     654.30      25.58
 32.17     652.90      25.55
 32.27     705.99      26.57
 32.37     695.00      26.36
 32.47     696.00      26.38
 32.57     734.00      27.09
 32.67     722.00      26.87
 32.77     695.00      26.36
 32.87     694.00      26.34
 32.97     717.00      26.78
 33.07     622.37      24.95
 33.17     727.00      26.96
 33.27     671.00      25.90
 33.37     727.00      26.96
 33.47     649.53      25.49
 33.57     703.00      26.51
 33.67     700.26      26.46
 33.77     757.00      27.51
 33.87     784.48      28.01
 33.97     901.00      30.02
 34.07    1032.00      32.12
 34.17    1115.00      33.39
 34.27    1324.00      36.39
 34.37    1403.00      37.46
 34.47    1269.00      35.62
 34.57    1159.00      34.04
 34.67    1060.49      32.57
 34.77     945.77      30.75
 34.87     833.40      28.87
 34.97     759.19      27.55
 35.07     754.59      27.47
 35.17     703.00      26.51
 35.27     748.00      27.35
 35.37     643.06      25.36
 35.47     697.78      26.42
 35.57     688.92      26.25
 35.67     630.00      25.10
 35.77     705.00      26.55
 35.87     600.40      24.50
 35.97     716.00      26.76
 36.07     608.00      24.66
 36.17     624.00      24.98
 36.27     647.00      25.44
 36.37     673.00      25.94
 36.47     690.00      26.27
 36.57     665.00      25.79
 36.67     650.00      25.50
 36.77     683.00      26.13
 36.87     679.85      26.07
 36.97     636.00      25.22
 37.07     677.00      26.02
 37.17     674.00      25.96
 37.27     689.00      26.25
 37.37     674.00      25.96
 37.47     644.00      25.38
 37.57     665.00      25.79
 37.67     690.00      26.27
 37.77     670.00      25.88
 37.87     713.82      26.72
 37.97     726.41      26.95
 38.07     733.00      27.07
 38.17     772.06      27.79
 38.27     847.00      29.10
 38.37     800.16      28.29
 38.47     809.01      28.44
 38.57     730.00      27.02
 38.67     782.00      27.96
 38.77     704.00      26.53
 38.87     630.00      25.10
 38.97     669.00      25.87
 39.07     682.00      26.12
 39.17     648.67      25.47
 39.27     643.00      25.36
 39.37     622.84      24.96
 39.47     634.83      25.20
 39.57     703.14      26.52
 39.67     698.10      26.42
 39.77     659.00      25.67
 39.87     616.00      24.82
 39.97     676.00      26.00
 40.07     653.00      25.55
 40.17     630.00      25.10
 40.27     656.67      25.63
 40.37     679.00      26.06
 40.47     648.00      25.46
 40.57     635.00      25.20
 40.67     651.11      25.52
 40.77     620.06      24.90
 40.87     621.00      24.92
 40.97     642.00      25.34
 41.07     662.00      25.73
 41.17     633.58      25.17
 41.27     606.66      24.63
 41.37     589.36      24.28
 41.47     666.00      25.81
 41.57     632.00      25.14
 41.67     614.00      24.78
 41.77     650.00      25.50
 41.87     599.00      24.47
 41.97     610.12      24.70
 42.07     630.00      25.10
 42.17     621.00      24.92
 42.27     617.00      24.84
 42.37     614.37      24.79
 42.47     653.00      25.55
 42.57     605.00      24.60
 42.67     714.62      26.73
 42.77     680.21      26.08
 42.87     699.00      26.44
 42.97     694.69      26.36
 43.07     735.07      27.11
 43.17     702.46      26.50
 43.27     737.00      27.15
 43.37     735.00      27.11
 43.47     691.00      26.29
 43.57     710.00      26.65
 43.67     683.00      26.13
 43.77     630.73      25.11
 43.87     668.00      25.85
 43.97     654.00      25.57
 44.07     648.15      25.46
 44.17     673.00      25.94
 44.27     683.00      26.13
 44.37     671.00      25.90
 44.47     640.00      25.30
 44.57     683.00      26.13
 44.67     591.00      24.31
 44.77     643.00      25.36
 44.87     628.75      25.07
 44.97     632.00      25.14
 45.07     659.00      25.67
 45.17     684.43      26.16
 45.27     683.00      26.13
 45.37     642.00      25.34
 45.47     688.00      26.23
 45.57     666.63      25.82
 45.67     682.00      26.12
 45.77     668.60      25.86
 45.87     686.00      26.19
 45.97     651.65      25.53
 46.07     685.00      26.17
 46.17     648.00      25.46
 46.27     600.16      24.50
 46.37     615.82      24.82
 46.47     652.16      25.54
 46.57     654.05      25.57
 46.67     619.79      24.90
 46.77     602.21      24.54
 46.87     641.00      25.32
 46.97     641.00      25.32
 47.07     634.00      25.18
 47.17     678.12      26.04
 47.27     636.65      25.23
 47.37     672.49      25.93
 47.47     630.02      25.10
 47.57     696.00      26.38
 47.67     671.00      25.90
 47.77     685.97      26.19
 47.87     678.00      26.04
 47.97     708.13      26.61
 48.07     719.00      26.81
 48.17     747.00      27.33
 48.27     791.30      28.13
 48.37     749.00      27.37
 48.47     781.45      27.95
 48.57     716.14      26.76
 48.67     723.00      26.89
 48.77     683.00      26.13
 48.87     667.00      25.83
 48.97     690.00      26.27
 49.07     688.00      26.23
 49.17     691.00      26.29
 49.27     655.31      25.60
 49.37     661.62      25.72
 49.47     747.83      27.35
 49.57     681.00      26.10
 49.67     741.00      27.22
 49.77     833.50      28.87
 49.87     852.00      29.19
 49.97    1007.81      31.75
 50.07    1200.00      34.64
 50.17    1480.00      38.47
 50.27    1870.00      43.24
 50.37    2452.00      49.52
 50.47    2926.00      54.09
 50.57    3306.00      57.50
 50.67    3271.38      57.20
 50.77    3045.00      55.18
 50.87    2727.00      52.22
 50.97    2198.00      46.88
 51.07    1645.00      40.56
 51.17    1334.00      36.52
 51.27    1134.16      33.68
 51.37     948.00      30.79
 51.47     919.00      30.32
 51.57     808.89      28.44
 51.67     785.00      28.02
 51.77     783.00      27.98
 51.87     737.85      27.16
 51.97     719.29      26.82
 52.07     785.05      28.02
 52.17     713.00      26.70
 52.27     786.66      28.05
 52.37     726.00      26.94
 52.47     749.00      27.37
 52.57     767.08      27.70
 52.67     722.22      26.87
 52.77     685.09      26.17
 52.87     759.00      27.55
 52.97     741.00      27.22
 53.07     805.00      28.37
 53.17     732.37      27.06
 53.27     827.87      28.77
 53.37     816.00      28.57
 53.47     912.46      30.21
 53.57     929.00      30.48
 53.67    1038.64      32.23
 53.77    1185.00      34.42
 53.87    1234.00      35.13
 53.97    1299.00      36.04
 54.07    1385.00      37.22
 54.17    1365.86      36.96
 54.27    1311.06      36.21
 54.37    1172.02      34.23
 54.47    1023.00      31.98
 54.57     975.31      31.23
 54.67     845.21      29.07
 54.77     845.00      29.07
 54.87     768.00      27.71
 54.97     728.00      26.98
 55.07     755.00      27.48
 55.17     741.20      27.22
 55.27     714.00      26.72
 55.37     767.00      27.69
 55.47     663.57      25.76
 55.57     750.18      27.39
 55.67     700.36      26.46
 55.77     729.80      27.01
 55.87     723.00      26.89
 55.97     738.00      27.17
 56.07     792.56      28.15
 56.17     753.00      27.44
 56.27     756.69      27.51
 56.37     792.00      28.14
 56.47     766.00      27.68
 56.57     911.00      30.18
 56.67    1050.14      32.41
 56.77    1283.91      35.83
 56.87    1342.00      36.63
 56.97    1669.00      40.85
 57.07    2134.05      46.20
 57.17    2420.00      49.19
 57.27    2722.12      52.17
 57.37    2829.00      53.19
 57.47    2817.00      53.08
 57.57    2656.00      51.54
 57.67    2316.00      48.12
 57.77    1963.00      44.31
 57.87    1622.00      40.27
 57.97    1350.00      36.74
 58.07    1179.82      34.35
 58.17    1046.00      32.34
 58.27     906.00      30.10
 58.37     925.96      30.43
 58.47     867.10      29.45
 58.57     837.00      28.93
 58.67     907.00      30.12
 58.77     906.74      30.11
 58.87    1020.00      31.94
 58.97    1111.92      33.35
 59.07    1232.56      35.11
 59.17    1223.75      34.98
 59.27    1298.00      36.03
 59.37    1387.90      37.25
 59.47    1485.08      38.54
 59.57    1446.00      38.03
 59.67    1401.00      37.43
 59.77    1350.81      36.75
 59.87    1309.00      36.18
 59.97    1295.00      35.99
 60.07    1324.00      36.39
 60.17    1309.59      36.19
 60.27    1411.24      37.57
 60.37    1433.48      37.86
 60.47    1509.00      38.85
 60.57    1623.32      40.29
 60.67    1670.42      40.87
 60.77    1673.00      40.90
 60.87    1652.00      40.64
 60.97    1603.04      40.04
 61.07    1410.00      37.55
 61.17    1303.00      36.10
 61.27    1185.00      34.42
 61.37    1027.00      32.05
 61.47     973.62      31.20
 61.57     916.00      30.27
 61.67     939.00      30.64
 61.77     895.62      29.93
 61.87     933.00      30.55
 61.97     934.00      30.56
 62.07     995.93      31.56
 62.17    1139.92      33.76
 62.27    1258.07      35.47
 62.37    1398.00      37.39
 62.47    1663.00      40.78
 62.57    1854.59      43.06
 62.67    1920.00      43.82
 62.77    1949.00      44.15
 62.87    1935.00      43.99
 62.97    1855.00      43.07
 63.07    1604.00      40.05
 63.17    1479.79      38.47
 63.27    1249.00      35.34
 63.37    1149.19      33.90
 63.47     929.37      30.49
 63.57     922.00      30.36
 63.67     875.00      29.58
 63.77     844.53      29.06
 63.87     767.00      27.69
 63.97     818.00      28.60
 64.07     722.96      26.89
 64.17     830.58      28.82
 64.27     849.00      29.14
 64.37     802.00      28.32
 64.47     881.00      29.68
 64.57     957.00      30.94
 64.67     988.00      31.43
 64.77    1126.00      33.56
 64.87    1237.00      35.17
 64.97    1414.00      37.60
 65.07    1538.00      39.22
 65.17    1584.52      39.81
 65.27    1778.00      42.17
 65.37    1702.00      41.26
 65.47    1611.00      40.14
 65.57    1588.75      39.86
 65.67    1454.94      38.14
 65.77    1380.00      37.15
 65.87    1100.00      33.17
 65.97    1088.00      32.98
 66.07    1024.00      32.00
 66.17     881.00      29.68
 66.27     856.56      29.27
 66.37     818.05      28.60
 66.47     826.93      28.76
 66.57     773.00      27.80
 66.67     741.00      27.22
 66.77     708.00      26.61
 66.87     735.26      27.12
 66.97     775.00      27.84
 67.07     756.00      27.50
 67.17     796.69      28.23
 67.27     731.00      27.04
 67.37     752.92      27.44
 67.47     761.00      27.59
 67.57     856.00      29.26
 67.67     821.00      28.65
 67.77     879.00      29.65
 67.87     970.16      31.15
 67.97    1157.08      34.02
 68.07    1182.00      34.38
 68.17    1493.00      38.64
 68.27    1735.94      41.66
 68.37    1831.00      42.79
 68.47    2159.00      46.47
 68.57    2362.06      48.60
 68.67    2504.00      50.04
 68.77    2558.00      50.58
 68.87    2448.00      49.48
 68.97    2275.41      47.70
 69.07    2178.00      46.67
 69.17    1905.00      43.65
 69.27    1750.00      41.83
 69.37    1464.00      38.26
 69.47    1350.00      36.74
 69.57    1155.00      33.99
 69.67    1028.00      32.06
 69.77     948.73      30.80
 69.87     936.00      30.59
 69.97     829.49      28.80
 70.07     868.00      29.46
 70.17     799.50      28.28
 70.27     802.66      28.33
 70.37     752.00      27.42
 70.47     763.00      27.62
 70.57     751.00      27.40
 70.67     704.44      26.54
 70.77     739.00      27.18
 70.87     692.34      26.31
 70.97     715.00      26.74
 71.07     735.00      27.11
 71.17     792.98      28.16
 71.27     698.00      26.42
 71.37     785.14      28.02
 71.47     765.00      27.66
 71.57     816.79      28.58
 71.67     828.00      28.77
 71.77     912.00      30.20
 71.87     968.00      31.11
 71.97    1143.03      33.81
 72.07    1182.00      34.38
 72.17    1333.00      36.51
 72.27    1569.44      39.62
 72.37    1743.67      41.76
 72.47    1859.19      43.12
 72.57    2009.00      44.82
 72.67    2057.00      45.35
 72.77    2018.00      44.92
 72.87    2086.74      45.68
 72.97    1908.00      43.68
 73.07    1667.95      40.84
 73.17    1561.00      39.51
 73.27    1442.51      37.98
 73.37    1312.00      36.22
 73.47    1183.02      34.39
 73.57     960.26      30.99
 73.67     911.00      30.18
 73.77     902.00      30.03
 73.87     838.00      28.95
 73.97     822.03      28.67
 74.07     763.00      27.62
 74.17     794.50      28.19
 74.27     746.00      27.31
 74.37     723.00      26.89
 74.47     746.00      27.31
 74.57     768.00      27.71
 74.67     701.00      26.48
 74.77     690.00      26.27
 74.87     689.00      26.25
 74.97     745.00      27.29
 75.07     758.18      27.54
 75.17     793.51      28.17
 75.27     740.39      27.21
 75.37     770.00      27.75
 75.47     744.19      27.28
 75.57     729.62      27.01
 75.67     783.00      27.98
 75.77     766.00      27.68
 75.87     737.00      27.15
 75.97     714.14      26.72
 76.07     801.00      28.30
 76.17     776.00      27.86
 76.27     730.00      27.02
 76.37     787.00      28.05
 76.47     779.00      27.91
 76.57     814.22      28.53
 76.67     830.00      28.81
 76.77     879.00      29.65
 76.87     941.00      30.68
 76.97    1074.92      32.79
 77.07     991.00      31.48
 77.17    1065.15      32.64
 77.27    1153.00      33.96
 77.37    1134.00      33.67
 77.47    1090.07      33.02
 77.57    1165.00      34.13
 77.67    1024.16      32.00
 77.77     927.36      30.45
 77.87     924.00      30.40
 77.97     929.00      30.48
 78.07     815.00      28.55
 78.17     863.46      29.38
 78.27     817.90      28.60
 78.37     787.92      28.07
 78.47     760.26      27.57
 78.57     698.71      26.43
 78.67     734.40      27.10
 78.77     667.00      25.83
 78.87     680.82      26.09
 78.97     663.00      25.75
 79.07     662.00      25.73
 79.17     645.00      25.40
 79.27     654.00      25.57
 79.37     676.52      26.01
 79.47     626.70      25.03
 79.57     653.00      25.55
 79.67     734.00      27.09
 79.77     636.93      25.24
 79.87     648.00      25.46
 79.97     659.00      25.67
 80.07     673.00      25.94
 80.17     649.09      25.48
 80.27     700.00      26.46
 80.37     732.00      27.06
 80.47     749.00      27.37
 80.57     756.00      27.50
 80.67     782.53      27.97
 80.77     826.00      28.74
 80.87     891.67      29.86
 80.97     962.00      31.02
 81.07     992.00      31.50
 81.17    1088.00      32.98
 81.27    1216.00      34.87
 81.37    1218.26      34.90
 81.47    1348.44      36.72
 81.57    1365.91      36.96
 81.67    1573.00      39.66
 81.77    1628.89      40.36
 81.87    1667.00      40.83
 81.97    1584.64      39.81
 82.07    1694.00      41.16
 82.17    1532.00      39.14
 82.27    1468.00      38.31
 82.37    1375.26      37.08
 82.47    1354.00      36.80
 82.57    1218.37      34.91
 82.67    1153.00      33.96
 82.77    1065.00      32.63
 82.87     974.00      31.21
 82.97     949.00      30.81
 83.07     866.00      29.43
 83.17     788.00      28.07
 83.27     785.00      28.02
 83.37     742.00      27.24
 83.47     726.00      26.94
 83.57     730.47      27.03
 83.67     691.00      26.29
 83.77     704.00      26.53
 83.87     682.00      26.12
 83.97     748.94      27.37
 84.07     669.53      25.88
 84.17     729.00      27.00
 84.27     760.49      27.58
 84.37     730.00      27.02
 84.47     767.59      27.71
 84.57     778.02      27.89
 84.67     676.00      26.00
 84.77     750.00      27.39
 84.87     712.70      26.70
 84.97     778.33      27.90
 85.07     715.35      26.75
 85.17     753.47      27.45
 85.27     712.57      26.69
 85.37     679.00      26.06
 85.47     697.00      26.40
 85.57     734.38      27.10
 85.67     656.73      25.63
 85.77     643.00      25.36
 85.87     672.00      25.92
 85.97     674.00      25.96
 86.07     659.00      25.67
 86.17     634.00      25.18
 86.27     678.00      26.04
 86.37     634.75      25.19
 86.47     676.00      26.00
 86.57     721.41      26.86
 86.67     698.28      26.43
 86.77     638.69      25.27
 86.87     720.75      26.85
 86.97     688.53      26.24
 87.07     721.07      26.85
 87.17     705.00      26.55
 87.27     688.00      26.23
 87.37     724.00      26.91
 87.47     749.58      27.38
 87.57     751.80      27.42
 87.67     724.00      26.91
 87.77     778.00      27.89
 87.87     725.74      26.94
 87.97     797.00      28.23
 88.07     743.43      27.27
 88.17     716.90      26.77
 88.27     791.00      28.12
 88.37     753.01      27.44
 88.47     760.00      27.57
 88.57     811.00      28.48
 88.67     743.00      27.26
 88.77     789.00      28.09
 88.87     770.00      27.75
 88.97     694.58      26.35
 89.07     718.00      26.80
 89.17     711.00      26.66
 89.27     701.79      26.49
 89.37     719.02      26.81
 89.47     695.00      26.36
 89.57     712.00      26.68
 89.67     703.18      26.52
 89.77     714.00      26.72
 89.87     732.00      27.06
 89.97     722.00      26.87
 90.07     720.71      26.85
 90.17     685.02      26.17
 90.27     708.00      26.61
 90.37     678.51      26.05
 90.47     681.00      26.10
 90.57     758.81      27.55
 90.67     694.21      26.35
 90.77     743.00      27.26
 90.87     638.02      25.26
 90.97     689.34      26.26
 91.07     662.05      25.73
 91.17     626.00      25.02
 91.27     647.00      25.44
 91.37     676.00      26.00
 91.47     686.00      26.19
 91.57     622.00      24.94
 91.67     606.00      24.62
 91.77     609.23      24.68
 91.87     641.00      25.32
 91.97     587.00      24.23
 92.07     620.00      24.90
 92.17     618.00      24.86
 92.27     593.48      24.36
 92.37     647.00      25.44
 92.47     663.00      25.75
 92.57     646.00      25.42
 92.67     681.00      26.10
 92.77     680.55      26.09
 92.87     699.00      26.44
 92.97     643.00      25.36
 93.07     692.00      26.31
 93.17     680.62      26.09
 93.27     686.00      26.19
 93.37     689.00      26.25
 93.47     795.41      28.20
 93.57     674.00      25.96
 93.67     843.00      29.03
 93.77     832.00      28.84
 93.87     860.13      29.33
 93.97     775.30      27.84
 94.07     806.78      28.40
 94.17     834.42      28.89
 94.27     851.00      29.17
 94.37     913.68      30.23
 94.47     912.72      30.21
 94.57     957.25      30.94
 94.67     901.40      30.02
 94.77    1007.73      31.74
 94.87     995.00      31.54
 94.97    1038.61      32.23
 95.07    1048.00      32.37
 95.17    1029.00      32.08
 95.27    1057.48      32.52
 95.37    1066.00      32.65
 95.47    1131.99      33.65
 95.57    1104.00      33.23
 95.67    1026.41      32.04
 95.77    1082.00      32.89
 95.87    1139.00      33.75
 95.97    1013.42      31.83
 96.07    1119.29      33.46
 96.17    1106.00      33.26
 96.27     998.00      31.59
 96.37    1014.10      31.84
 96.47     961.00      31.00
 96.57     912.00      30.20
 96.67     857.92      29.29
 96.77     875.00      29.58
 96.87     848.00      29.12
 96.97     892.00      29.87
 97.07     853.00      29.21
 97.17     851.00      29.17
 97.27     903.75      30.06
 97.37     882.52      29.71
 97.47    1026.00      32.03
 97.57    1088.42      32.99
 97.67    1049.14      32.39
 97.77    1152.00      33.94
 97.87    1190.00      34.50
 97.97    1333.87      36.52
 98.07    1382.00      37.18
 98.17    1463.00      38.25
 98.27    1464.00      38.26
 98.37    1601.30      40.02
 98.47    1569.00      39.61
 98.57    1651.00      40.63
 98.67    1607.00      40.09
 98.77    1655.00      40.68
 98.87    1606.17      40.08
 98.97    1560.00      39.50
 99.07    1563.00      39.53
 99.17    1487.00      38.56
 99.27    1398.00      37.39
 99.37    1337.00      36.57
 99.47    1244.90      35.28
 99.57    1170.00      34.21
 99.67    1136.00      33.70
 99.77    1119.00      33.45
 99.87    1120.95      33.48
 99.97    1028.00      32.06
100.07    1038.82      32.23
100.17    1105.07      33.24
100.27    1098.00      33.14
100.37    1068.00      32.68
100.47    1225.46      35.01
100.57    1230.00      35.07
100.67    1300.00      36.06
100.77    1366.00      36.96
100.87    1500.00      38.73
100.97    1568.00      39.60
101.07    1657.00      40.71
101.17    1796.00      42.38
101.27    1793.00      42.34
101.37    1984.83      44.55
101.47    1945.00      44.10
101.57    2055.00      45.33
101.67    2087.00      45.68
101.77    2126.00      46.11
101.87    2168.73      46.57
101.97    2227.00      47.19
102.07    2154.40      46.42
102.17    2088.00      45.69
102.27    2171.93      46.60
102.37    2107.00      45.90
102.47    2052.00      45.30
102.57    1848.73      43.00
102.67    1926.00      43.89
102.77    1790.00      42.31
102.87    1697.00      41.19
102.97    1650.00      40.62
103.07    1640.00      40.50
103.17    1574.17      39.68
103.27    1408.00      37.52
103.37    1472.64      38.37
103.47    1427.00      37.78
103.57    1328.00      36.44
103.67    1319.41      36.32
103.77    1252.00      35.38
103.87    1285.00      35.85
103.97    1258.00      35.47
104.07    1154.86      33.98
104.17    1179.00      34.34
104.27    1171.41      34.23
104.37    1118.00      33.44
104.47    1089.00      33.00
104.57    1007.00      31.73
104.67    1000.63      31.63
104.77     930.08      30.50
104.87     848.00      29.12
104.97     857.00      29.27
105.07     756.77      27.51
105.17     817.00      28.58
105.27     702.52      26.51
105.37     718.37      26.80
105.47     758.75      27.55
105.57     746.00      27.31
105.67     733.00      27.07
105.77     684.58      26.16
105.87     653.80      25.57
105.97     714.00      26.72
106.07     675.00      25.98
106.17     692.00      26.31
106.27     644.00      25.38
106.37     626.00      25.02
106.47     628.00      25.06
106.57     709.00      26.63
106.67     657.65      25.64
106.77     689.00      26.25
106.87     688.00      26.23
106.97     639.18      25.28
107.07     687.00      26.21
107.17     695.00      26.36
107.27     651.35      25.52
107.37     692.00      26.31
107.47     708.00      26.61
107.57     730.00      27.02
107.67     721.37      26.86
107.77     741.00      27.22
107.87     729.00      27.00
107.97     788.00      28.07
108.07     817.00      28.58
108.17     752.00      27.42
108.27     831.21      28.83
108.37     787.64      28.07
108.47     786.00      28.04
108.57     797.00      28.23
108.67     821.00      28.65
108.77     843.71      29.05
108.87     864.41      29.40
108.97     830.00      28.81
109.07     812.00      28.50
109.17     800.00      28.28
109.27     807.00      28.41
109.37     806.00      28.39
109.47     781.45      27.95
109.57     763.00      27.62
109.67     876.56      29.61
109.77     872.43      29.54
109.87     798.00      28.25
109.97     782.00      27.96
110.07     846.00      29.09
110.17     820.37      28.64
110.27     782.00      27.96
110.37     816.00      28.57
110.47     823.00      28.69
110.57     824.00      28.71
110.67     775.00      27.84
110.77     827.00      28.76
110.87     815.00      28.55
110.97     815.00      28.55
111.07     800.00      28.28
111.17     742.39      27.25
111.27     765.00      27.66
111.37     786.00      28.04
111.47     764.00      27.64
111.57     719.00      26.81
111.67     686.07      26.19
111.77     708.00      26.61
111.87     733.77      27.09
111.97     645.00      25.40
112.07     695.00      26.36
112.17     708.00      26.61
112.27     665.00      25.79
112.37     618.00      24.86
112.47     696.00      26.38
112.57     667.00      25.83
112.67     669.06      25.87
112.77     695.43      26.37
112.87     663.36      25.76
112.97     638.00      25.26
113.07     636.40      25.23
113.17     656.24      25.62
113.27     666.00      25.81
113.37     663.00      25.75
113.47     631.67      25.13
113.57     669.00      25.87
113.67     645.00      25.40
113.77     705.08      26.55
113.87     711.33      26.67
113.97     620.00      24.90
114.07     684.00      26.15
114.17     663.00      25.75
114.27     717.91      26.79
114.37     673.00      25.94
114.47     774.71      27.83
114.57     731.00      27.04
114.67     737.00      27.15
114.77     732.00      27.06
114.87     761.00      27.59
114.97     830.52      28.82
115.07     824.95      28.72
115.17     828.00      28.77
115.27     877.75      29.63
115.37     941.00      30.68
115.47    1045.00      32.33
115.57    1087.00      32.97
115.67    1132.00      33.65
115.77    1261.63      35.52
115.87    1415.45      37.62
115.97    1585.00      39.81
116.07    1806.04      42.50
116.17    1939.00      44.03
116.27    2238.00      47.31
116.37    2411.00      49.10
116.47    2788.30      52.80
116.57    2947.55      54.29
116.67    3352.00      57.90
116.77    3538.00      59.48
116.87    3973.00      63.03
116.97    4534.57      67.34
117.07    4780.00      69.14
117.17    5084.00      71.30
117.27    5507.00      74.21
117.37    5942.45      77.09
117.47    6334.00      79.59
117.57    6604.00      81.26
117.67    6834.78      82.67
117.77    7227.00      85.01
117.87    7386.00      85.94
117.97    7583.00      87.08
118.07    7730.24      87.92
118.17    7547.36      86.88
118.27    7605.00      87.21
118.37    7579.00      87.06
118.47    7384.00      85.93
118.57    7008.72      83.72
118.67    6670.00      81.67
118.77    6282.89      79.26
118.87    5956.00      77.18
118.97    5704.31      75.53
119.07    5212.17      72.20
119.17    4956.09      70.40
119.27    4648.00      68.18
119.37    4327.00      65.78
119.47    3905.00      62.49
119.57    3633.00      60.27
119.67    3160.22      56.22
119.77    2898.00      53.83
119.87    2609.82      51.09
119.97    2425.00      49.24
120.07    2240.00      47.33
120.17    2011.48      44.85
120.27    1857.00      43.09
120.37    1581.87      39.77
120.47    1583.00      39.79
120.57    1449.00      38.07
120.67    1324.00      36.39
120.77    1250.00      35.36
120.87    1081.00      32.88
120.97     998.89      31.61
121.07    1122.00      33.50
121.17    1061.00      32.57
121.27     881.32      29.69
121.37     948.00      30.79
121.47     874.90      29.58
121.57     867.25      29.45
121.67     781.92      27.96
121.77     866.62      29.44
121.87     771.79      27.78
121.97     749.00      27.37
122.07     761.00      27.59
122.17     775.00      27.84
122.27     808.62      28.44
122.37     783.61      27.99
122.47     712.29      26.69
122.57     708.49      26.62
122.67     805.56      28.38
122.77     725.00      26.93
122.87     725.00      26.93
122.97     715.00      26.74
123.07     762.00      27.60
123.17     757.10      27.52
123.27     821.24      28.66
123.37     792.55      28.15
123.47     811.13      28.48
123.57     852.57      29.20
123.67     767.00      27.69
123.77     788.00      28.07
123.87     837.00      28.93
123.97     818.07      28.60
124.07     760.42      27.58
124.17     851.00      29.17
124.27     874.38      29.57
124.37     821.00      28.65
124.47     830.00      28.81
124.57     900.00      30.00
124.67     820.98      28.65
124.77     861.48      29.35
124.87     821.00      28.65
124.97     825.14      28.73
