  9.97     719.11
 10.07     716.95
 10.17     681.08
 10.27     727.05
 10.37     657.46
 10.47     722.00
 10.57     684.00
 10.67     692.00
 10.77     708.00
 10.87     708.00
 10.97     724.00
 11.07     693.00
 11.17     733.00
 11.27     699.00
 11.37     690.00
 11.47     638.69
 11.57     715.13
 11.67     689.00
 11.77     791.00
 11.87     783.00
 11.97     784.00
 12.07     731.00
 12.17     800.00
 12.27     823.66
 12.37     790.00
 12.47     767.00
 12.57     731.00
 12.67     683.00
 12.77     648.00
 12.87     685.00
 12.97     702.75
 13.07     636.00
 13.17     707.00
 13.27     639.00
 13.37     637.00
 13.47     635.00
 13.57     639.00
 13.67     634.57
 13.77     632.00
 13.87     679.56
 13.97     612.00
 14.07     620.00
 14.17     641.03
 14.27     614.00
 14.37     592.00
 14.47     666.08
 14.57     626.00
 14.67     610.17
 14.77     682.67
 14.87     596.00
 14.97     651.00
 15.07     651.00
 15.17     642.00
 15.27     600.00
 15.37     665.00
 15.47     654.00
 15.57     622.00
 15.67     617.00
 15.77     619.00
 15.87     646.09
 15.97     639.00
 16.07     658.00
 16.17     624.00
 16.27     629.00
 16.37     645.00
 16.47     644.00
 16.57     668.45
 16.67     623.00
 16.77     590.00
 16.87     599.29
 16.97     621.00
 17.07     623.00
 17.17     624.00
 17.27     653.00
 17.37     615.00
 17.47     673.45
 17.57     623.00
 17.67     652.92
 17.77     580.00
 17.87     618.00
 17.97     623.00
 18.07     641.00
 18.17     592.31
 18.27     629.00
 18.37     590.45
 18.47     634.44
 18.57     592.00
 18.67     617.00
 18.77     631.16
 18.87     593.00
 18.97     645.65
 19.07     587.67
 19.17     597.00
 19.27     587.00
 19.37     600.00
 19.47     603.00
 19.57     636.00
 19.67     603.00
 19.77     639.00
 19.87     586.39
 19.97     628.00
 20.07     612.00
 20.17     622.37
 20.27     649.84
 20.37     587.00
 20.47     607.26
 20.57     622.34
 20.67     590.00
 20.77     634.00
 20.87     574.00
 20.97     569.00
 21.07     628.61
 21.17     637.68
 21.27     579.62
 21.37     624.00
 21.47     599.00
 21.57     603.00
 21.67     615.00
 21.77     565.77
 21.87     636.66
 21.97     591.00
 22.07     601.58
 22.17     622.00
 22.27     658.01
 22.37     640.00
 22.47     643.24
 22.57     600.09
 22.67     649.13
 22.77     609.00
 22.87     602.00
 22.97     651.21
 23.07     587.00
 23.17     631.00
 23.27     583.75
 23.37     656.06
 23.47     570.00
 23.57     645.00
 23.67     602.42
 23.77     586.00
 23.87     636.00
 23.97     650.00
 24.07     589.00
 24.17     583.00
 24.27     616.00
 24.37     666.00
 24.47     637.00
 24.57     612.40
 24.67     658.00
 24.77     628.54
 24.87     760.00
 24.97     692.00
 25.07     639.66
 25.17     713.00
 25.27     623.10
 25.37     686.00
 25.47     587.11
 25.57     608.00
 25.67     628.00
 25.77     649.77
 25.87     661.00
 25.97     574.89
 26.07     629.00
 26.17     641.00
 26.27     640.00
 26.37     654.00
 26.47     650.49
 26.57     642.00
 26.67     640.00
 26.77     612.00
 26.87     683.52
 26.97     594.67
 27.07     705.00
 27.17     670.55
 27.27     628.40
 27.37     691.00
 27.47     692.54
 27.57     675.00
 27.67     788.61
 27.77     816.14
 27.87     997.00
 27.97    1234.00
 28.07    1963.75
 28.17    2890.00
 28.27    4255.00
 28.37    5500.03
 28.47    5605.93
 28.57    4814.00
 28.67    3629.00
 28.77    2732.00
 28.87    2550.00
 28.97    2890.00
 29.07    3260.00
 29.17    3309.00
 29.27    2674.57
 29.37    2027.63
 29.47    1462.00
 29.57    1113.24
 29.67     963.00
 29.77     889.00
 29.87     787.00
 29.97     729.00
 30.07     696.36
 30.17     725.57
 30.27     629.38
 30.37     701.00
 30.47     634.00
 30.57     683.00
 30.67     657.00
 30.77     701.00
 30.87     712.37
 30.97     730.00
 31.07     697.67
 31.17     727.00
 31.27     691.17
 31.37     711.00
 31.47     662.00
 31.57     653.00
 31.67     616.34
 31.77     634.00
 31.87     579.00
 31.97     565.44
 32.07     645.00
 32.17     613.00
 32.27     630.00
 32.37     600.23
 32.47     638.00
 32.57     620.00
 32.67     590.00
 32.77     577.00
 32.87     638.00
 32.97     577.49
 33.07     608.00
 33.17     586.00
 33.27     592.00
 33.37     639.87
 33.47     623.00
 33.57     666.00
 33.67     620.22
 33.77     696.86
 33.87     775.00
 33.97     867.00
 34.07     987.00
 34.17    1060.00
 34.27    1097.00
 34.37    1118.00
 34.47     978.00
 34.57     899.00
 34.67     752.00
 34.77     712.11
 34.87     652.00
 34.97     637.00
 35.07     634.00
 35.17     564.78
 35.27     633.00
 35.37     561.88
 35.47     606.00
 35.57     611.00
 35.67     562.00
 35.77     621.54
 35.87     612.00
 35.97     562.00
 36.07     599.00
 36.17     595.00
 36.27     566.00
 36.37     559.00
 36.47     546.72
 36.57     555.11
 36.67     616.00
 36.77     532.03
 36.87     587.54
 36.97     563.00
 37.07     550.13
 37.17     619.00
 37.27     609.00
 37.37     590.61
 37.47     563.00
 37.57     587.78
 37.67     612.00
 37.77     549.00
 37.87     579.23
 37.97     688.68
 38.07     710.77
 38.17     693.00
 38.27     720.62
 38.37     674.49
 38.47     628.00
 38.57     624.00
 38.67     612.00
 38.77     590.00
 38.87     585.06
 38.97     512.00
 39.07     607.00
 39.17     607.20
 39.27     584.00
 39.37     595.00
 39.47     568.00
 39.57     535.24
 39.67     573.67
 39.77     618.00
 39.87     601.75
 39.97     598.58
 40.07     602.47
 40.17     527.00
 40.27     570.73
 40.37     557.00
 40.47     551.00
 40.57     561.00
 40.67     577.05
 40.77     548.00
 40.87     534.00
 40.97     566.00
 41.07     524.00
 41.17     526.87
 41.27     581.02
 41.37     513.00
 41.47     555.60
 41.57     577.00
 41.67     597.31
 41.77     590.00
 41.87     557.00
 41.97     565.30
 42.07     546.00
 42.17     566.00
 42.27     570.61
 42.37     557.20
 42.47     577.79
 42.57     578.00
 42.67     593.70
 42.77     623.00
 42.87     628.00
 42.97     644.62
 43.07     664.00
 43.17     601.00
 43.27     601.00
 43.37     616.28
 43.47     559.17
 43.57     580.76
 43.67     582.53
 43.77     606.74
 43.87     537.00
 43.97     566.00
 44.07     605.00
 44.17     617.00
 44.27     572.00
 44.37     603.70
 44.47     536.76
 44.57     558.00
 44.67     587.80
 44.77     538.52
 44.87     595.01
 44.97     533.00
 45.07     594.38
 45.17     560.00
 45.27     534.56
 45.37     565.64
 45.47     585.00
 45.57     604.74
 45.67     561.68
 45.77     610.16
 45.87     563.64
 45.97     584.00
 46.07     525.17
 46.17     552.00
 46.27     572.00
 46.37     550.85
 46.47     555.00
 46.57     561.09
 46.67     602.50
 46.77     537.70
 46.87     558.33
 46.97     612.00
 47.07     565.00
 47.17     528.88
 47.27     579.89
 47.37     549.00
 47.47     652.00
 47.57     630.00
 47.67     624.00
 47.77     573.63
 47.87     605.52
 47.97     679.76
 48.07     672.00
 48.17     659.00
 48.27     653.00
 48.37     645.00
 48.47     620.00
 48.57     590.41
 48.67     588.80
 48.77     604.00
 48.87     598.00
 48.97     573.52
 49.07     645.00
 49.17     572.64
 49.27     582.69
 49.37     593.89
 49.47     675.21
 49.57     591.00
 49.67     708.00
 49.77     722.63
 49.87     822.00
 49.97    1012.00
 50.07    1322.00
 50.17    1658.00
 50.27    2136.00
 50.37    2605.00
 50.47    2780.92
 50.57    2843.00
 50.67    2667.00
 50.77    2214.00
 50.87    1727.00
 50.97    1302.00
 51.07    1051.00
 51.17     960.88
 51.27     851.00
 51.37     769.00
 51.47     738.51
 51.57     709.00
 51.67     687.00
 51.77     699.00
 51.87     652.00
 51.97     608.05
 52.07     624.00
 52.17     659.00
 52.27     657.82
 52.37     664.00
 52.47     651.00
 52.57     639.00
 52.67     675.00
 52.77     646.13
 52.87     645.00
 52.97     663.00
 53.07     674.00
 53.17     716.00
 53.27     800.96
 53.37     831.00
 53.47     931.00
 53.57    1010.01
 53.67    1111.99
 53.77    1160.93
 53.87    1265.00
 53.97    1270.00
 54.07    1183.00
 54.17    1102.00
 54.27     940.00
 54.37     805.00
 54.47     791.00
 54.57     752.37
 54.67     713.00
 54.77     681.70
 54.87     655.89
 54.97     672.00
 55.07     623.00
 55.17     667.00
 55.27     609.79
 55.37     656.46
 55.47     653.00
 55.57     595.91
 55.67     651.00
 55.77     647.00
 55.87     665.02
 55.97     618.64
 56.07     700.42
 56.17     735.31
 56.27     701.19
 56.37     770.00
 56.47     801.00
 56.57    1044.59
 56.67    1140.55
 56.77    1360.00
 56.87    1766.00
 56.97    2114.00
 57.07    2380.97
 57.17    2568.56
 57.27    2719.13
 57.37    2586.00
 57.47    2315.00
 57.57    2045.54
 57.67    1676.00
 57.77    1322.00
 57.87    1147.00
 57.97     939.08
 58.07     839.13
 58.17     856.73
 58.27     758.00
 58.37     735.36
 58.47     774.00
 58.57     860.22
 58.67     796.00
 58.77     922.00
 58.87     997.00
 58.97    1099.00
 59.07    1196.00
 59.17    1180.00
 59.27    1347.40
 59.37    1257.90
 59.47    1256.00
 59.57    1212.46
 59.67    1299.89
 59.77    1279.00
 59.87    1207.36
 59.97    1246.00
 60.07    1176.34
 60.17    1263.00
 60.27    1378.00
 60.37    1466.00
 60.47    1536.00
 60.57    1598.00
 60.67    1605.00
 60.77    1497.00
 60.87    1356.64
 60.97    1290.00
 61.07    1156.15
 61.17     949.85
 61.27     899.00
 61.37     819.63
 61.47     794.00
 61.57     764.00
 61.67     766.07
 61.77     795.34
 61.87     819.00
 61.97     930.00
 62.07     990.00
 62.17    1153.49
 62.27    1348.00
 62.37    1490.55
 62.47    1643.91
 62.57    1587.00
 62.67    1614.20
 62.77    1431.00
 62.87    1334.00
 62.97    1187.00
 63.07    1019.00
 63.17     987.52
 63.27     873.00
 63.37     777.00
 63.47     763.00
 63.57     712.00
 63.67     690.00
 63.77     639.75
 63.87     647.00
 63.97     699.00
 64.07     685.12
 64.17     735.00
 64.27     779.00
 64.37     857.00
 64.47     833.07
 64.57     960.00
 64.67    1020.00
 64.77    1040.46
 64.87    1165.86
 64.97    1372.00
 65.07    1375.00
 65.17    1334.11
 65.27    1356.82
 65.37    1288.00
 65.47    1227.00
 65.57    1118.00
 65.67     989.00
 65.77     926.00
 65.87     850.00
 65.97     802.38
 66.07     731.00
 66.17     752.00
 66.27     663.70
 66.37     677.00
 66.47     600.00
 66.57     684.00
 66.67     642.04
 66.77     711.12
 66.87     697.28
 66.97     617.00
 67.07     625.00
 67.17     679.00
 67.27     704.07
 67.37     679.00
 67.47     781.85
 67.57     786.00
 67.67     855.00
 67.77     997.00
 67.87    1155.00
 67.97    1361.00
 68.07    1589.60
 68.17    1814.55
 68.27    1960.97
 68.37    2212.60
 68.47    2512.82
 68.57    2478.00
 68.67    2421.00
 68.77    2236.46
 68.87    2190.00
 68.97    1845.32
 69.07    1685.00
 69.17    1384.00
 69.27    1143.73
 69.37    1030.70
 69.47     939.33
 69.57     812.11
 69.67     718.21
 69.77     704.40
 69.87     662.85
 69.97     771.00
 70.07     632.50
 70.17     701.10
 70.27     701.64
 70.37     702.00
 70.47     687.00
 70.57     656.00
 70.67     691.87
 70.77     691.22
 70.87     660.00
 70.97     649.10
 71.07     714.00
 71.17     672.00
 71.27     640.00
 71.37     677.26
 71.47     803.00
 71.57     776.81
 71.67     899.00
 71.77     983.00
 71.87    1050.50
 71.97    1252.00
 72.07    1417.00
 72.17    1520.00
 72.27    1637.00
 72.37    1852.68
 72.47    1999.92
 72.57    1902.00
 72.67    1824.53
 72.77    1772.71
 72.87    1701.00
 72.97    1438.00
 73.07    1373.00
 73.17    1151.97
 73.27    1027.00
 73.37     865.00
 73.47     822.00
 73.57     768.67
 73.67     780.27
 73.77     706.00
 73.87     717.38
 73.97     701.69
 74.07     684.78
 74.17     635.28
 74.27     696.00
 74.37     677.11
 74.47     627.34
 74.57     678.00
 74.67     604.00
 74.77     616.00
 74.87     619.00
 74.97     692.00
 75.07     701.00
 75.17     692.00
 75.27     691.00
 75.37     680.00
 75.47     725.00
 75.57     659.00
 75.67     656.00
 75.77     620.00
 75.87     641.00
 75.97     604.69
 76.07     638.45
 76.17     688.57
 76.27     664.00
 76.37     719.36
 76.47     678.22
 76.57     778.00
 76.67     780.00
 76.77     819.94
 76.87     868.52
 76.97     875.00
 77.07     881.00
 77.17     895.00
 77.27     884.00
 77.37     913.92
 77.47     825.00
 77.57     791.00
 77.67     811.43
 77.77     761.61
 77.87     685.00
 77.97     678.00
 78.07     629.00
 78.17     673.45
 78.27     648.00
 78.37     653.47
 78.47     604.26
 78.57     593.00
 78.67     623.00
 78.77     586.00
 78.87     569.23
 78.97     628.88
 79.07     581.00
 79.17     590.00
 79.27     602.00
 79.37     578.00
 79.47     588.00
 79.57     587.67
 79.67     599.00
 79.77     571.00
 79.87     594.00
 79.97     576.00
 80.07     648.82
 80.17     617.00
 80.27     595.00
 80.37     652.00
 80.47     653.42
 80.57     635.12
 80.67     702.00
 80.77     751.00
 80.87     755.60
 80.97     829.00
 81.07     922.00
 81.17     962.00
 81.27    1031.00
 81.37    1152.00
 81.47    1210.00
 81.57    1104.83
 81.67    1092.83
 81.77    1197.00
 81.87    1216.00
 81.97    1204.00
 82.07    1076.00
 82.17    1094.00
 82.27    1045.04
 82.37     914.77
 82.47     900.66
 82.57     849.00
 82.67     806.00
 82.77     810.00
 82.87     766.02
 82.97     743.00
 83.07     651.00
 83.17     633.00
 83.27     655.00
 83.37     598.00
 83.47     640.00
 83.57     624.00
 83.67     627.00
 83.77     615.00
 83.87     636.00
 83.97     621.00
 84.07     607.00
 84.17     653.00
 84.27     612.99
 84.37     607.00
 84.47     659.00
 84.57     642.24
 84.67     601.00
 84.77     624.00
 84.87     592.58
 84.97     657.71
 85.07     591.00
 85.17     600.00
 85.27     544.00
 85.37     583.00
 85.47     575.46
 85.57     607.00
 85.67     574.29
 85.77     627.79
 85.87     592.00
 85.97     578.00
 86.07     600.00
 86.17     573.00
 86.27     587.00
 86.37     608.00
 86.47     561.54
 86.57     597.00
 86.67     590.00
 86.77     576.00
 86.87     661.17
 86.97     635.46
 87.07     647.79
 87.17     681.00
 87.27     692.00
 87.37     620.95
 87.47     631.14
 87.57     687.00
 87.67     719.58
 87.77     720.23
 87.87     736.00
 87.97     648.79
 88.07     736.62
 88.17     722.00
 88.27     640.00
 88.37     694.00
 88.47     681.00
 88.57     660.00
 88.67     696.00
 88.77     657.00
 88.87     662.83
 88.97     617.64
 89.07     695.00
 89.17     651.00
 89.27     601.00
 89.37     582.68
 89.47     624.00
 89.57     628.00
 89.67     613.00
 89.77     641.74
 89.87     658.00
 89.97     626.73
 90.07     623.00
 90.17     658.00
 90.27     637.00
 90.37     605.69
 90.47     680.00
 90.57     613.00
 90.67     623.00
 90.77     640.58
 90.87     562.00
 90.97     550.63
 91.07     572.00
 91.17     568.00
 91.27     570.00
 91.37     568.00
 91.47     618.08
 91.57     559.50
 91.67     572.55
 91.77     532.00
 91.87     595.14
 91.97     559.00
 92.07     551.00
 92.17     603.00
 92.27     522.00
 92.37     563.31
 92.47     598.00
 92.57     553.95
 92.67     633.15
 92.77     578.00
 92.87     611.00
 92.97     589.00
 93.07     633.00
 93.17     655.00
 93.27     651.25
 93.37     697.00
 93.47     691.00
 93.57     734.00
 93.67     714.01
 93.77     773.00
 93.87     828.00
 93.97     799.00
 94.07     806.00
 94.17     825.00
 94.27     869.00
 94.37     836.41
 94.47     908.00
 94.57     914.00
 94.67     931.09
 94.77     947.00
 94.87     942.96
 94.97     911.58
 95.07     988.00
 95.17     926.00
 95.27    1049.99
 95.37     988.18
 95.47     977.56
 95.57    1025.16
 95.67     928.38
 95.77     959.00
 95.87     927.00
 95.97     924.00
 96.07     913.60
 96.17     818.85
 96.27     857.00
 96.37     764.09
 96.47     832.35
 96.57     730.98
 96.67     773.98
 96.77     819.23
 96.87     833.00
 96.97     772.69
 97.07     866.00
 97.17     886.21
 97.27     915.35
 97.37     996.00
 97.47    1030.00
 97.57    1096.00
 97.67    1204.00
 97.77    1314.00
 97.87    1370.00
 97.97    1473.00
 98.07    1424.08
 98.17    1520.00
 98.27    1658.00
 98.37    1589.00
 98.47    1629.00
 98.57    1613.00
 98.67    1518.83
 98.77    1379.00
 98.87    1310.00
 98.97    1235.47
 99.07    1229.00
 99.17    1159.00
 99.27    1145.00
 99.37    1035.00
 99.47    1064.00
 99.57    1003.13
 99.67     979.00
 99.77     970.00
 99.87     954.00
 99.97    1006.00
100.07    1066.00
100.17    1106.00
100.27    1129.86
100.37    1240.00
100.47    1330.99
100.57    1376.04
100.67    1527.79
100.77    1635.00
100.87    1673.00
100.97    1761.00
101.07    1897.92
101.17    1944.00
101.27    1957.39
101.37    1946.29
101.47    2038.53
101.57    2077.00
101.67    2042.48
101.77    2037.00
101.87    1972.73
101.97    2017.29
102.07    1989.15
102.17    1852.00
102.27    1771.76
102.37    1653.00
102.47    1521.00
102.57    1632.33
102.67    1580.84
102.77    1514.51
102.87    1369.00
102.97    1376.04
103.07    1273.00
103.17    1290.03
103.27    1216.00
103.37    1187.00
103.47    1177.00
103.57    1168.00
103.67    1139.00
103.77    1093.60
103.87    1021.00
103.97    1075.21
104.07     978.00
104.17     949.00
104.27     857.13
104.37     874.00
104.47     755.00
104.57     788.00
104.67     734.00
104.77     741.00
104.87     711.00
104.97     708.00
105.07     650.00
105.17     614.41
105.27     635.00
105.37     669.00
105.47     606.00
105.57     644.00
105.67     626.00
105.77     563.99
105.87     559.00
105.97     605.00
106.07     558.83
106.17     566.00
106.27     597.00
106.37     595.00
106.47     566.37
106.57     609.00
106.67     621.00
106.77     611.08
106.87     642.00
106.97     584.08
107.07     701.00
107.17     652.00
107.27     662.00
107.37     688.00
107.47     653.00
107.57     692.00
107.67     665.64
107.77     682.79
107.87     751.00
107.97     756.00
108.07     733.69
108.17     742.00
108.27     758.00
108.37     766.00
108.47     704.00
108.57     756.00
108.67     788.00
108.77     736.00
108.87     790.06
108.97     770.73
109.07     731.00
109.17     715.00
109.27     743.76
109.37     760.00
109.47     740.23
109.57     745.01
109.67     732.36
109.77     733.32
109.87     737.00
109.97     732.00
110.07     754.19
110.17     760.76
110.27     730.60
110.37     713.00
110.47     702.00
110.57     673.00
110.67     714.63
110.77     699.00
110.87     644.00
110.97     691.82
111.07     661.00
111.17     643.45
111.27     641.31
111.37     637.50
111.47     642.00
111.57     604.00
111.67     635.00
111.77     560.00
111.87     570.80
111.97     569.00
112.07     585.00
112.17     525.00
112.27     582.00
112.37     609.00
112.47     605.21
112.57     620.00
112.67     602.00
112.77     560.00
112.87     602.00
112.97     610.49
113.07     603.00
113.17     616.00
113.27     607.00
113.37     570.39
113.47     589.00
113.57     574.00
113.67     573.41
113.77     624.00
113.87     654.00
113.97     607.85
114.07     663.60
114.17     610.70
114.27     652.00
114.37     694.00
114.47     698.59
114.57     697.00
114.67     714.62
114.77     747.00
114.87     829.00
114.97     895.47
115.07     880.59
115.17     950.82
115.27    1063.72
115.37    1191.20
115.47    1285.00
115.57    1420.00
115.67    1494.00
115.77    1841.44
115.87    1942.35
115.97    2262.10
116.07    2521.37
116.17    2878.00
116.27    3084.00
116.37    3341.36
116.47    3715.43
116.57    4157.00
116.67    4568.32
116.77    4795.00
116.87    5234.00
116.97    5605.00
117.07    6097.78
117.17    6360.00
117.27    6784.68
117.37    6860.00
117.47    7298.00
117.57    7332.00
117.67    7480.00
117.77    7263.77
117.87    7174.18
117.97    7291.38
118.07    7131.00
118.17    6728.00
118.27    6432.00
118.37    5988.00
118.47    5608.00
118.57    5216.00
118.67    4941.06
118.77    4631.00
118.87    4165.30
118.97    3796.83
119.07    3545.40
119.17    3173.84
119.27    2875.00
119.37    2647.00
119.47    2417.00
119.57    2142.00
119.67    1966.00
119.77    1734.00
119.87    1554.48
119.97    1432.60
120.07    1288.39
120.17    1228.00
120.27    1161.00
120.37    1078.36
120.47    1039.00
120.57     916.97
120.67     931.39
120.77     875.40
120.87     859.97
120.97     797.00
121.07     803.00
121.17     734.00
121.27     745.00
121.37     706.00
121.47     724.00
121.57     743.40
121.67     637.00
121.77     620.00
121.87     731.39
121.97     690.18
122.07     659.00
122.17     639.00
122.27     685.00
122.37     650.00
122.47     697.71
122.57     656.00
122.67     672.00
122.77     685.00
122.87     635.00
122.97     670.00
123.07     679.00
123.17     732.90
123.27     700.00
123.37     739.00
123.47     754.32
123.57     704.20
123.67     675.00
123.77     760.00
123.87     784.00
123.97     735.00
124.07     762.00
124.17     775.00
124.27     776.00
124.37     719.00
124.47     764.00
124.57     776.00
124.67     757.00
124.77     711.00
124.87     804.00
124.97     756.00
