  9.97     706.00
 10.07     732.94
 10.17     729.46
 10.27     675.00
 10.37     748.00
 10.47     638.84
 10.57     738.00
 10.67     734.44
 10.77     738.00
 10.87     689.00
 10.97     642.64
 11.07     683.00
 11.17     714.00
 11.27     746.00
 11.37     719.00
 11.47     654.30
 11.57     712.00
 11.67     758.00
 11.77     729.00
 11.87     748.53
 11.97     807.00
 12.07     868.00
 12.17     776.00
 12.27     826.55
 12.37     852.00
 12.47     820.00
 12.57     740.00
 12.67     675.00
 12.77     670.00
 12.87     648.00
 12.97     638.93
 13.07     612.00
 13.17     663.00
 13.27     661.00
 13.37     683.84
 13.47     627.00
 13.57     630.00
 13.67     662.00
 13.77     685.00
 13.87     719.00
 13.97     642.00
 14.07     673.00
 14.17     684.81
 14.27     662.10
 14.37     634.00
 14.47     666.00
 14.57     655.00
 14.67     640.00
 14.77     644.73
 14.87     648.00
 14.97     660.00
 15.07     670.00
 15.17     618.00
 15.27     679.00
 15.37     643.00
 15.47     631.00
 15.57     602.00
 15.67     650.25
 15.77     642.00
 15.87     698.76
 15.97     609.00
 16.07     655.40
 16.17     626.05
 16.27     678.23
 16.37     689.63
 16.47     610.80
 16.57     601.00
 16.67     606.00
 16.77     608.13
 16.87     634.00
 16.97     632.00
 17.07     598.00
 17.17     618.26
 17.27     631.00
 17.37     597.34
 17.47     652.00
 17.57     602.00
 17.67     607.00
 17.77     623.00
 17.87     596.00
 17.97     623.00
 18.07     626.63
 18.17     640.00
 18.27     619.00
 18.37     669.41
 18.47     663.09
 18.57     623.00
 18.67     657.00
 18.77     625.00
 18.87     610.00
 18.97     628.00
 19.07     593.00
 19.17     624.00
 19.27     596.56
 19.37     670.53
 19.47     628.00
 19.57     576.00
 19.67     656.00
 19.77     575.00
 19.87     615.00
 19.97     615.00
 20.07     607.00
 20.17     599.89
 20.27     613.67
 20.37     596.00
 20.47     609.00
 20.57     629.36
 20.67     619.00
 20.77     575.48
 20.87     658.00
 20.97     591.27
 21.07     628.00
 21.17     601.00
 21.27     614.00
 21.37     589.19
 21.47     593.00
 21.57     608.07
 21.67     604.00
 21.77     652.69
 21.87     664.29
 21.97     615.10
 22.07     607.00
 22.17     620.00
 22.27     612.00
 22.37     619.00
 22.47     646.00
 22.57     598.00
 22.67     616.00
 22.77     649.00
 22.87     612.00
 22.97     623.76
 23.07     594.00
 23.17     624.00
 23.27     647.00
 23.37     616.98
 23.47     631.00
 23.57     600.00
 23.67     663.91
 23.77     625.00
 23.87     570.34
 23.97     573.00
 24.07     615.00
 24.17     653.00
 24.27     621.00
 24.37     617.00
 24.47     647.00
 24.57     676.95
 24.67     600.46
 24.77     688.03
 24.87     692.63
 24.97     702.00
 25.07     697.00
 25.17     683.00
 25.27     685.00
 25.37     675.00
 25.47     639.00
 25.57     611.00
 25.67     669.04
 25.77     598.31
 25.87     664.57
 25.97     642.00
 26.07     632.25
 26.17     614.00
 26.27     595.29
 26.37     585.01
 26.47     615.00
 26.57     589.00
 26.67     630.00
 26.77     666.00
 26.87     617.55
 26.97     679.87
 27.07     652.00
 27.17     700.50
 27.27     652.00
 27.37     667.00
 27.47     712.00
 27.57     776.00
 27.67     759.00
 27.77     870.22
 27.87     979.63
 27.97    1271.00
 28.07    1981.06
 28.17    2997.00
 28.27    4716.00
 28.37    6140.00
 28.47    6633.00
 28.57    5558.59
 28.67    4355.00
 28.77    3244.00
 28.87    2866.00
 28.97    3199.00
 29.07    3565.59
 29.17    3666.00
 29.27    3390.00
 29.37    2470.00
 29.47    1742.00
 29.57    1235.00
 29.67    1020.00
 29.77     881.00
 29.87     789.00
 29.97     740.68
 30.07     755.00
 30.17     729.00
 30.27     683.00
 30.37     712.97
 30.47     610.67
 30.57     628.16
 30.67     670.99
 30.77     618.54
 30.87     673.34
 30.97     726.00
 31.07     722.00
 31.17     833.00
 31.27     719.00
 31.37     718.00
 31.47     689.00
 31.57     676.00
 31.67     660.18
 31.77     707.00
 31.87     671.00
 31.97     598.00
 32.07     647.00
 32.17     611.00
 32.27     605.00
 32.37     640.00
 32.47     653.00
 32.57     599.00
 32.67     635.90
 32.77     631.82
 32.87     647.00
 32.97     650.00
 33.07     591.43
 33.17     627.00
 33.27     600.00
 33.37     624.00
 33.47     642.85
 33.57     642.00
 33.67     678.02
 33.77     730.35
 33.87     738.00
 33.97     888.00
 34.07     955.36
 34.17    1106.74
 34.27    1207.00
 34.37    1169.00
 34.47    1080.50
 34.57     943.00
 34.67     759.00
 34.77     696.00
 34.87     709.84
 34.97     702.00
 35.07     583.96
 35.17     606.46
 35.27     593.54
 35.37     640.51
 35.47     668.00
 35.57     602.09
 35.67     586.00
 35.77     598.00
 35.87     615.00
 35.97     541.16
 36.07     556.61
 36.17     568.00
 36.27     537.63
 36.37     602.00
 36.47     592.00
 36.57     553.00
 36.67     605.00
 36.77     550.00
 36.87     588.64
 36.97     552.77
 37.07     588.00
 37.17     559.46
 37.27     565.00
 37.37     632.73
 37.47     582.00
 37.57     545.00
 37.67     602.94
 37.77     613.31
 37.87     605.59
 37.97     633.00
 38.07     686.00
 38.17     702.00
 38.27     711.74
 38.37     674.47
 38.47     649.89
 38.57     673.70
 38.67     634.48
 38.77     614.00
 38.87     571.00
 38.97     593.00
 39.07     550.00
 39.17     593.54
 39.27     570.00
 39.37     591.58
 39.47     568.00
 39.57     581.49
 39.67     564.00
 39.77     576.00
 39.87     572.00
 39.97     561.00
 40.07     594.54
 40.17     581.73
 40.27     581.00
 40.37     607.28
 40.47     592.36
 40.57     600.62
 40.67     540.00
 40.77     606.86
 40.87     543.00
 40.97     558.00
 41.07     585.32
 41.17     551.00
 41.27     618.76
 41.37     528.17
 41.47     540.00
 41.57     561.00
 41.67     597.00
 41.77     571.00
 41.87     556.00
 41.97     594.00
 42.07     532.50
 42.17     581.48
 42.27     557.00
 42.37     595.63
 42.47     643.00
 42.57     564.00
 42.67     608.00
 42.77     656.00
 42.87     626.00
 42.97     631.00
 43.07     736.59
 43.17     680.00
 43.27     690.68
 43.37     635.00
 43.47     587.00
 43.57     552.00
 43.67     583.40
 43.77     581.00
 43.87     605.00
 43.97     566.00
 44.07     613.79
 44.17     550.22
 44.27     541.73
 44.37     551.28
 44.47     565.80
 44.57     606.00
 44.67     547.00
 44.77     544.71
 44.87     613.12
 44.97     536.54
 45.07     603.00
 45.17     565.00
 45.27     595.00
 45.37     561.00
 45.47     567.00
 45.57     584.00
 45.67     609.88
 45.77     617.77
 45.87     566.00
 45.97     588.20
 46.07     588.00
 46.17     589.40
 46.27     585.00
 46.37     597.00
 46.47     577.53
 46.57     609.30
 46.67     568.07
 46.77     574.00
 46.87     597.47
 46.97     564.00
 47.07     564.65
 47.17     596.89
 47.27     614.00
 47.37     533.00
 47.47     569.00
 47.57     550.19
 47.67     572.00
 47.77     611.00
 47.87     596.00
 47.97     640.00
 48.07     621.73
 48.17     712.00
 48.27     610.00
 48.37     660.99
 48.47     680.78
 48.57     640.00
 48.67     595.46
 48.77     585.00
 48.87     636.00
 48.97     596.00
 49.07     632.00
 49.17     626.62
 49.27     659.80
 49.37     597.00
 49.47     657.70
 49.57     646.00
 49.67     722.55
 49.77     714.00
 49.87     801.00
 49.97    1029.00
 50.07    1253.00
 50.17    1621.00
 50.27    2115.00
 50.37    2598.00
 50.47    2892.00
 50.57    2923.00
 50.67    2807.00
 50.77    2381.00
 50.87    1928.00
 50.97    1499.00
 51.07    1177.00
 51.17     987.00
 51.27     902.00
 51.37     732.96
 51.47     821.00
 51.57     778.00
 51.67     726.39
 51.77     696.00
 51.87     719.00
 51.97     679.90
 52.07     694.00
 52.17     654.00
 52.27     686.00
 52.37     609.59
 52.47     702.00
 52.57     688.00
 52.67     643.51
 52.77     621.00
 52.87     676.33
 52.97     696.84
 53.07     707.00
 53.17     729.00
 53.27     770.46
 53.37     842.00
 53.47     858.00
 53.57    1010.40
 53.67    1076.00
 53.77    1158.00
 53.87    1242.00
 53.97    1301.54
 54.07    1239.00
 54.17    1185.00
 54.27     963.00
 54.37     935.00
 54.47     800.00
 54.57     789.05
 54.67     680.00
 54.77     669.08
 54.87     641.00
 54.97     656.00
 55.07     665.00
 55.17     650.81
 55.27     634.00
 55.37     662.00
 55.47     605.99
 55.57     674.00
 55.67     669.00
 55.77     603.03
 55.87     645.00
 55.97     689.00
 56.07     689.00
 56.17     709.00
 56.27     681.23
 56.37     740.65
 56.47     814.93
 56.57    1009.95
 56.67    1061.00
 56.77    1293.65
 56.87    1594.21
 56.97    2031.00
 57.07    2250.98
 57.17    2550.00
 57.27    2679.00
 57.37    2531.16
 57.47    2364.00
 57.57    2067.00
 57.67    1834.85
 57.77    1350.00
 57.87    1221.00
 57.97     999.00
 58.07     882.00
 58.17     794.85
 58.27     778.00
 58.37     779.00
 58.47     749.00
 58.57     854.08
 58.67     833.00
 58.77     825.00
 58.87     968.21
 58.97    1061.63
 59.07    1146.00
 59.17    1199.50
 59.27    1319.72
 59.37    1302.00
 59.47    1398.00
 59.57    1259.31
 59.67    1257.89
 59.77    1233.00
 59.87    1268.00
 59.97    1146.32
 60.07    1211.00
 60.17    1263.94
 60.27    1346.98
 60.37    1384.03
 60.47    1521.00
 60.57    1574.00
 60.67    1526.97
 60.77    1542.31
 60.87    1518.00
 60.97    1359.00
 61.07    1143.03
 61.17    1026.00
 61.27     939.31
 61.37     855.00
 61.47     767.73
 61.57     749.00
 61.67     739.74
 61.77     753.70
 61.87     879.23
 61.97     902.64
 62.07    1034.04
 62.17    1183.97
 62.27    1286.00
 62.37    1451.00
 62.47    1574.00
 62.57    1623.00
 62.67    1641.00
 62.77    1571.00
 62.87    1455.09
 62.97    1336.17
 63.07    1117.00
 63.17    1012.94
 63.27     891.00
 63.37     794.00
 63.47     760.00
 63.57     725.00
 63.67     727.00
 63.77     733.00
 63.87     663.79
 63.97     701.66
 64.07     688.86
 64.17     690.32
 64.27     717.11
 64.37     785.00
 64.47     914.00
 64.57     862.07
 64.67    1051.00
 64.77    1136.00
 64.87    1267.15
 64.97    1375.00
 65.07    1433.00
 65.17    1394.14
 65.27    1438.00
 65.37    1422.00
 65.47    1344.00
 65.57    1240.47
 65.67    1132.17
 65.77    1000.00
 65.87     899.04
 65.97     807.74
 66.07     792.00
 66.17     754.00
 66.27     690.00
 66.37     719.00
 66.47     699.00
 66.57     697.00
 66.67     648.00
 66.77     626.00
 66.87     601.00
 66.97     664.00
 67.07     677.00
 67.17     654.00
 67.27     702.08
 67.37     740.00
 67.47     722.00
 67.57     837.54
 67.67     875.00
 67.77     943.00
 67.87    1151.44
 67.97    1212.00
 68.07    1532.00
 68.17    1725.00
 68.27    2040.00
 68.37    2279.00
 68.47    2392.00
 68.57    2482.00
 68.67    2468.92
 68.77    2359.00
 68.87    2199.00
 68.97    1968.00
 69.07    1619.64
 69.17    1420.69
 69.27    1326.63
 69.37    1079.00
 69.47    1008.00
 69.57     882.00
 69.67     867.00
 69.77     888.00
 69.87     819.00
 69.97     749.00
 70.07     650.61
 70.17     685.00
 70.27     725.00
 70.37     684.00
 70.47     655.00
 70.57     633.00
 70.67     649.55
 70.77     674.00
 70.87     661.63
 70.97     666.00
 71.07     660.18
 71.17     682.00
 71.27     687.00
 71.37     727.00
 71.47     753.86
 71.57     788.00
 71.67     840.00
 71.77     947.00
 71.87    1052.00
 71.97    1180.25
 72.07    1354.00
 72.17    1537.00
 72.27    1706.00
 72.37    1817.21
 72.47    1897.00
 72.57    1907.00
 72.67    1904.51
 72.77    1850.00
 72.87    1749.79
 72.97    1505.00
 73.07    1419.06
 73.17    1276.00
 73.27    1047.00
 73.37     955.00
 73.47     848.00
 73.57     850.00
 73.67     732.35
 73.77     740.00
 73.87     734.00
 73.97     669.00
 74.07     659.00
 74.17     641.00
 74.27     608.56
 74.37     609.00
 74.47     654.00
 74.57     641.00
 74.67     619.00
 74.77     652.00
 74.87     645.02
 74.97     696.00
 75.07     697.34
 75.17     720.00
 75.27     696.00
 75.37     697.00
 75.47     676.00
 75.57     673.95
 75.67     710.00
 75.77     717.00
 75.87     658.00
 75.97     659.00
 76.07     616.94
 76.17     657.00
 76.27     710.00
 76.37     664.38
 76.47     756.00
 76.57     773.93
 76.67     808.44
 76.77     826.63
 76.87     821.00
 76.97     960.84
 77.07     966.00
 77.17     942.00
 77.27     934.00
 77.37     965.06
 77.47     857.63
 77.57     800.39
 77.67     837.79
 77.77     782.00
 77.87     755.00
 77.97     737.00
 78.07     648.00
 78.17     629.00
 78.27     600.00
 78.37     623.00
 78.47     649.84
 78.57     621.00
 78.67     624.00
 78.77     601.00
 78.87     636.66
 78.97     577.66
 79.07     593.00
 79.17     582.00
 79.27     641.00
 79.37     572.18
 79.47     610.00
 79.57     598.00
 79.67     625.00
 79.77     622.46
 79.87     594.96
 79.97     651.00
 80.07     660.10
 80.17     597.00
 80.27     597.44
 80.37     620.00
 80.47     668.57
 80.57     677.00
 80.67     718.29
 80.77     760.00
 80.87     833.00
 80.97     873.00
 81.07     986.00
 81.17    1045.00
 81.27    1084.00
 81.37    1162.00
 81.47    1220.00
 81.57    1204.70
 81.67    1176.97
 81.77    1337.00
 81.87    1243.00
 81.97    1226.00
 82.07    1233.97
 82.17    1181.00
 82.27    1117.00
 82.37     998.32
 82.47     944.52
 82.57     901.62
 82.67     906.61
 82.77     804.00
 82.87     790.16
 82.97     693.00
 83.07     717.90
 83.17     762.72
 83.27     670.29
 83.37     701.77
 83.47     615.00
 83.57     592.00
 83.67     642.00
 83.77     658.37
 83.87     619.61
 83.97     606.00
 84.07     668.92
 84.17     615.00
 84.27     626.58
 84.37     697.60
 84.47     650.00
 84.57     630.00
 84.67     670.60
 84.77     663.37
 84.87     648.00
 84.97     626.00
 85.07     655.00
 85.17     615.43
 85.27     610.00
 85.37     567.00
 85.47     620.00
 85.57     655.74
 85.67     608.00
 85.77     606.97
 85.87     596.00
 85.97     558.00
 86.07     634.92
 86.17     636.65
 86.27     623.00
 86.37     613.00
 86.47     650.40
 86.57     621.82
 86.67     622.00
 86.77     623.00
 86.87     624.00
 86.97     613.00
 87.07     686.82
 87.17     609.91
 87.27     660.00
 87.37     681.00
 87.47     685.00
 87.57     698.00
 87.67     709.66
 87.77     714.09
 87.87     753.00
 87.97     699.00
 88.07     727.00
 88.17     722.00
 88.27     717.00
 88.37     682.85
 88.47     710.92
 88.57     697.00
 88.67     729.00
 88.77     651.37
 88.87     659.97
 88.97     634.00
 89.07     696.93
 89.17     652.55
 89.27     640.00
 89.37     604.27
 89.47     656.00
 89.57     662.00
 89.67     651.91
 89.77     679.00
 89.87     710.53
 89.97     691.00
 90.07     656.00
 90.17     616.02
 90.27     649.40
 90.37     653.00
 90.47     669.00
 90.57     669.53
 90.67     603.00
 90.77     599.00
 90.87     606.23
 90.97     574.00
 91.07     575.00
 91.17     584.32
 91.27     552.00
 91.37     600.00
 91.47     583.00
 91.57     629.50
 91.67     562.42
 91.77     591.00
 91.87     592.00
 91.97     592.00
 92.07     590.00
 92.17     578.16
 92.27     606.00
 92.37     597.00
 92.47     619.00
 92.57     576.32
 92.67     615.00
 92.77     555.00
 92.87     642.90
 92.97     628.00
 93.07     687.55
 93.17     668.00
 93.27     698.00
 93.37     630.00
 93.47     673.12
 93.57     716.00
 93.67     751.00
 93.77     816.00
 93.87     794.00
 93.97     742.00
 94.07     818.88
 94.17     824.00
 94.27     861.00
 94.37     818.79
 94.47     917.00
 94.57     888.06
 94.67     947.00
 94.77     935.00
 94.87     941.95
 94.97     975.00
 95.07     995.00
 95.17     984.00
 95.27    1010.00
 95.37     979.92
 95.47     979.00
 95.57    1059.11
 95.67    1025.00
 95.77     940.37
 95.87     947.00
 95.97     904.00
 96.07     922.00
 96.17     880.00
 96.27     856.00
 96.37     766.00
 96.47     864.76
 96.57     797.63
 96.67     780.88
 96.77     829.00
 96.87     790.00
 96.97     816.00
 97.07     842.00
 97.17     927.00
 97.27     889.67
 97.37    1008.00
 97.47    1104.00
 97.57    1147.00
 97.67    1223.39
 97.77    1217.55
 97.87    1329.00
 97.97    1396.32
 98.07    1453.90
 98.17    1458.62
 98.27    1485.29
 98.37    1628.16
 98.47    1641.00
 98.57    1479.80
 98.67    1555.22
 98.77    1482.00
 98.87    1435.00
 98.97    1412.00
 99.07    1332.86
 99.17    1204.03
 99.27    1167.16
 99.37    1108.29
 99.47    1012.00
 99.57     979.00
 99.67    1013.00
 99.77     944.00
 99.87     975.00
 99.97     936.39
100.07    1018.00
100.17    1108.68
100.27    1142.98
100.37    1148.40
100.47    1239.64
100.57    1361.00
100.67    1497.00
100.77    1454.38
100.87    1532.35
100.97    1728.00
101.07    1840.00
101.17    1922.54
101.27    1998.00
101.37    1942.79
101.47    2107.00
101.57    2019.36
101.67    2030.00
101.77    2104.04
101.87    2116.39
101.97    2039.00
102.07    1968.62
102.17    1867.00
102.27    1819.00
102.37    1769.00
102.47    1711.00
102.57    1576.25
102.67    1550.99
102.77    1528.63
102.87    1402.00
102.97    1413.00
103.07    1282.00
103.17    1366.66
103.27    1261.00
103.37    1206.61
103.47    1305.36
103.57    1129.00
103.67    1093.00
103.77    1079.42
103.87    1125.18
103.97    1025.00
104.07    1000.00
104.17    1023.00
104.27     925.01
104.37     911.00
104.47     901.71
104.57     814.22
104.67     860.00
104.77     761.00
104.87     740.00
104.97     724.59
105.07     638.33
105.17     645.09
105.27     625.81
105.37     578.77
105.47     642.00
105.57     582.91
105.67     652.00
105.77     634.00
105.87     615.00
105.97     544.30
106.07     602.00
106.17     654.00
106.27     613.95
106.37     606.00
106.47     601.09
106.57     587.49
106.67     585.86
106.77     611.00
106.87     580.04
106.97     681.00
107.07     668.00
107.17     694.68
107.27     637.00
107.37     660.00
107.47     692.00
107.57     674.00
107.67     719.00
107.77     704.00
107.87     692.00
107.97     744.50
108.07     792.75
108.17     715.91
108.27     806.00
108.37     722.23
108.47     769.00
108.57     806.28
108.67     736.00
108.77     782.00
108.87     764.00
108.97     712.51
109.07     702.00
109.17     755.00
109.27     788.13
109.37     728.00
109.47     696.00
109.57     768.00
109.67     754.00
109.77     717.00
109.87     716.00
109.97     781.00
110.07     820.10
110.17     755.00
110.27     740.00
110.37     727.00
110.47     715.00
110.57     735.00
110.67     689.00
110.77     726.00
110.87     647.60
110.97     691.00
111.07     620.83
111.17     672.00
111.27     596.57
111.37     662.06
111.47     664.00
111.57     595.00
111.67     613.00
111.77     625.00
111.87     547.00
111.97     600.00
112.07     615.00
112.17     592.35
112.27     609.00
112.37     592.16
112.47     613.07
112.57     612.00
112.67     615.00
112.77     567.63
112.87     600.35
112.97     613.00
113.07     584.00
113.17     591.02
113.27     663.00
113.37     601.60
113.47     578.00
113.57     582.00
113.67     592.00
113.77     684.00
113.87     588.00
113.97     611.31
114.07     663.00
114.17     640.00
114.27     587.00
114.37     667.75
114.47     662.00
114.57     737.00
114.67     718.00
114.77     730.00
114.87     803.54
114.97     801.00
115.07     875.00
115.17     929.00
115.27     961.00
115.37     997.00
115.47    1172.00
115.57    1258.00
115.67    1536.50
115.77    1668.66
115.87    1894.86
115.97    2026.00
116.07    2357.00
116.17    2593.00
116.27    2899.00
116.37    3273.12
116.47    3465.45
116.57    3800.00
116.67    4359.28
116.77    4557.00
116.87    4984.00
116.97    5332.85
117.07    5810.00
117.17    6054.53
117.27    6664.95
117.37    6807.00
117.47    6964.00
117.57    7119.39
117.67    7271.00
117.77    7498.00
117.87    7388.00
117.97    7235.50
118.07    7244.20
118.17    6882.00
118.27    6605.62
118.37    6495.77
118.47    6039.00
118.57    5598.00
118.67    5312.00
118.77    5174.00
118.87    4575.06
118.97    4400.00
119.07    3869.00
119.17    3542.37
119.27    3258.00
119.37    3013.00
119.47    2709.00
119.57    2462.00
119.67    2226.00
119.77    1970.66
119.87    1686.53
119.97    1554.30
120.07    1444.00
120.17    1357.08
120.27    1258.00
120.37    1169.00
120.47    1092.87
120.57    1028.27
120.67     963.00
120.77     921.00
120.87     863.00
120.97     894.00
121.07     788.00
121.17     795.61
121.27     776.00
121.37     714.64
121.47     762.07
121.57     693.00
121.67     672.16
121.77     712.26
121.87     671.28
121.97     704.00
122.07     658.00
122.17     633.00
122.27     641.62
122.37     708.02
122.47     679.00
122.57     710.41
122.67     732.01
122.77     712.00
122.87     716.85
122.97     619.00
123.07     708.00
123.17     677.23
123.27     710.00
123.37     724.00
123.47     729.00
123.57     749.00
123.67     780.56
123.77     754.00
123.87     795.63
123.97     732.64
124.07     762.00
124.17     790.00
124.27     775.68
124.37     782.00
124.47     750.00
124.57     735.00
124.67     704.22
124.77     790.60
124.87     723.00
124.97     764.00
