  9.97     774.00
 10.07     728.62
 10.17     716.69
 10.27     715.99
 10.37     727.00
 10.47     733.00
 10.57     726.05
 10.67     702.00
 10.77     727.00
 10.87     760.77
 10.97     726.18
 11.07     783.00
 11.17     732.00
 11.27     759.75
 11.37     726.00
 11.47     715.14
 11.57     761.00
 11.67     748.00
 11.77     679.77
 11.87     822.00
 11.97     809.00
 12.07     825.00
 12.17     914.00
 12.27     832.62
 12.37     836.16
 12.47     812.00
 12.57     750.36
 12.67     786.76
 12.77     685.00
 12.87     720.00
 12.97     714.00
 13.07     686.00
 13.17     676.00
 13.27     747.85
 13.37     710.30
 13.47     627.00
 13.57     689.00
 13.67     645.00
 13.77     712.85
 13.87     677.68
 13.97     715.00
 14.07     742.00
 14.17     686.00
 14.27     625.00
 14.37     668.00
 14.47     654.04
 14.57     651.00
 14.67     720.00
 14.77     727.55
 14.87     667.07
 14.97     731.00
 15.07     605.00
 15.17     676.00
 15.27     684.00
 15.37     656.06
 15.47     653.14
 15.57     708.87
 15.67     622.00
 15.77     677.00
 15.87     682.00
 15.97     691.00
 16.07     656.00
 16.17     631.00
 16.27     639.57
 16.37     671.00
 16.47     710.68
 16.57     687.00
 16.67     622.24
 16.77     702.67
 16.87     622.23
 16.97     716.00
 17.07     682.78
 17.17     649.00
 17.27     651.00
 17.37     639.00
 17.47     676.86
 17.57     630.00
 17.67     655.00
 17.77     601.00
 17.87     659.26
 17.97     613.00
 18.07     625.00
 18.17     661.85
 18.27     657.00
 18.37     678.00
 18.47     635.00
 18.57     615.70
 18.67     691.75
 18.77     613.56
 18.87     630.00
 18.97     658.00
 19.07     633.95
 19.17     617.88
 19.27     623.00
 19.37     636.00
 19.47     599.81
 19.57     617.00
 19.67     641.00
 19.77     641.25
 19.87     618.00
 19.97     628.00
 20.07     662.00
 20.17     612.61
 20.27     673.69
 20.37     680.62
 20.47     609.00
 20.57     686.54
 20.67     617.00
 20.77     562.00
 20.87     627.77
 20.97     669.46
 21.07     599.00
 21.17     651.00
 21.27     663.14
 21.37     605.00
 21.47     629.00
 21.57     607.00
 21.67     666.00
 21.77     621.00
 21.87     599.00
 21.97     641.00
 22.07     614.00
 22.17     611.00
 22.27     587.42
 22.37     637.00
 22.47     655.16
 22.57     667.00
 22.67     662.00
 22.77     645.00
 22.87     635.00
 22.97     668.00
 23.07     640.00
 23.17     618.00
 23.27     666.95
 23.37     638.00
 23.47     597.91
 23.57     632.00
 23.67     638.00
 23.77     587.12
 23.87     681.57
 23.97     669.30
 24.07     638.00
 24.17     641.00
 24.27     672.00
 24.37     661.00
 24.47     648.00
 24.57     703.00
 24.67     665.29
 24.77     703.00
 24.87     698.00
 24.97     719.00
 25.07     673.06
 25.17     688.00
 25.27     731.00
 25.37     642.00
 25.47     686.27
 25.57     641.00
 25.67     626.05
 25.77     689.35
 25.87     641.00
 25.97     695.19
 26.07     669.00
 26.17     664.00
 26.27     657.14
 26.37     686.00
 26.47     666.50
 26.57     692.00
 26.67     706.60
 26.77     666.00
 26.87     685.00
 26.97     670.00
 27.07     707.00
 27.17     690.00
 27.27     781.00
 27.37     730.00
 27.47     748.75
 27.57     803.00
 27.67     846.00
 27.77     933.91
 27.87    1053.00
 27.97    1332.00
 28.07    1970.00
 28.17    3350.29
 28.27    5370.00
 28.37    7577.00
 28.47    8822.00
 28.57    8214.68
 28.67    6473.00
 28.77    4364.35
 28.87    3713.00
 28.97    3875.00
 29.07    4602.00
 29.17    4943.00
 29.27    4531.00
 29.37    3622.89
 29.47    2427.00
 29.57    1717.51
 29.67    1313.26
 29.77     961.74
 29.87     934.00
 29.97     824.45
 30.07     834.00
 30.17     804.00
 30.27     753.12
 30.37     702.00
 30.47     683.58
 30.57     730.00
 30.67     681.32
 30.77     717.00
 30.87     720.00
 30.97     776.00
 31.07     775.97
 31.17     788.00
 31.27     835.00
 31.37     766.56
 31.47     740.00
 31.57     687.25
 31.67     692.00
 31.77     711.00
 31.87     671.00
 31.97     663.00
 32.07     628.21
 32.17     651.00
 32.27     600.53
 32.37     627.89
 32.47     578.41
 32.57     629.00
 32.67     641.65
 32.77     615.99
 32.87     655.00
 32.97     615.00
 33.07     644.00
 33.17     625.00
 33.27     685.00
 33.37     642.96
 33.47     656.57
 33.57     680.00
 33.67     703.00
 33.77     722.92
 33.87     769.00
 33.97     901.00
 34.07     924.92
 34.17    1142.00
 34.27    1292.00
 34.37    1223.08
 34.47    1225.00
 34.57    1091.10
 34.67     873.00
 34.77     808.00
 34.87     768.00
 34.97     650.97
 35.07     653.44
 35.17     658.00
 35.27     675.00
 35.37     622.08
 35.47     671.00
 35.57     614.00
 35.67     619.34
 35.77     607.00
 35.87     578.00
 35.97     604.00
 36.07     607.00
 36.17     616.00
 36.27     565.49
 36.37     628.46
 36.47     652.00
 36.57     647.00
 36.67     562.48
 36.77     638.00
 36.87     604.52
 36.97     583.00
 37.07     573.00
 37.17     605.42
 37.27     618.00
 37.37     618.88
 37.47     613.04
 37.57     597.00
 37.67     640.00
 37.77     625.50
 37.87     619.00
 37.97     638.10
 38.07     706.00
 38.17     741.00
 38.27     761.83
 38.37     803.18
 38.47     729.52
 38.57     708.66
 38.67     695.00
 38.77     648.00
 38.87     660.32
 38.97     658.52
 39.07     604.00
 39.17     592.00
 39.27     587.00
 39.37     582.00
 39.47     642.50
 39.57     599.00
 39.67     570.78
 39.77     635.00
 39.87     601.10
 39.97     566.85
 40.07     613.00
 40.17     619.00
 40.27     593.00
 40.37     607.00
 40.47     599.00
 40.57     634.00
 40.67     621.00
 40.77     599.00
 40.87     569.00
 40.97     570.00
 41.07     582.00
 41.17     606.00
 41.27     638.53
 41.37     570.00
 41.47     613.00
 41.57     634.75
 41.67     558.04
 41.77     646.93
 41.87     584.72
 41.97     602.00
 42.07     599.00
 42.17     561.00
 42.27     556.00
 42.37     619.00
 42.47     605.00
 42.57     622.00
 42.67     643.00
 42.77     703.60
 42.87     658.92
 42.97     679.00
 43.07     732.00
 43.17     699.40
 43.27     656.93
 43.37     679.00
 43.47     660.00
 43.57     592.19
 43.67     656.21
 43.77     581.00
 43.87     639.52
 43.97     633.00
 44.07     568.05
 44.17     603.45
 44.27     556.00
 44.37     628.51
 44.47     629.00
 44.57     603.00
 44.67     584.00
 44.77     612.91
 44.87     599.00
 44.97     560.73
 45.07     607.00
 45.17     618.00
 45.27     597.00
 45.37     635.00
 45.47     598.05
 45.57     606.00
 45.67     601.00
 45.77     626.00
 45.87     605.00
 45.97     613.00
 46.07     644.17
 46.17     604.00
 46.27     570.63
 46.37     629.00
 46.47     644.97
 46.57     618.00
 46.67     624.00
 46.77     618.00
 46.87     580.00
 46.97     653.64
 47.07     641.51
 47.17     598.00
 47.27     568.86
 47.37     627.30
 47.47     621.00
 47.57     673.00
 47.67     629.89
 47.77     639.00
 47.87     618.00
 47.97     684.00
 48.07     671.00
 48.17     650.00
 48.27     681.68
 48.37     694.00
 48.47     687.00
 48.57     677.00
 48.67     633.56
 48.77     654.00
 48.87     685.00
 48.97     661.00
 49.07     651.00
 49.17     677.75
 49.27     650.00
 49.37     676.00
 49.47     700.00
 49.57     629.00
 49.67     687.00
 49.77     769.20
 49.87     784.56
 49.97     935.00
 50.07    1250.39
 50.17    1505.00
 50.27    2002.00
 50.37    2453.00
 50.47    2944.00
 50.57    3208.00
 50.67    3182.00
 50.77    2913.00
 50.87    2359.76
 50.97    1906.36
 51.07    1453.00
 51.17    1234.47
 51.27     993.00
 51.37     965.00
 51.47     804.00
 51.57     802.00
 51.67     774.00
 51.77     767.00
 51.87     700.00
 51.97     740.00
 52.07     687.19
 52.17     659.76
 52.27     692.55
 52.37     689.03
 52.47     690.00
 52.57     721.15
 52.67     678.86
 52.77     751.00
 52.87     642.19
 52.97     673.86
 53.07     745.00
 53.17     677.86
 53.27     758.14
 53.37     792.00
 53.47     848.00
 53.57     959.00
 53.67    1051.00
 53.77    1140.00
 53.87    1263.37
 53.97    1237.71
 54.07    1291.00
 54.17    1287.00
 54.27    1195.00
 54.37    1055.42
 54.47     909.63
 54.57     825.17
 54.67     757.96
 54.77     811.22
 54.87     718.00
 54.97     700.00
 55.07     710.16
 55.17     642.98
 55.27     666.00
 55.37     640.46
 55.47     694.60
 55.57     632.00
 55.67     718.17
 55.77     684.31
 55.87     697.00
 55.97     704.09
 56.07     760.22
 56.17     758.00
 56.27     724.49
 56.37     805.89
 56.47     825.00
 56.57     894.00
 56.67     991.00
 56.77    1200.00
 56.87    1387.00
 56.97    1772.00
 57.07    2077.00
 57.17    2357.94
 57.27    2616.00
 57.37    2727.00
 57.47    2761.00
 57.57    2508.00
 57.67    2132.00
 57.77    1709.72
 57.87    1534.92
 57.97    1218.00
 58.07    1077.00
 58.17     971.00
 58.27     858.00
 58.37     778.05
 58.47     765.00
 58.57     872.00
 58.67     788.00
 58.77     880.00
 58.87     925.00
 58.97    1007.82
 59.07    1181.00
 59.17    1229.72
 59.27    1265.00
 59.37    1290.00
 59.47    1306.03
 59.57    1339.00
 59.67    1320.00
 59.77    1289.00
 59.87    1247.43
 59.97    1261.00
 60.07    1314.00
 60.17    1271.00
 60.27    1316.28
 60.37    1385.00
 60.47    1493.00
 60.57    1550.00
 60.67    1692.96
 60.77    1625.00
 60.87    1586.00
 60.97    1491.47
 61.07    1289.00
 61.17    1234.00
 61.27    1062.00
 61.37     939.00
 61.47     860.00
 61.57     832.00
 61.67     828.00
 61.77     837.00
 61.87     919.00
 61.97     882.98
 62.07    1004.00
 62.17    1161.00
 62.27    1260.00
 62.37    1415.00
 62.47    1685.00
 62.57    1687.00
 62.67    1849.00
 62.77    1759.00
 62.87    1670.88
 62.97    1625.00
 63.07    1397.61
 63.17    1206.63
 63.27    1175.70
 63.37    1006.00
 63.47     913.70
 63.57     876.00
 63.67     789.00
 63.77     792.00
 63.87     763.00
 63.97     738.00
 64.07     719.00
 64.17     789.72
 64.27     779.47
 64.37     858.00
 64.47     854.66
 64.57     921.00
 64.67    1006.00
 64.77    1142.00
 64.87    1268.62
 64.97    1391.76
 65.07    1510.00
 65.17    1583.79
 65.27    1641.00
 65.37    1671.71
 65.47    1561.00
 65.57    1519.00
 65.67    1312.24
 65.77    1207.00
 65.87    1066.00
 65.97     969.43
 66.07     852.00
 66.17     865.18
 66.27     777.00
 66.37     787.54
 66.47     715.00
 66.57     731.00
 66.67     725.42
 66.77     693.00
 66.87     690.78
 66.97     670.55
 67.07     688.77
 67.17     715.00
 67.27     769.48
 67.37     745.64
 67.47     773.00
 67.57     830.00
 67.67     819.00
 67.77     934.00
 67.87    1011.59
 67.97    1116.00
 68.07    1341.00
 68.17    1551.00
 68.27    1682.00
 68.37    1982.00
 68.47    2218.00
 68.57    2493.58
 68.67    2476.68
 68.77    2467.16
 68.87    2370.03
 68.97    2339.08
 69.07    1981.23
 69.17    1803.01
 69.27    1553.35
 69.37    1309.00
 69.47    1205.00
 69.57    1071.00
 69.67     997.00
 69.77     933.00
 69.87     846.00
 69.97     801.00
 70.07     765.90
 70.17     776.00
 70.27     734.00
 70.37     743.11
 70.47     765.00
 70.57     698.97
 70.67     687.00
 70.77     688.15
 70.87     714.00
 70.97     659.79
 71.07     679.00
 71.17     755.48
 71.27     709.00
 71.37     719.95
 71.47     792.00
 71.57     798.00
 71.67     838.82
 71.77     931.91
 71.87     968.00
 71.97    1100.00
 72.07    1328.00
 72.17    1278.00
 72.27    1569.00
 72.37    1671.00
 72.47    1793.68
 72.57    2017.00
 72.67    2037.00
 72.77    2020.00
 72.87    1918.00
 72.97    1767.00
 73.07    1717.00
 73.17    1528.00
 73.27    1269.00
 73.37    1147.00
 73.47    1036.00
 73.57     976.39
 73.67     867.63
 73.77     856.73
 73.87     778.00
 73.97     784.88
 74.07     723.00
 74.17     720.00
 74.27     713.13
 74.37     673.14
 74.47     629.28
 74.57     665.00
 74.67     654.00
 74.77     631.00
 74.87     719.64
 74.97     674.00
 75.07     739.00
 75.17     704.00
 75.27     709.39
 75.37     723.00
 75.47     642.62
 75.57     639.57
 75.67     745.00
 75.77     696.00
 75.87     729.00
 75.97     716.00
 76.07     712.64
 76.17     675.00
 76.27     690.00
 76.37     747.00
 76.47     784.42
 76.57     803.00
 76.67     819.00
 76.77     905.74
 76.87     878.00
 76.97     961.00
 77.07    1001.30
 77.17    1011.00
 77.27    1008.00
 77.37     999.09
 77.47    1031.09
 77.57    1040.00
 77.67     994.82
 77.77     878.00
 77.87     802.08
 77.97     783.57
 78.07     781.00
 78.17     719.00
 78.27     708.79
 78.37     640.99
 78.47     696.17
 78.57     628.10
 78.67     651.00
 78.77     668.00
 78.87     659.53
 78.97     667.00
 79.07     616.00
 79.17     666.00
 79.27     594.45
 79.37     669.00
 79.47     643.00
 79.57     627.02
 79.67     599.00
 79.77     606.87
 79.87     592.00
 79.97     578.00
 80.07     632.96
 80.17     651.00
 80.27     672.44
 80.37     638.00
 80.47     637.00
 80.57     734.00
 80.67     722.57
 80.77     768.00
 80.87     856.00
 80.97     875.00
 81.07     969.00
 81.17    1021.00
 81.27    1072.80
 81.37    1246.85
 81.47    1233.00
 81.57    1397.00
 81.67    1480.00
 81.77    1580.00
 81.87    1506.00
 81.97    1535.00
 82.07    1524.00
 82.17    1353.00
 82.27    1282.00
 82.37    1186.61
 82.47    1161.94
 82.57    1092.00
 82.67    1029.29
 82.77    1002.00
 82.87     933.00
 82.97     909.14
 83.07     815.00
 83.17     743.78
 83.27     726.00
 83.37     678.00
 83.47     738.73
 83.57     636.00
 83.67     675.00
 83.77     711.01
 83.87     671.00
 83.97     648.00
 84.07     668.00
 84.17     670.01
 84.27     639.00
 84.37     644.00
 84.47     686.00
 84.57     680.00
 84.67     647.00
 84.77     663.00
 84.87     697.00
 84.97     687.34
 85.07     641.00
 85.17     655.00
 85.27     638.00
 85.37     688.02
 85.47     634.00
 85.57     656.00
 85.67     580.00
 85.77     671.82
 85.87     655.00
 85.97     679.00
 86.07     660.00
 86.17     616.52
 86.27     660.43
 86.37     606.00
 86.47     600.53
 86.57     601.00
 86.67     636.00
 86.77     635.00
 86.87     703.01
 86.97     673.70
 87.07     683.00
 87.17     707.00
 87.27     701.05
 87.37     684.00
 87.47     642.61
 87.57     723.00
 87.67     653.19
 87.77     728.00
 87.87     697.11
 87.97     725.91
 88.07     752.00
 88.17     722.15
 88.27     739.04
 88.37     685.30
 88.47     757.00
 88.57     706.76
 88.67     743.00
 88.77     695.00
 88.87     718.00
 88.97     665.00
 89.07     658.00
 89.17     688.00
 89.27     708.95
 89.37     627.00
 89.47     660.00
 89.57     670.00
 89.67     656.00
 89.77     628.00
 89.87     694.09
 89.97     736.00
 90.07     660.23
 90.17     663.87
 90.27     718.00
 90.37     705.00
 90.47     631.78
 90.57     656.00
 90.67     656.00
 90.77     653.00
 90.87     651.13
 90.97     621.00
 91.07     677.00
 91.17     614.00
 91.27     617.00
 91.37     588.00
 91.47     571.00
 91.57     575.00
 91.67     559.85
 91.77     611.00
 91.87     646.57
 91.97     619.67
 92.07     561.00
 92.17     623.00
 92.27     585.00
 92.37     632.71
 92.47     569.16
 92.57     571.00
 92.67     579.00
 92.77     645.00
 92.87     632.99
 92.97     677.41
 93.07     637.23
 93.17     624.00
 93.27     691.00
 93.37     683.00
 93.47     708.52
 93.57     694.00
 93.67     772.00
 93.77     768.28
 93.87     765.00
 93.97     766.60
 94.07     820.00
 94.17     801.13
 94.27     850.00
 94.37     918.00
 94.47     874.31
 94.57     916.56
 94.67     901.00
 94.77     942.00
 94.87     974.00
 94.97     936.00
 95.07    1028.00
 95.17    1019.86
 95.27    1025.00
 95.37    1020.00
 95.47    1080.00
 95.57    1033.54
 95.67    1049.00
 95.77    1063.00
 95.87    1051.00
 95.97     961.07
 96.07     939.84
 96.17     995.00
 96.27     932.00
 96.37     948.00
 96.47     911.00
 96.57     865.00
 96.67     840.00
 96.77     806.75
 96.87     860.00
 96.97     842.00
 97.07     856.00
 97.17     839.90
 97.27     886.00
 97.37     957.14
 97.47    1035.95
 97.57     991.09
 97.67    1139.00
 97.77    1184.00
 97.87    1240.23
 97.97    1257.55
 98.07    1329.17
 98.17    1549.00
 98.27    1602.00
 98.37    1509.46
 98.47    1669.99
 98.57    1630.00
 98.67    1598.00
 98.77    1562.00
 98.87    1536.60
 98.97    1475.00
 99.07    1334.00
 99.17    1285.87
 99.27    1302.00
 99.37    1183.61
 99.47    1150.48
 99.57    1068.60
 99.67    1098.00
 99.77    1017.39
 99.87    1044.14
 99.97     986.94
100.07    1064.00
100.17     996.00
100.27    1113.42
100.37    1167.00
100.47    1181.00
100.57    1236.00
100.67    1368.00
100.77    1435.00
100.87    1496.00
100.97    1682.00
101.07    1652.40
101.17    1830.00
101.27    1927.23
101.37    1975.14
101.47    1991.00
101.57    2108.00
101.67    2168.00
101.77    2203.00
101.87    2203.00
101.97    2173.00
102.07    2029.59
102.17    2013.00
102.27    2042.00
102.37    1989.74
102.47    1835.38
102.57    1800.00
102.67    1708.00
102.77    1686.00
102.87    1605.00
102.97    1470.00
103.07    1473.86
103.17    1467.41
103.27    1393.00
103.37    1382.00
103.47    1287.00
103.57    1293.00
103.67    1298.00
103.77    1241.00
103.87    1189.00
103.97    1154.00
104.07    1156.00
104.17    1105.00
104.27    1055.00
104.37    1077.00
104.47     944.87
104.57     960.85
104.67     927.56
104.77     866.50
104.87     843.00
104.97     834.00
105.07     708.89
105.17     776.66
105.27     768.00
105.37     741.00
105.47     680.00
105.57     678.59
105.67     650.00
105.77     614.96
105.87     649.00
105.97     632.61
106.07     630.02
106.17     586.67
106.27     642.00
106.37     656.00
106.47     604.00
106.57     653.00
106.67     627.00
106.77     598.65
106.87     660.00
106.97     591.99
107.07     636.02
107.17     650.00
107.27     654.24
107.37     703.00
107.47     759.00
107.57     728.00
107.67     740.00
107.77     696.00
107.87     723.00
107.97     724.00
108.07     738.00
108.17     766.00
108.27     760.00
108.37     760.51
108.47     747.72
108.57     805.00
108.67     777.00
108.77     736.00
108.87     802.60
108.97     755.00
109.07     798.00
109.17     756.11
109.27     729.00
109.37     775.89
109.47     751.00
109.57     757.87
109.67     767.00
109.77     760.00
109.87     776.00
109.97     747.40
110.07     767.00
110.17     816.12
110.27     803.28
110.37     792.00
110.47     765.99
110.57     793.00
110.67     733.00
110.77     760.04
110.87     689.00
110.97     706.00
111.07     723.00
111.17     724.00
111.27     706.00
111.37     693.00
111.47     701.00
111.57     660.00
111.67     667.00
111.77     638.00
111.87     686.36
111.97     684.36
112.07     633.00
112.17     664.12
112.27     668.00
112.37     605.29
112.47     646.00
112.57     577.82
112.67     635.00
112.77     613.00
112.87     619.86
112.97     598.83
113.07     588.00
113.17     629.20
113.27     584.00
113.37     639.87
113.47     650.79
113.57     648.00
113.67     601.38
113.77     651.00
113.87     690.85
113.97     612.29
114.07     663.00
114.17     700.00
114.27     648.00
114.37     670.00
114.47     661.23
114.57     687.68
114.67     713.23
114.77     723.00
114.87     799.63
114.97     835.67
115.07     789.65
115.17     864.00
115.27     906.19
115.37    1012.98
115.47    1040.00
115.57    1128.00
115.67    1286.10
115.77    1394.00
115.87    1508.50
115.97    1655.17
116.07    1794.00
116.17    2178.80
116.27    2345.00
116.37    2665.99
116.47    2833.52
116.57    3449.00
116.67    3542.00
116.77    3919.00
116.87    4260.00
116.97    4661.00
117.07    5045.00
117.17    5472.00
117.27    5804.23
117.37    6207.00
117.47    6612.00
117.57    7087.00
117.67    7107.62
117.77    7251.41
117.87    7629.09
117.97    7620.93
118.07    7428.71
118.17    7633.00
118.27    7537.00
118.37    7139.00
118.47    6892.00
118.57    6737.00
118.67    6490.69
118.77    5879.33
118.87    5646.00
118.97    5209.00
119.07    4863.30
119.17    4527.00
119.27    4057.10
119.37    3820.00
119.47    3515.00
119.57    3126.77
119.67    2836.00
119.77    2575.61
119.87    2329.00
119.97    2058.81
120.07    1837.98
120.17    1711.00
120.27    1662.00
120.37    1436.00
120.47    1327.00
120.57    1229.00
120.67    1234.00
120.77    1111.00
120.87    1049.00
120.97     978.00
121.07     880.13
121.17     959.00
121.27     904.00
121.37     854.00
121.47     844.50
121.57     788.00
121.67     761.33
121.77     781.00
121.87     732.00
121.97     721.33
122.07     733.19
122.17     700.00
122.27     711.00
122.37     708.00
122.47     746.51
122.57     688.00
122.67     652.00
122.77     742.39
122.87     693.00
122.97     727.48
123.07     733.00
123.17     684.00
123.27     723.00
123.37     702.00
123.47     710.16
123.57     734.00
123.67     791.00
123.77     771.00
123.87     813.94
123.97     802.00
124.07     812.00
124.17     758.08
124.27     798.58
124.37     801.00
124.47     782.00
124.57     847.00
124.67     740.95
124.77     859.00
124.87     736.87
124.97     824.59
