  9.97     742.29
 10.07     701.86
 10.17     698.34
 10.27     730.49
 10.37     763.62
 10.47     741.00
 10.57     730.00
 10.67     742.53
 10.77     731.00
 10.87     749.00
 10.97     698.72
 11.07     740.00
 11.17     702.20
 11.27     760.00
 11.37     788.00
 11.47     783.00
 11.57     726.00
 11.67     753.00
 11.77     738.00
 11.87     717.28
 11.97     721.02
 12.07     827.00
 12.17     884.00
 12.27     787.69
 12.37     869.94
 12.47     865.00
 12.57     818.00
 12.67     741.00
 12.77     797.73
 12.87     708.55
 12.97     726.00
 13.07     727.00
 13.17     716.61
 13.27     681.60
 13.37     719.00
 13.47     757.62
 13.57     712.00
 13.67     686.00
 13.77     699.00
 13.87     736.06
 13.97     715.00
 14.07     714.00
 14.17     719.00
 14.27     692.00
 14.37     708.01
 14.47     685.97
 14.57     722.00
 14.67     698.78
 14.77     666.00
 14.87     656.00
 14.97     645.00
 15.07     714.00
 15.17     649.00
 15.27     678.68
 15.37     725.00
 15.47     725.00
 15.57     700.92
 15.67     696.00
 15.77     668.00
 15.87     688.00
 15.97     641.32
 16.07     620.00
 16.17     705.00
 16.27     683.00
 16.37     670.69
 16.47     709.02
 16.57     733.00
 16.67     628.00
 16.77     677.00
 16.87     690.00
 16.97     644.00
 17.07     642.18
 17.17     670.00
 17.27     639.40
 17.37     652.00
 17.47     676.91
 17.57     693.00
 17.67     674.58
 17.77     675.03
 17.87     685.00
 17.97     622.84
 18.07     657.00
 18.17     669.00
 18.27     698.00
 18.37     667.00
 18.47     693.00
 18.57     678.64
 18.67     711.35
 18.77     658.00
 18.87     667.00
 18.97     688.41
 19.07     651.00
 19.17     638.00
 19.27     634.00
 19.37     651.37
 19.47     693.00
 19.57     698.00
 19.67     592.00
 19.77     625.86
 19.87     619.84
 19.97     654.00
 20.07     654.00
 20.17     625.00
 20.27     636.00
 20.37     654.02
 20.47     666.26
 20.57     639.00
 20.67     618.80
 20.77     635.35
 20.87     641.00
 20.97     695.59
 21.07     612.95
 21.17     633.00
 21.27     604.27
 21.37     630.89
 21.47     660.00
 21.57     683.90
 21.67     650.00
 21.77     634.00
 21.87     674.06
 21.97     602.00
 22.07     616.00
 22.17     612.11
 22.27     679.00
 22.37     623.00
 22.47     619.00
 22.57     590.00
 22.67     659.42
 22.77     634.00
 22.87     645.00
 22.97     650.00
 23.07     614.92
 23.17     637.00
 23.27     633.44
 23.37     645.00
 23.47     672.06
 23.57     640.87
 23.67     646.00
 23.77     663.00
 23.87     605.71
 23.97     658.00
 24.07     599.00
 24.17     642.00
 24.27     676.00
 24.37     635.00
 24.47     711.00
 24.57     684.00
 24.67     681.00
 24.77     695.29
 24.87     691.31
 24.97     742.00
 25.07     759.00
 25.17     745.00
 25.27     713.00
 25.37     665.18
 25.47     623.63
 25.57     632.00
 25.67     674.00
 25.77     709.77
 25.87     639.00
 25.97     688.25
 26.07     670.00
 26.17     670.00
 26.27     692.83
 26.37     633.14
 26.47     615.00
 26.57     693.00
 26.67     661.00
 26.77     735.00
 26.87     672.11
 26.97     733.00
 27.07     723.00
 27.17     738.00
 27.27     823.00
 27.37     765.00
 27.47     732.00
 27.57     763.53
 27.67     854.00
 27.77     952.00
 27.87    1038.00
 27.97    1413.82
 28.07    1941.00
 28.17    3420.93
 28.27    5433.00
 28.37    7713.00
 28.47    9257.75
 28.57    8702.00
 28.67    6847.00
 28.77    4823.36
 28.87    3919.00
 28.97    4095.00
 29.07    4689.00
 29.17    5142.78
 29.27    4908.00
 29.37    3841.00
 29.47    2740.49
 29.57    1780.00
 29.67    1307.16
 29.77    1129.00
 29.87     916.13
 29.97     858.00
 30.07     859.00
 30.17     808.18
 30.27     759.00
 30.37     780.00
 30.47     731.00
 30.57     743.00
 30.67     720.00
 30.77     664.22
 30.87     781.00
 30.97     782.00
 31.07     794.00
 31.17     803.00
 31.27     814.75
 31.37     770.00
 31.47     790.00
 31.57     735.00
 31.67     698.00
 31.77     720.00
 31.87     658.00
 31.97     668.00
 32.07     681.00
 32.17     652.08
 32.27     695.00
 32.37     665.00
 32.47     686.48
 32.57     686.18
 32.67     588.72
 32.77     588.91
 32.87     641.00
 32.97     652.00
 33.07     658.00
 33.17     594.92
 33.27     622.12
 33.37     699.00
 33.47     663.00
 33.57     705.50
 33.67     643.00
 33.77     759.00
 33.87     712.00
 33.97     861.00
 34.07     943.00
 34.17    1105.00
 34.27    1257.00
 34.37    1363.12
 34.47    1279.00
 34.57    1083.00
 34.67     928.00
 34.77     848.00
 34.87     773.00
 34.97     677.00
 35.07     686.00
 35.17     696.00
 35.27     659.00
 35.37     663.63
 35.47     646.00
 35.57     612.24
 35.67     566.00
 35.77     580.94
 35.87     602.99
 35.97     665.56
 36.07     656.00
 36.17     616.00
 36.27     601.00
 36.37     649.42
 36.47     645.24
 36.57     657.69
 36.67     605.00
 36.77     622.00
 36.87     591.00
 36.97     629.40
 37.07     638.00
 37.17     589.00
 37.27     587.00
 37.37     605.52
 37.47     581.83
 37.57     613.11
 37.67     640.00
 37.77     643.00
 37.87     680.00
 37.97     719.00
 38.07     672.00
 38.17     715.00
 38.27     787.99
 38.37     780.67
 38.47     834.00
 38.57     824.00
 38.67     691.06
 38.77     647.17
 38.87     634.00
 38.97     578.00
 39.07     597.00
 39.17     589.57
 39.27     600.40
 39.37     620.00
 39.47     647.00
 39.57     636.00
 39.67     618.00
 39.77     627.00
 39.87     599.85
 39.97     620.00
 40.07     585.00
 40.17     634.00
 40.27     650.00
 40.37     647.81
 40.47     604.00
 40.57     628.00
 40.67     597.00
 40.77     656.00
 40.87     622.46
 40.97     598.00
 41.07     666.18
 41.17     602.05
 41.27     608.00
 41.37     585.00
 41.47     586.00
 41.57     639.91
 41.67     620.00
 41.77     596.51
 41.87     610.00
 41.97     594.00
 42.07     599.00
 42.17     655.00
 42.27     669.96
 42.37     579.00
 42.47     578.00
 42.57     693.24
 42.67     690.05
 42.77     655.51
 42.87     654.00
 42.97     713.00
 43.07     753.37
 43.17     775.69
 43.27     715.00
 43.37     689.00
 43.47     667.86
 43.57     624.00
 43.67     613.84
 43.77     643.00
 43.87     586.85
 43.97     601.45
 44.07     610.35
 44.17     616.00
 44.27     597.00
 44.37     655.00
 44.47     603.00
 44.57     658.18
 44.67     659.00
 44.77     635.04
 44.87     631.00
 44.97     639.00
 45.07     631.33
 45.17     657.00
 45.27     652.00
 45.37     643.51
 45.47     672.00
 45.57     622.00
 45.67     618.00
 45.77     626.00
 45.87     629.00
 45.97     649.30
 46.07     628.00
 46.17     574.23
 46.27     627.00
 46.37     676.39
 46.47     657.86
 46.57     652.00
 46.67     641.35
 46.77     645.00
 46.87     658.00
 46.97     669.71
 47.07     632.00
 47.17     648.00
 47.27     640.19
 47.37     608.00
 47.47     656.14
 47.57     670.07
 47.67     607.00
 47.77     624.25
 47.87     609.74
 47.97     682.00
 48.07     750.00
 48.17     668.00
 48.27     673.00
 48.37     720.54
 48.47     718.00
 48.57     732.00
 48.67     702.00
 48.77     660.00
 48.87     713.21
 48.97     660.00
 49.07     629.00
 49.17     699.00
 49.27     649.00
 49.37     722.66
 49.47     735.73
 49.57     679.07
 49.67     716.00
 49.77     761.00
 49.87     846.00
 49.97     929.00
 50.07    1159.00
 50.17    1469.00
 50.27    1977.00
 50.37    2565.40
 50.47    2966.00
 50.57    3269.00
 50.67    3159.61
 50.77    3008.00
 50.87    2546.00
 50.97    1953.00
 51.07    1668.26
 51.17    1210.00
 51.27    1080.00
 51.37     913.00
 51.47     871.52
 51.57     842.00
 51.67     786.60
 51.77     747.00
 51.87     798.77
 51.97     682.06
 52.07     717.00
 52.17     678.34
 52.27     723.00
 52.37     694.79
 52.47     682.74
 52.57     728.70
 52.67     707.00
 52.77     692.00
 52.87     721.00
 52.97     705.00
 53.07     689.53
 53.17     705.95
 53.27     731.84
 53.37     783.00
 53.47     851.75
 53.57     908.00
 53.67    1101.00
 53.77    1122.64
 53.87    1273.00
 53.97    1329.00
 54.07    1336.00
 54.17    1255.80
 54.27    1196.30
 54.37    1143.23
 54.47     961.00
 54.57     902.00
 54.67     799.55
 54.77     718.00
 54.87     755.00
 54.97     713.00
 55.07     697.00
 55.17     736.87
 55.27     739.96
 55.37     688.00
 55.47     739.10
 55.57     691.41
 55.67     710.00
 55.77     665.00
 55.87     696.97
 55.97     693.00
 56.07     671.00
 56.17     745.31
 56.27     724.00
 56.37     800.13
 56.47     856.00
 56.57     918.00
 56.67    1017.51
 56.77    1186.00
 56.87    1450.00
 56.97    1733.14
 57.07    1991.00
 57.17    2410.00
 57.27    2663.00
 57.37    2807.00
 57.47    2764.00
 57.57    2615.00
 57.67    2220.00
 57.77    1921.36
 57.87    1509.00
 57.97    1276.18
 58.07    1098.98
 58.17     998.00
 58.27     895.82
 58.37     849.00
 58.47     839.35
 58.57     802.85
 58.67     895.00
 58.77     888.00
 58.87     965.00
 58.97    1106.98
 59.07    1130.06
 59.17    1193.13
 59.27    1209.00
 59.37    1247.00
 59.47    1367.00
 59.57    1385.29
 59.67    1370.00
 59.77    1353.00
 59.87    1298.00
 59.97    1305.00
 60.07    1174.34
 60.17    1314.00
 60.27    1315.00
 60.37    1397.00
 60.47    1470.00
 60.57    1484.00
 60.67    1644.00
 60.77    1600.00
 60.87    1636.61
 60.97    1586.00
 61.07    1404.09
 61.17    1220.43
 61.27    1084.00
 61.37     986.76
 61.47     894.20
 61.57     882.00
 61.67     833.00
 61.77     809.79
 61.87     834.00
 61.97     971.00
 62.07    1021.00
 62.17    1181.90
 62.27    1306.00
 62.37    1476.00
 62.47    1700.00
 62.57    1806.00
 62.67    1824.68
 62.77    1891.00
 62.87    1769.00
 62.97    1704.00
 63.07    1462.03
 63.17    1321.00
 63.27    1176.00
 63.37     971.00
 63.47     850.00
 63.57     805.29
 63.67     761.18
 63.77     790.75
 63.87     763.00
 63.97     773.00
 64.07     775.13
 64.17     730.29
 64.27     735.77
 64.37     823.00
 64.47     829.00
 64.57     881.00
 64.67     984.20
 64.77    1091.30
 64.87    1207.57
 64.97    1347.14
 65.07    1565.00
 65.17    1598.00
 65.27    1662.00
 65.37    1605.33
 65.47    1611.00
 65.57    1485.00
 65.67    1486.00
 65.77    1337.61
 65.87    1128.00
 65.97    1022.00
 66.07     894.00
 66.17     894.00
 66.27     821.00
 66.37     778.00
 66.47     809.00
 66.57     698.00
 66.67     677.00
 66.77     711.00
 66.87     722.00
 66.97     676.10
 67.07     691.00
 67.17     713.00
 67.27     774.51
 67.37     744.00
 67.47     815.18
 67.57     786.01
 67.67     799.29
 67.77     911.10
 67.87    1040.84
 67.97    1130.03
 68.07    1248.00
 68.17    1574.17
 68.27    1683.00
 68.37    1923.00
 68.47    2149.53
 68.57    2387.56
 68.67    2582.00
 68.77    2611.27
 68.87    2496.83
 68.97    2355.00
 69.07    2203.00
 69.17    1824.05
 69.27    1647.00
 69.37    1442.92
 69.47    1193.78
 69.57    1064.00
 69.67     964.00
 69.77     931.00
 69.87     874.00
 69.97     812.00
 70.07     800.05
 70.17     758.00
 70.27     757.00
 70.37     721.43
 70.47     747.00
 70.57     683.57
 70.67     725.00
 70.77     662.50
 70.87     756.00
 70.97     698.05
 71.07     707.00
 71.17     748.00
 71.27     756.12
 71.37     752.00
 71.47     751.94
 71.57     789.29
 71.67     879.51
 71.77     889.00
 71.87     956.00
 71.97    1106.00
 72.07    1197.00
 72.17    1278.11
 72.27    1466.00
 72.37    1660.00
 72.47    1753.00
 72.57    1937.00
 72.67    2066.00
 72.77    2052.00
 72.87    1962.00
 72.97    1844.26
 73.07    1696.00
 73.17    1536.00
 73.27    1292.69
 73.37    1243.67
 73.47    1135.00
 73.57     947.00
 73.67     898.00
 73.77     830.00
 73.87     792.00
 73.97     744.67
 74.07     685.09
 74.17     691.88
 74.27     754.00
 74.37     705.24
 74.47     643.83
 74.57     725.00
 74.67     705.00
 74.77     681.79
 74.87     692.23
 74.97     699.00
 75.07     700.00
 75.17     735.00
 75.27     739.93
 75.37     773.00
 75.47     741.92
 75.57     720.00
 75.67     755.85
 75.77     734.00
 75.87     740.00
 75.97     763.00
 76.07     693.00
 76.17     749.00
 76.27     767.00
 76.37     709.00
 76.47     763.00
 76.57     770.00
 76.67     803.00
 76.77     847.00
 76.87     922.00
 76.97     978.00
 77.07     978.00
 77.17    1067.96
 77.27    1128.40
 77.37    1024.00
 77.47    1069.12
 77.57    1075.25
 77.67     995.00
 77.77     872.00
 77.87     842.00
 77.97     823.98
 78.07     793.00
 78.17     796.09
 78.27     725.00
 78.37     664.54
 78.47     678.23
 78.57     647.99
 78.67     674.00
 78.77     700.00
 78.87     616.00
 78.97     635.75
 79.07     665.00
 79.17     630.00
 79.27     651.00
 79.37     668.93
 79.47     675.13
 79.57     632.63
 79.67     600.00
 79.77     654.34
 79.87     644.91
 79.97     590.00
 80.07     648.52
 80.17     639.40
 80.27     727.00
 80.37     654.00
 80.47     739.00
 80.57     733.02
 80.67     743.00
 80.77     827.54
 80.87     831.00
 80.97     873.91
 81.07     976.00
 81.17    1031.20
 81.27    1152.00
 81.37    1249.00
 81.47    1382.00
 81.57    1451.00
 81.67    1572.00
 81.77    1580.00
 81.87    1618.00
 81.97    1524.86
 82.07    1577.00
 82.17    1339.05
 82.27    1312.14
 82.37    1231.26
 82.47    1230.80
 82.57    1195.00
 82.67    1116.49
 82.77    1033.80
 82.87     974.86
 82.97     843.33
 83.07     798.00
 83.17     739.00
 83.27     788.00
 83.37     756.62
 83.47     784.89
 83.57     666.99
 83.67     658.51
 83.77     651.00
 83.87     651.70
 83.97     687.73
 84.07     623.00
 84.17     670.00
 84.27     656.00
 84.37     739.02
 84.47     705.00
 84.57     722.00
 84.67     770.12
 84.77     702.00
 84.87     675.00
 84.97     666.59
 85.07     694.00
 85.17     648.00
 85.27     676.00
 85.37     649.00
 85.47     712.62
 85.57     690.00
 85.67     692.69
 85.77     619.00
 85.87     589.00
 85.97     680.49
 86.07     672.00
 86.17     623.00
 86.27     625.84
 86.37     647.00
 86.47     668.00
 86.57     640.00
 86.67     615.00
 86.77     667.00
 86.87     691.00
 86.97     695.00
 87.07     668.27
 87.17     674.00
 87.27     712.00
 87.37     737.30
 87.47     729.00
 87.57     720.00
 87.67     679.73
 87.77     738.00
 87.87     723.57
 87.97     718.00
 88.07     694.09
 88.17     756.00
 88.27     791.00
 88.37     703.36
 88.47     744.00
 88.57     776.00
 88.67     711.00
 88.77     719.00
 88.87     709.88
 88.97     692.95
 89.07     666.27
 89.17     688.00
 89.27     639.00
 89.37     690.00
 89.47     701.00
 89.57     674.00
 89.67     639.00
 89.77     652.00
 89.87     642.27
 89.97     707.00
 90.07     709.75
 90.17     692.00
 90.27     683.00
 90.37     700.00
 90.47     674.00
 90.57     717.00
 90.67     687.00
 90.77     684.45
 90.87     618.18
 90.97     649.00
 91.07     653.00
 91.17     594.00
 91.27     661.12
 91.37     611.00
 91.47     658.93
 91.57     662.15
 91.67     631.00
 91.77     573.08
 91.87     600.00
 91.97     578.38
 92.07     657.55
 92.17     569.02
 92.27     588.45
 92.37     636.23
 92.47     636.00
 92.57     581.95
 92.67     601.00
 92.77     678.47
 92.87     639.00
 92.97     686.00
 93.07     653.75
 93.17     678.62
 93.27     731.41
 93.37     631.00
 93.47     710.00
 93.57     728.00
 93.67     761.00
 93.77     774.58
 93.87     780.00
 93.97     753.00
 94.07     786.00
 94.17     842.44
 94.27     867.00
 94.37     887.62
 94.47     940.22
 94.57     914.00
 94.67     923.00
 94.77     983.52
 94.87    1002.00
 94.97    1003.00
 95.07    1028.00
 95.17    1039.00
 95.27    1027.00
 95.37    1023.09
 95.47    1045.00
 95.57    1068.00
 95.67    1061.50
 95.77    1052.12
 95.87    1073.00
 95.97    1075.00
 96.07    1066.53
 96.17    1002.59
 96.27    1034.31
 96.37     936.00
 96.47     897.62
 96.57     916.51
 96.67     957.00
 96.77     882.52
 96.87     848.00
 96.97     880.82
 97.07     865.00
 97.17     931.00
 97.27     873.94
 97.37     953.00
 97.47    1030.00
 97.57    1095.00
 97.67    1130.00
 97.77    1109.00
 97.87    1255.09
 97.97    1359.88
 98.07    1381.07
 98.17    1443.00
 98.27    1526.00
 98.37    1597.07
 98.47    1611.00
 98.57    1607.03
 98.67    1617.00
 98.77    1599.00
 98.87    1625.80
 98.97    1536.00
 99.07    1448.92
 99.17    1448.00
 99.27    1277.00
 99.37    1205.94
 99.47    1239.99
 99.57    1200.05
 99.67    1083.00
 99.77    1069.09
 99.87     988.00
 99.97    1051.00
100.07    1042.00
100.17    1075.46
100.27    1081.95
100.37    1161.77
100.47    1169.00
100.57    1233.00
100.67    1338.00
100.77    1408.00
100.87    1450.00
100.97    1594.00
101.07    1741.42
101.17    1800.00
101.27    1868.01
101.37    1931.00
101.47    1956.00
101.57    2049.00
101.67    2142.78
101.77    2141.56
101.87    2142.00
101.97    2093.00
102.07    2051.00
102.17    2109.74
102.27    2025.00
102.37    2003.00
102.47    1920.00
102.57    1941.00
102.67    1826.91
102.77    1672.00
102.87    1610.00
102.97    1543.93
103.07    1489.00
103.17    1434.00
103.27    1377.00
103.37    1397.00
103.47    1373.00
103.57    1406.23
103.67    1307.00
103.77    1236.00
103.87    1210.00
103.97    1148.00
104.07    1167.00
104.17    1110.00
104.27    1138.32
104.37    1013.56
104.47     940.00
104.57     930.00
104.67     984.00
104.77     932.00
104.87     889.00
104.97     829.00
105.07     752.59
105.17     777.74
105.27     732.00
105.37     698.00
105.47     703.77
105.57     694.18
105.67     660.00
105.77     625.65
105.87     676.00
105.97     620.00
106.07     620.52
106.17     668.00
106.27     642.01
106.37     624.00
106.47     645.36
106.57     677.00
106.67     593.29
106.77     665.74
106.87     688.00
106.97     660.28
107.07     640.67
107.17     660.00
107.27     663.00
107.37     703.00
107.47     718.00
107.57     686.57
107.67     676.12
107.77     753.00
107.87     762.78
107.97     729.00
108.07     776.00
108.17     750.00
108.27     707.00
108.37     813.00
108.47     792.38
108.57     800.00
108.67     796.40
108.77     768.00
108.87     792.00
108.97     815.27
109.07     815.00
109.17     751.00
109.27     783.18
109.37     763.00
109.47     749.00
109.57     758.00
109.67     826.30
109.77     777.00
109.87     758.53
109.97     822.00
110.07     761.97
110.17     831.00
110.27     826.00
110.37     763.00
110.47     810.00
110.57     821.59
110.67     754.54
110.77     775.00
110.87     810.09
110.97     763.00
111.07     723.00
111.17     721.00
111.27     758.00
111.37     681.00
111.47     708.00
111.57     745.00
111.67     726.00
111.77     673.00
111.87     634.20
111.97     701.00
112.07     670.00
112.17     682.06
112.27     678.00
112.37     621.00
112.47     708.00
112.57     681.87
112.67     658.00
112.77     641.00
112.87     631.00
112.97     668.00
113.07     627.00
113.17     604.00
113.27     654.00
113.37     617.00
113.47     628.00
113.57     668.00
113.67     659.49
113.77     659.55
113.87     677.00
113.97     682.00
114.07     689.17
114.17     725.19
114.27     641.00
114.37     674.00
114.47     669.04
114.57     687.00
114.67     687.00
114.77     741.00
114.87     824.50
114.97     789.86
115.07     800.00
115.17     815.00
115.27     889.00
115.37     933.00
115.47     982.00
115.57    1071.00
115.67    1319.00
115.77    1359.17
115.87    1499.00
115.97    1615.00
116.07    1793.00
116.17    2015.00
116.27    2328.17
116.37    2393.28
116.47    2686.92
116.57    3177.00
116.67    3311.00
116.77    3782.00
116.87    4203.00
116.97    4553.00
117.07    4934.00
117.17    5304.00
117.27    5674.00
117.37    6040.27
117.47    6499.00
117.57    6786.89
117.67    7062.00
117.77    7375.00
117.87    7423.00
117.97    7606.00
118.07    7498.00
118.17    7410.00
118.27    7464.00
118.37    7364.62
118.47    7081.00
118.57    6765.00
118.67    6684.20
118.77    6272.69
118.87    5790.00
118.97    5374.12
119.07    5195.23
119.17    4763.42
119.27    4368.00
119.37    4050.00
119.47    3638.00
119.57    3425.44
119.67    3124.00
119.77    2764.00
119.87    2448.00
119.97    2221.68
120.07    2086.00
120.17    1877.43
120.27    1693.00
120.37    1561.00
120.47    1440.00
120.57    1353.70
120.67    1273.79
120.77    1217.00
120.87    1027.17
120.97    1020.80
121.07    1035.00
121.17     959.00
121.27     910.00
121.37     929.00
121.47     803.89
121.57     795.52
121.67     711.00
121.77     745.17
121.87     744.70
121.97     739.00
122.07     715.00
122.17     756.25
122.27     701.00
122.37     706.00
122.47     738.72
122.57     748.56
122.67     716.29
122.77     753.76
122.87     707.15
122.97     715.00
123.07     689.42
123.17     695.49
123.27     746.00
123.37     743.00
123.47     766.00
123.57     736.00
123.67     714.46
123.77     830.00
123.87     787.00
123.97     824.00
124.07     780.00
124.17     779.00
124.27     782.00
124.37     792.81
124.47     781.32
124.57     772.85
124.67     818.00
124.77     842.00
124.87     777.00
124.97     861.00
