  9.97     681.26
 10.07     715.79
 10.17     747.05
 10.27     749.00
 10.37     767.93
 10.47     771.86
 10.57     690.41
 10.67     695.72
 10.77     709.00
 10.87     730.65
 10.97     742.66
 11.07     707.70
 11.17     760.00
 11.27     750.93
 11.37     664.57
 11.47     737.00
 11.57     768.17
 11.67     766.00
 11.77     762.00
 11.87     763.00
 11.97     695.28
 12.07     810.63
 12.17     766.38
 12.27     881.00
 12.37     843.00
 12.47     816.00
 12.57     754.00
 12.67     754.00
 12.77     726.68
 12.87     685.00
 12.97     711.68
 13.07     703.00
 13.17     645.00
 13.27     672.00
 13.37     654.75
 13.47     667.20
 13.57     714.62
 13.67     653.79
 13.77     652.00
 13.87     644.61
 13.97     687.00
 14.07     691.00
 14.17     665.00
 14.27     686.00
 14.37     663.00
 14.47     655.67
 14.57     719.10
 14.67     685.96
 14.77     619.00
 14.87     659.89
 14.97     646.00
 15.07     655.00
 15.17     652.00
 15.27     698.65
 15.37     691.00
 15.47     638.00
 15.57     683.97
 15.67     657.00
 15.77     664.00
 15.87     625.00
 15.97     686.00
 16.07     660.13
 16.17     718.00
 16.27     656.43
 16.37     625.75
 16.47     623.45
 16.57     648.00
 16.67     672.00
 16.77     626.00
 16.87     713.32
 16.97     606.00
 17.07     676.00
 17.17     677.00
 17.27     646.00
 17.37     656.00
 17.47     620.78
 17.57     651.17
 17.67     650.00
 17.77     641.00
 17.87     616.00
 17.97     661.00
 18.07     659.65
 18.17     603.00
 18.27     658.11
 18.37     677.00
 18.47     638.00
 18.57     632.00
 18.67     637.53
 18.77     613.47
 18.87     663.00
 18.97     688.56
 19.07     624.00
 19.17     632.00
 19.27     659.77
 19.37     637.00
 19.47     643.00
 19.57     662.85
 19.67     645.43
 19.77     626.00
 19.87     609.00
 19.97     627.00
 20.07     619.00
 20.17     601.07
 20.27     644.76
 20.37     663.00
 20.47     609.00
 20.57     613.00
 20.67     595.00
 20.77     615.00
 20.87     613.00
 20.97     597.00
 21.07     616.00
 21.17     614.23
 21.27     614.00
 21.37     606.00
 21.47     573.00
 21.57     633.00
 21.67     676.00
 21.77     672.00
 21.87     672.47
 21.97     633.30
 22.07     640.00
 22.17     679.39
 22.27     599.00
 22.37     642.80
 22.47     650.22
 22.57     593.00
 22.67     632.00
 22.77     670.00
 22.87     637.00
 22.97     629.00
 23.07     617.00
 23.17     657.00
 23.27     629.00
 23.37     652.00
 23.47     608.00
 23.57     638.00
 23.67     632.20
 23.77     636.00
 23.87     647.42
 23.97     630.82
 24.07     633.00
 24.17     637.24
 24.27     656.34
 24.37     658.00
 24.47     692.00
 24.57     696.00
 24.67     664.00
 24.77     724.00
 24.87     675.13
 24.97     736.00
 25.07     690.00
 25.17     720.00
 25.27     742.00
 25.37     683.00
 25.47     687.04
 25.57     694.00
 25.67     699.30
 25.77     622.00
 25.87     641.00
 25.97     643.00
 26.07     624.00
 26.17     701.10
 26.27     702.37
 26.37     695.64
 26.47     700.00
 26.57     652.69
 26.67     617.86
 26.77     660.43
 26.87     707.00
 26.97     665.00
 27.07     661.00
 27.17     757.41
 27.27     670.10
 27.37     728.00
 27.47     802.92
 27.57     807.00
 27.67     820.00
 27.77     928.26
 27.87    1018.18
 27.97    1379.19
 28.07    1951.00
 28.17    3490.92
 28.27    5245.00
 28.37    7413.00
 28.47    8403.21
 28.57    7805.67
 28.67    6155.00
 28.77    4133.65
 28.87    3553.00
 28.97    3785.19
 29.07    4403.65
 29.17    4714.00
 29.27    4435.99
 29.37    3355.70
 29.47    2333.00
 29.57    1650.42
 29.67    1263.57
 29.77    1012.00
 29.87     922.00
 29.97     787.29
 30.07     884.00
 30.17     782.00
 30.27     762.00
 30.37     724.00
 30.47     730.00
 30.57     682.00
 30.67     713.00
 30.77     657.13
 30.87     695.31
 30.97     739.00
 31.07     781.94
 31.17     842.74
 31.27     748.00
 31.37     737.00
 31.47     707.00
 31.57     693.00
 31.67     675.00
 31.77     701.00
 31.87     664.61
 31.97     678.00
 32.07     642.45
 32.17     682.00
 32.27     579.52
 32.37     673.00
 32.47     608.83
 32.57     602.78
 32.67     647.36
 32.77     662.00
 32.87     675.00
 32.97     641.00
 33.07     697.00
 33.17     615.00
 33.27     664.00
 33.37     669.64
 33.47     632.00
 33.57     649.00
 33.67     698.00
 33.77     736.00
 33.87     852.00
 33.97     835.00
 34.07     931.36
 34.17    1105.50
 34.27    1203.94
 34.37    1292.00
 34.47    1238.00
 34.57     983.00
 34.67     890.63
 34.77     777.00
 34.87     773.48
 34.97     701.00
 35.07     633.66
 35.17     678.00
 35.27     680.00
 35.37     605.21
 35.47     667.00
 35.57     652.00
 35.67     584.12
 35.77     583.73
 35.87     638.94
 35.97     633.00
 36.07     584.42
 36.17     568.00
 36.27     574.46
 36.37     663.00
 36.47     590.81
 36.57     610.00
 36.67     568.25
 36.77     640.00
 36.87     628.00
 36.97     615.00
 37.07     623.00
 37.17     618.00
 37.27     613.68
 37.37     625.00
 37.47     595.00
 37.57     618.00
 37.67     638.00
 37.77     619.00
 37.87     617.34
 37.97     655.00
 38.07     714.00
 38.17     740.00
 38.27     734.00
 38.37     744.00
 38.47     750.00
 38.57     735.57
 38.67     686.67
 38.77     626.00
 38.87     654.64
 38.97     619.76
 39.07     605.00
 39.17     620.15
 39.27     653.50
 39.37     642.00
 39.47     629.17
 39.57     603.00
 39.67     582.00
 39.77     606.00
 39.87     602.00
 39.97     620.00
 40.07     567.99
 40.17     601.02
 40.27     567.47
 40.37     605.00
 40.47     579.33
 40.57     615.00
 40.67     586.00
 40.77     616.00
 40.87     605.00
 40.97     602.00
 41.07     578.00
 41.17     557.00
 41.27     584.83
 41.37     601.25
 41.47     588.00
 41.57     591.00
 41.67     614.00
 41.77     615.00
 41.87     583.00
 41.97     628.00
 42.07     613.00
 42.17     651.00
 42.27     573.00
 42.37     629.00
 42.47     608.00
 42.57     592.00
 42.67     610.00
 42.77     624.99
 42.87     626.00
 42.97     753.57
 43.07     702.00
 43.17     669.00
 43.27     673.00
 43.37     645.00
 43.47     633.00
 43.57     632.00
 43.67     652.00
 43.77     620.25
 43.87     626.00
 43.97     583.79
 44.07     624.00
 44.17     584.00
 44.27     635.51
 44.37     645.83
 44.47     617.17
 44.57     619.00
 44.67     644.84
 44.77     577.20
 44.87     600.00
 44.97     573.00
 45.07     582.00
 45.17     601.00
 45.27     618.00
 45.37     631.00
 45.47     597.00
 45.57     581.00
 45.67     646.75
 45.77     593.00
 45.87     657.00
 45.97     629.00
 46.07     552.00
 46.17     621.00
 46.27     575.00
 46.37     559.56
 46.47     644.00
 46.57     567.00
 46.67     569.00
 46.77     618.00
 46.87     599.00
 46.97     621.00
 47.07     656.00
 47.17     584.05
 47.27     566.00
 47.37     578.78
 47.47     610.00
 47.57     583.13
 47.67     622.00
 47.77     660.00
 47.87     642.00
 47.97     646.00
 48.07     689.00
 48.17     714.00
 48.27     671.00
 48.37     727.00
 48.47     686.00
 48.57     726.00
 48.67     665.00
 48.77     594.00
 48.87     633.00
 48.97     622.00
 49.07     686.00
 49.17     627.00
 49.27     639.00
 49.37     641.00
 49.47     635.27
 49.57     665.12
 49.67     764.00
 49.77     773.56
 49.87     830.00
 49.97     940.00
 50.07    1163.00
 50.17    1660.89
 50.27    1956.01
 50.37    2592.00
 50.47    2954.00
 50.57    3213.45
 50.67    3235.11
 50.77    2788.00
 50.87    2347.00
 50.97    1838.00
 51.07    1479.14
 51.17    1140.00
 51.27     938.47
 51.37     814.82
 51.47     855.00
 51.57     775.00
 51.67     752.00
 51.77     773.00
 51.87     674.28
 51.97     683.00
 52.07     693.39
 52.17     720.00
 52.27     709.00
 52.37     674.20
 52.47     673.00
 52.57     690.00
 52.67     671.00
 52.77     629.84
 52.87     628.00
 52.97     721.52
 53.07     706.04
 53.17     710.00
 53.27     743.67
 53.37     784.00
 53.47     854.93
 53.57     938.00
 53.67    1082.00
 53.77    1144.12
 53.87    1260.00
 53.97    1358.35
 54.07    1354.00
 54.17    1191.35
 54.27    1135.00
 54.37    1111.55
 54.47     988.00
 54.57     923.00
 54.67     786.00
 54.77     762.00
 54.87     730.81
 54.97     658.66
 55.07     705.00
 55.17     625.00
 55.27     720.62
 55.37     707.37
 55.47     696.00
 55.57     693.00
 55.67     683.78
 55.77     713.00
 55.87     675.02
 55.97     663.00
 56.07     721.00
 56.17     697.00
 56.27     691.00
 56.37     763.92
 56.47     890.14
 56.57     869.00
 56.67     991.00
 56.77    1303.55
 56.87    1444.00
 56.97    1763.00
 57.07    2098.00
 57.17    2454.00
 57.27    2706.00
 57.37    2711.00
 57.47    2637.00
 57.57    2355.00
 57.67    2085.00
 57.77    1656.01
 57.87    1377.37
 57.97    1232.22
 58.07    1043.00
 58.17     871.00
 58.27     869.00
 58.37     764.00
 58.47     754.08
 58.57     803.00
 58.67     845.00
 58.77     913.00
 58.87     913.00
 58.97    1049.00
 59.07    1131.99
 59.17    1286.30
 59.27    1226.00
 59.37    1381.00
 59.47    1319.00
 59.57    1288.97
 59.67    1333.00
 59.77    1235.72
 59.87    1188.98
 59.97    1212.00
 60.07    1294.84
 60.17    1232.00
 60.27    1376.02
 60.37    1430.00
 60.47    1487.58
 60.57    1614.00
 60.67    1641.00
 60.77    1686.00
 60.87    1547.00
 60.97    1513.79
 61.07    1254.00
 61.17    1225.65
 61.27    1072.00
 61.37     944.00
 61.47     898.60
 61.57     852.12
 61.67     766.60
 61.77     816.55
 61.87     875.00
 61.97     948.04
 62.07     976.00
 62.17    1126.00
 62.27    1302.00
 62.37    1448.00
 62.47    1633.00
 62.57    1748.86
 62.67    1844.00
 62.77    1759.00
 62.87    1628.87
 62.97    1560.00
 63.07    1371.40
 63.17    1212.00
 63.27    1045.01
 63.37     924.00
 63.47     913.96
 63.57     766.34
 63.67     778.72
 63.77     697.80
 63.87     676.47
 63.97     738.00
 64.07     670.83
 64.17     749.00
 64.27     750.00
 64.37     749.14
 64.47     863.00
 64.57     901.00
 64.67    1023.00
 64.77    1124.00
 64.87    1284.08
 64.97    1384.00
 65.07    1472.70
 65.17    1592.46
 65.27    1530.66
 65.37    1566.00
 65.47    1494.17
 65.57    1456.00
 65.67    1337.54
 65.77    1128.66
 65.87    1024.12
 65.97     997.00
 66.07     925.45
 66.17     789.00
 66.27     766.00
 66.37     801.67
 66.47     703.78
 66.57     692.00
 66.67     686.00
 66.77     697.70
 66.87     664.00
 66.97     661.08
 67.07     684.00
 67.17     730.59
 67.27     687.00
 67.37     691.00
 67.47     729.00
 67.57     823.00
 67.67     790.00
 67.77     914.56
 67.87    1038.00
 67.97    1141.83
 68.07    1294.56
 68.17    1452.00
 68.27    1852.84
 68.37    2021.00
 68.47    2319.00
 68.57    2448.04
 68.67    2600.22
 68.77    2482.73
 68.87    2375.00
 68.97    2244.00
 69.07    2045.90
 69.17    1683.33
 69.27    1549.42
 69.37    1280.00
 69.47    1132.94
 69.57    1011.00
 69.67     895.52
 69.77     865.00
 69.87     845.00
 69.97     759.00
 70.07     811.00
 70.17     691.19
 70.27     683.60
 70.37     711.00
 70.47     673.98
 70.57     728.00
 70.67     725.00
 70.77     711.00
 70.87     666.13
 70.97     675.00
 71.07     663.89
 71.17     769.00
 71.27     687.23
 71.37     781.00
 71.47     760.00
 71.57     759.00
 71.67     814.00
 71.77     943.05
 71.87     953.00
 71.97    1048.92
 72.07    1185.38
 72.17    1387.00
 72.27    1523.00
 72.37    1723.00
 72.47    1881.00
 72.57    1975.00
 72.67    2016.00
 72.77    2000.00
 72.87    1897.00
 72.97    1763.00
 73.07    1570.61
 73.17    1372.00
 73.27    1250.00
 73.37    1099.00
 73.47    1004.00
 73.57     908.00
 73.67     839.75
 73.77     776.00
 73.87     735.00
 73.97     721.00
 74.07     656.00
 74.17     699.87
 74.27     675.00
 74.37     618.00
 74.47     658.00
 74.57     666.31
 74.67     655.84
 74.77     672.00
 74.87     656.74
 74.97     649.00
 75.07     651.07
 75.17     711.00
 75.27     707.00
 75.37     724.00
 75.47     737.00
 75.57     730.00
 75.67     665.63
 75.77     727.00
 75.87     715.00
 75.97     620.74
 76.07     695.00
 76.17     726.00
 76.27     713.86
 76.37     681.13
 76.47     782.00
 76.57     763.00
 76.67     804.00
 76.77     830.00
 76.87     897.94
 76.97     963.00
 77.07    1009.00
 77.17     991.64
 77.27    1072.00
 77.37     964.84
 77.47     951.00
 77.57     947.80
 77.67     945.00
 77.77     878.00
 77.87     796.00
 77.97     864.00
 78.07     729.00
 78.17     705.00
 78.27     745.47
 78.37     631.00
 78.47     651.00
 78.57     624.88
 78.67     683.12
 78.77     643.00
 78.87     625.00
 78.97     611.65
 79.07     623.00
 79.17     605.00
 79.27     602.00
 79.37     614.00
 79.47     638.65
 79.57     608.90
 79.67     674.16
 79.77     641.11
 79.87     675.03
 79.97     657.00
 80.07     638.00
 80.17     611.21
 80.27     628.96
 80.37     702.27
 80.47     715.00
 80.57     705.00
 80.67     696.12
 80.77     804.00
 80.87     822.00
 80.97     874.00
 81.07     985.00
 81.17    1007.99
 81.27    1129.45
 81.37    1141.52
 81.47    1215.56
 81.57    1370.00
 81.67    1479.00
 81.77    1368.82
 81.87    1552.00
 81.97    1509.00
 82.07    1397.02
 82.17    1410.00
 82.27    1347.00
 82.37    1130.65
 82.47    1096.00
 82.57    1063.00
 82.67     960.10
 82.77     917.00
 82.87     877.00
 82.97     808.45
 83.07     746.00
 83.17     741.00
 83.27     794.89
 83.37     708.00
 83.47     733.59
 83.57     654.73
 83.67     656.00
 83.77     630.00
 83.87     619.90
 83.97     638.00
 84.07     660.00
 84.17     659.47
 84.27     592.00
 84.37     705.05
 84.47     659.00
 84.57     690.00
 84.67     624.00
 84.77     695.00
 84.87     663.00
 84.97     674.00
 85.07     679.00
 85.17     711.46
 85.27     646.00
 85.37     609.19
 85.47     651.00
 85.57     591.00
 85.67     618.00
 85.77     584.00
 85.87     638.00
 85.97     610.00
 86.07     620.00
 86.17     643.00
 86.27     613.00
 86.37     608.00
 86.47     580.71
 86.57     606.71
 86.67     643.00
 86.77     604.00
 86.87     671.00
 86.97     702.81
 87.07     618.55
 87.17     686.00
 87.27     652.64
 87.37     687.37
 87.47     668.62
 87.57     689.00
 87.67     697.00
 87.77     752.00
 87.87     724.00
 87.97     699.00
 88.07     760.00
 88.17     744.95
 88.27     776.00
 88.37     666.27
 88.47     771.65
 88.57     727.00
 88.67     648.21
 88.77     662.83
 88.87     742.00
 88.97     694.00
 89.07     655.00
 89.17     691.65
 89.27     638.00
 89.37     633.00
 89.47     611.00
 89.57     652.00
 89.67     669.00
 89.77     645.00
 89.87     671.00
 89.97     724.97
 90.07     629.99
 90.17     723.50
 90.27     693.00
 90.37     685.00
 90.47     665.15
 90.57     674.00
 90.67     628.41
 90.77     628.73
 90.87     681.00
 90.97     659.00
 91.07     600.00
 91.17     590.00
 91.27     663.51
 91.37     571.00
 91.47     616.00
 91.57     684.00
 91.67     661.00
 91.77     601.20
 91.87     572.00
 91.97     611.00
 92.07     552.00
 92.17     605.39
 92.27     555.43
 92.37     614.00
 92.47     647.00
 92.57     589.00
 92.67     629.00
 92.77     608.00
 92.87     630.81
 92.97     646.98
 93.07     648.61
 93.17     650.00
 93.27     664.00
 93.37     664.00
 93.47     714.52
 93.57     777.42
 93.67     725.00
 93.77     842.00
 93.87     741.00
 93.97     797.00
 94.07     794.14
 94.17     791.00
 94.27     887.00
 94.37     811.00
 94.47     846.32
 94.57     924.82
 94.67     908.00
 94.77     995.00
 94.87     941.53
 94.97     986.00
 95.07    1025.00
 95.17    1000.00
 95.27     973.00
 95.37     987.75
 95.47    1102.00
 95.57    1084.00
 95.67    1072.00
 95.77    1021.75
 95.87    1015.00
 95.97    1027.00
 96.07     936.97
 96.17     918.59
 96.27     990.61
 96.37     948.57
 96.47     877.00
 96.57     888.00
 96.67     879.00
 96.77     791.03
 96.87     790.00
 96.97     862.06
 97.07     852.00
 97.17     874.72
 97.27     945.00
 97.37     928.94
 97.47     972.25
 97.57    1110.00
 97.67    1173.00
 97.77    1170.00
 97.87    1229.00
 97.97    1312.73
 98.07    1403.00
 98.17    1470.00
 98.27    1516.00
 98.37    1582.33
 98.47    1589.00
 98.57    1650.00
 98.67    1634.71
 98.77    1473.60
 98.87    1437.51
 98.97    1415.00
 99.07    1396.00
 99.17    1339.00
 99.27    1200.88
 99.37    1222.00
 99.47    1113.00
 99.57    1117.00
 99.67    1001.00
 99.77    1064.00
 99.87    1065.04
 99.97    1036.00
100.07     938.00
100.17    1048.00
100.27    1097.74
100.37    1154.00
100.47    1212.17
100.57    1264.00
100.67    1369.00
100.77    1432.66
100.87    1535.00
100.97    1589.90
101.07    1746.00
101.17    1832.00
101.27    1937.00
101.37    1951.32
101.47    2034.00
101.57    2037.00
101.67    2112.00
101.77    2055.60
101.87    2161.00
101.97    2054.00
102.07    2090.00
102.17    2117.90
102.27    1965.00
102.37    1921.00
102.47    1917.00
102.57    1801.69
102.67    1647.00
102.77    1579.34
102.87    1569.00
102.97    1575.67
103.07    1513.22
103.17    1446.00
103.27    1431.31
103.37    1306.00
103.47    1305.00
103.57    1302.39
103.67    1262.00
103.77    1226.00
103.87    1217.33
103.97    1155.29
104.07    1078.26
104.17    1071.00
104.27    1036.00
104.37    1004.00
104.47     979.00
104.57     902.00
104.67     864.00
104.77     883.00
104.87     817.00
104.97     717.16
105.07     773.98
105.17     698.00
105.27     731.48
105.37     689.34
105.47     635.00
105.57     688.00
105.67     689.00
105.77     642.00
105.87     625.89
105.97     669.00
106.07     578.50
106.17     601.00
106.27     617.55
106.37     641.00
106.47     609.00
106.57     621.00
106.67     593.00
106.77     619.71
106.87     667.00
106.97     659.00
107.07     627.18
107.17     669.00
107.27     694.00
107.37     623.05
107.47     650.06
107.57     684.06
107.67     719.00
107.77     733.81
107.87     709.00
107.97     741.00
108.07     754.00
108.17     781.00
108.27     772.83
108.37     791.00
108.47     813.60
108.57     835.04
108.67     727.00
108.77     801.00
108.87     714.00
108.97     801.22
109.07     776.00
109.17     833.24
109.27     764.01
109.37     774.99
109.47     816.03
109.57     762.00
109.67     830.65
109.77     782.00
109.87     727.00
109.97     740.59
110.07     718.00
110.17     794.00
110.27     710.00
110.37     791.00
110.47     715.00
110.57     773.00
110.67     729.00
110.77     742.05
110.87     709.00
110.97     677.60
111.07     702.00
111.17     754.50
111.27     676.00
111.37     641.57
111.47     653.00
111.57     662.54
111.67     682.06
111.77     687.00
111.87     633.00
111.97     662.00
112.07     688.00
112.17     635.00
112.27     638.00
112.37     635.00
112.47     598.00
112.57     589.00
112.67     611.00
112.77     657.45
112.87     643.44
112.97     582.00
113.07     593.00
113.17     638.52
113.27     595.00
113.37     647.00
113.47     679.53
113.57     644.00
113.67     648.00
113.77     641.00
113.87     635.04
113.97     600.81
114.07     673.00
114.17     610.00
114.27     670.08
114.37     690.00
114.47     675.00
114.57     687.00
114.67     676.00
114.77     766.00
114.87     773.00
114.97     815.00
115.07     808.43
115.17     847.52
115.27     957.00
115.37     989.00
115.47    1059.00
115.57    1156.00
115.67    1291.00
115.77    1369.69
115.87    1589.00
115.97    1695.00
116.07    2027.91
116.17    2222.00
116.27    2380.00
116.37    2735.59
116.47    2982.06
116.57    3251.41
116.67    3591.00
116.77    4141.00
116.87    4525.02
116.97    4864.30
117.07    5160.42
117.17    5549.00
117.27    6039.89
117.37    6349.00
117.47    6756.00
117.57    7089.12
117.67    7293.00
117.77    7368.00
117.87    7651.00
117.97    7677.11
118.07    7513.20
118.17    7552.00
118.27    7439.90
118.37    7232.34
118.47    6785.00
118.57    6359.00
118.67    5989.00
118.77    5977.67
118.87    5489.00
118.97    5107.00
119.07    4707.75
119.17    4375.00
119.27    4094.00
119.37    3670.00
119.47    3332.00
119.57    3089.00
119.67    2749.00
119.77    2448.69
119.87    2213.00
119.97    2068.64
120.07    1852.00
120.17    1650.11
120.27    1472.68
120.37    1380.57
120.47    1292.00
120.57    1241.00
120.67    1147.00
120.77    1005.21
120.87     933.38
120.97     960.00
121.07     840.17
121.17     853.00
121.27     814.98
121.37     850.46
121.47     844.19
121.57     776.00
121.67     734.00
121.77     731.64
121.87     721.00
121.97     686.23
122.07     709.00
122.17     702.00
122.27     716.00
122.37     694.92
122.47     754.66
122.57     711.00
122.67     652.00
122.77     668.08
122.87     689.46
122.97     687.00
123.07     703.00
123.17     720.00
123.27     688.77
123.37     743.00
123.47     689.65
123.57     736.00
123.67     757.00
123.77     792.31
123.87     723.50
123.97     736.33
124.07     780.23
124.17     741.63
124.27     809.00
124.37     766.00
124.47     762.00
124.57     813.00
124.67     838.00
124.77     702.61
124.87     739.17
124.97     837.00
