  9.97     738.00
 10.07     737.26
 10.17     690.21
 10.27     748.00
 10.37     721.11
 10.47     657.06
 10.57     738.00
 10.67     679.00
 10.77     685.00
 10.87     715.23
 10.97     685.00
 11.07     691.68
 11.17     700.71
 11.27     684.89
 11.37     722.00
 11.47     745.00
 11.57     763.00
 11.67     763.00
 11.77     765.00
 11.87     720.24
 11.97     783.00
 12.07     820.00
 12.17     860.00
 12.27     775.17
 12.37     821.00
 12.47     840.00
 12.57     805.33
 12.67     732.00
 12.77     701.00
 12.87     674.00
 12.97     690.00
 13.07     697.00
 13.17     666.00
 13.27     665.00
 13.37     638.00
 13.47     644.00
 13.57     646.00
 13.67     686.00
 13.77     666.60
 13.87     707.36
 13.97     657.00
 14.07     680.00
 14.17     671.00
 14.27     701.00
 14.37     625.55
 14.47     622.00
 14.57     618.01
 14.67     594.00
 14.77     663.00
 14.87     655.00
 14.97     615.00
 15.07     630.00
 15.17     640.00
 15.27     672.00
 15.37     678.09
 15.47     655.00
 15.57     608.89
 15.67     649.36
 15.77     647.00
 15.87     670.08
 15.97     635.00
 16.07     642.00
 16.17     620.52
 16.27     609.00
 16.37     607.16
 16.47     630.00
 16.57     681.00
 16.67     600.00
 16.77     626.00
 16.87     684.58
 16.97     695.00
 17.07     617.66
 17.17     615.00
 17.27     674.04
 17.37     591.00
 17.47     664.04
 17.57     628.00
 17.67     664.00
 17.77     636.00
 17.87     595.88
 17.97     653.14
 18.07     635.00
 18.17     629.21
 18.27     658.48
 18.37     604.00
 18.47     632.00
 18.57     654.02
 18.67     687.00
 18.77     677.00
 18.87     651.00
 18.97     586.00
 19.07     632.68
 19.17     593.00
 19.27     635.00
 19.37     619.00
 19.47     625.00
 19.57     624.00
 19.67     636.00
 19.77     646.19
 19.87     633.00
 19.97     589.80
 20.07     587.00
 20.17     686.00
 20.27     593.00
 20.37     592.00
 20.47     627.00
 20.57     636.00
 20.67     638.00
 20.77     603.75
 20.87     648.32
 20.97     671.09
 21.07     625.73
 21.17     609.00
 21.27     583.96
 21.37     617.00
 21.47     603.00
 21.57     627.00
 21.67     604.28
 21.77     611.00
 21.87     602.00
 21.97     579.00
 22.07     594.00
 22.17     612.27
 22.27     623.00
 22.37     662.29
 22.47     618.05
 22.57     621.00
 22.67     610.11
 22.77     634.00
 22.87     661.77
 22.97     658.81
 23.07     631.00
 23.17     635.00
 23.27     585.00
 23.37     654.73
 23.47     651.00
 23.57     604.00
 23.67     604.00
 23.77     637.00
 23.87     651.88
 23.97     627.00
 24.07     626.00
 24.17     630.00
 24.27     658.61
 24.37     663.00
 24.47     649.48
 24.57     650.17
 24.67     684.40
 24.77     687.00
 24.87     733.54
 24.97     691.00
 25.07     707.00
 25.17     708.00
 25.27     689.38
 25.37     693.00
 25.47     701.00
 25.57     608.00
 25.67     605.00
 25.77     638.00
 25.87     619.00
 25.97     665.00
 26.07     660.73
 26.17     613.23
 26.27     634.00
 26.37     641.98
 26.47     661.00
 26.57     630.02
 26.67     696.54
 26.77     707.00
 26.87     670.00
 26.97     677.00
 27.07     651.00
 27.17     686.00
 27.27     652.00
 27.37     722.00
 27.47     725.00
 27.57     766.00
 27.67     825.00
 27.77     887.23
 27.87     999.00
 27.97    1342.61
 28.07    1999.00
 28.17    3226.00
 28.27    5221.97
 28.37    6844.00
 28.47    7788.00
 28.57    6803.00
 28.67    5270.00
 28.77    3764.52
 28.87    3326.00
 28.97    3589.40
 29.07    4142.00
 29.17    4225.00
 29.27    3795.71
 29.37    2910.00
 29.47    2116.64
 29.57    1534.06
 29.67    1164.00
 29.77     945.00
 29.87     907.00
 29.97     797.47
 30.07     776.00
 30.17     783.00
 30.27     763.00
 30.37     670.00
 30.47     701.60
 30.57     715.91
 30.67     688.00
 30.77     707.00
 30.87     685.57
 30.97     737.67
 31.07     748.00
 31.17     738.77
 31.27     787.35
 31.37     765.00
 31.47     687.00
 31.57     691.32
 31.67     669.00
 31.77     657.51
 31.87     592.66
 31.97     599.00
 32.07     669.00
 32.17     626.00
 32.27     594.47
 32.37     624.00
 32.47     657.00
 32.57     567.00
 32.67     612.00
 32.77     600.00
 32.87     585.42
 32.97     649.43
 33.07     624.00
 33.17     648.96
 33.27     619.00
 33.37     606.00
 33.47     627.00
 33.57     659.00
 33.67     645.03
 33.77     699.00
 33.87     709.00
 33.97     881.12
 34.07     964.00
 34.17    1059.67
 34.27    1254.00
 34.37    1243.00
 34.47    1098.00
 34.57    1052.52
 34.67     912.80
 34.77     796.07
 34.87     645.00
 34.97     720.00
 35.07     670.00
 35.17     659.00
 35.27     633.00
 35.37     592.00
 35.47     620.00
 35.57     577.00
 35.67     594.00
 35.77     612.00
 35.87     637.00
 35.97     581.96
 36.07     634.00
 36.17     597.58
 36.27     573.84
 36.37     605.00
 36.47     641.00
 36.57     545.82
 36.67     594.34
 36.77     562.00
 36.87     591.00
 36.97     611.00
 37.07     622.41
 37.17     619.00
 37.27     576.00
 37.37     572.46
 37.47     625.00
 37.57     593.74
 37.67     614.00
 37.77     614.44
 37.87     636.00
 37.97     655.79
 38.07     648.00
 38.17     709.00
 38.27     700.80
 38.37     734.43
 38.47     670.00
 38.57     712.59
 38.67     703.84
 38.77     605.00
 38.87     581.90
 38.97     605.00
 39.07     625.38
 39.17     587.00
 39.27     599.00
 39.37     535.00
 39.47     571.88
 39.57     549.30
 39.67     605.00
 39.77     579.08
 39.87     539.94
 39.97     581.00
 40.07     563.33
 40.17     629.50
 40.27     586.57
 40.37     605.00
 40.47     575.00
 40.57     580.00
 40.67     614.00
 40.77     588.00
 40.87     599.00
 40.97     510.00
 41.07     579.71
 41.17     556.00
 41.27     592.39
 41.37     553.00
 41.47     626.73
 41.57     610.00
 41.67     555.00
 41.77     569.00
 41.87     587.00
 41.97     607.00
 42.07     562.21
 42.17     585.14
 42.27     536.00
 42.37     591.00
 42.47     594.00
 42.57     621.00
 42.67     648.86
 42.77     616.12
 42.87     635.00
 42.97     636.00
 43.07     607.00
 43.17     697.00
 43.27     664.00
 43.37     599.00
 43.47     642.00
 43.57     613.97
 43.67     618.00
 43.77     627.00
 43.87     619.00
 43.97     617.86
 44.07     574.31
 44.17     568.00
 44.27     597.05
 44.37     559.00
 44.47     586.92
 44.57     553.17
 44.67     611.00
 44.77     606.74
 44.87     610.00
 44.97     601.00
 45.07     608.00
 45.17     563.00
 45.27     560.47
 45.37     648.00
 45.47     639.00
 45.57     627.00
 45.67     579.00
 45.77     571.32
 45.87     556.00
 45.97     603.00
 46.07     625.00
 46.17     602.00
 46.27     593.00
 46.37     565.00
 46.47     629.00
 46.57     582.00
 46.67     633.26
 46.77     574.00
 46.87     655.00
 46.97     588.27
 47.07     616.00
 47.17     626.87
 47.27     576.00
 47.37     597.00
 47.47     567.36
 47.57     586.31
 47.67     650.00
 47.77     611.00
 47.87     676.63
 47.97     656.79
 48.07     670.00
 48.17     640.88
 48.27     642.43
 48.37     700.76
 48.47     637.34
 48.57     689.00
 48.67     655.00
 48.77     619.00
 48.87     640.00
 48.97     583.48
 49.07     629.00
 49.17     652.43
 49.27     594.00
 49.37     622.00
 49.47     648.00
 49.57     671.00
 49.67     743.07
 49.77     766.63
 49.87     846.00
 49.97    1060.53
 50.07    1158.00
 50.17    1603.38
 50.27    2155.00
 50.37    2690.99
 50.47    2949.00
 50.57    3009.00
 50.67    2923.00
 50.77    2624.00
 50.87    2129.00
 50.97    1620.00
 51.07    1318.49
 51.17    1074.24
 51.27     880.04
 51.37     805.96
 51.47     826.00
 51.57     807.00
 51.67     702.24
 51.77     667.63
 51.87     701.00
 51.97     711.00
 52.07     665.96
 52.17     697.81
 52.27     701.00
 52.37     705.00
 52.47     678.00
 52.57     702.00
 52.67     674.00
 52.77     595.00
 52.87     667.00
 52.97     669.00
 53.07     673.00
 53.17     699.00
 53.27     732.94
 53.37     765.00
 53.47     864.00
 53.57     921.00
 53.67    1095.00
 53.77    1123.39
 53.87    1307.00
 53.97    1356.00
 54.07    1251.00
 54.17    1221.00
 54.27    1102.01
 54.37    1045.48
 54.47     849.53
 54.57     817.00
 54.67     784.00
 54.77     728.94
 54.87     709.00
 54.97     679.00
 55.07     641.74
 55.17     657.00
 55.27     695.46
 55.37     661.92
 55.47     642.00
 55.57     636.00
 55.67     710.71
 55.77     708.61
 55.87     655.00
 55.97     683.00
 56.07     742.10
 56.17     748.00
 56.27     707.82
 56.37     747.81
 56.47     815.00
 56.57     961.90
 56.67    1049.00
 56.77    1331.00
 56.87    1581.00
 56.97    1947.00
 57.07    2230.00
 57.17    2487.96
 57.27    2723.07
 57.37    2709.00
 57.47    2543.00
 57.57    2256.14
 57.67    1922.74
 57.77    1537.89
 57.87    1378.72
 57.97    1059.00
 58.07     927.00
 58.17     852.83
 58.27     869.00
 58.37     827.00
 58.47     770.00
 58.57     854.67
 58.67     860.00
 58.77     881.00
 58.87     955.00
 58.97     967.00
 59.07    1185.00
 59.17    1186.00
 59.27    1274.76
 59.37    1387.17
 59.47    1337.00
 59.57    1304.00
 59.67    1249.47
 59.77    1277.17
 59.87    1209.00
 59.97    1234.00
 60.07    1225.00
 60.17    1235.00
 60.27    1293.24
 60.37    1468.94
 60.47    1496.00
 60.57    1517.64
 60.67    1592.00
 60.77    1526.00
 60.87    1569.55
 60.97    1394.00
 61.07    1300.00
 61.17    1165.48
 61.27     948.00
 61.37     887.00
 61.47     799.00
 61.57     758.00
 61.67     756.76
 61.77     854.55
 61.87     857.00
 61.97     981.63
 62.07    1015.00
 62.17    1117.71
 62.27    1352.71
 62.37    1474.00
 62.47    1632.00
 62.57    1697.00
 62.67    1778.00
 62.77    1752.00
 62.87    1567.00
 62.97    1490.00
 63.07    1279.75
 63.17    1083.00
 63.27     960.00
 63.37     913.61
 63.47     800.00
 63.57     814.03
 63.67     750.00
 63.77     722.56
 63.87     704.00
 63.97     717.00
 64.07     713.77
 64.17     762.93
 64.27     749.00
 64.37     808.00
 64.47     842.00
 64.57     905.00
 64.67     996.00
 64.77    1103.00
 64.87    1268.46
 64.97    1372.00
 65.07    1459.81
 65.17    1478.00
 65.27    1552.00
 65.37    1393.00
 65.47    1423.00
 65.57    1331.03
 65.67    1188.00
 65.77    1083.00
 65.87     971.57
 65.97     896.00
 66.07     820.89
 66.17     761.00
 66.27     783.00
 66.37     729.00
 66.47     777.92
 66.57     671.43
 66.67     722.53
 66.77     673.32
 66.87     647.62
 66.97     669.70
 67.07     719.23
 67.17     677.00
 67.27     662.76
 67.37     710.17
 67.47     734.00
 67.57     814.00
 67.67     815.02
 67.77     942.01
 67.87    1012.00
 67.97    1205.76
 68.07    1444.00
 68.17    1644.99
 68.27    1959.37
 68.37    2225.16
 68.47    2317.92
 68.57    2439.00
 68.67    2515.40
 68.77    2370.05
 68.87    2465.00
 68.97    2154.00
 69.07    1889.00
 69.17    1544.68
 69.27    1451.00
 69.37    1208.00
 69.47    1045.00
 69.57     959.18
 69.67     909.00
 69.77     792.00
 69.87     720.44
 69.97     821.00
 70.07     734.00
 70.17     725.00
 70.27     651.03
 70.37     691.00
 70.47     642.53
 70.57     670.00
 70.67     684.00
 70.77     691.00
 70.87     704.00
 70.97     733.00
 71.07     670.66
 71.17     714.00
 71.27     687.00
 71.37     686.12
 71.47     785.00
 71.57     775.00
 71.67     856.00
 71.77     888.74
 71.87    1051.00
 71.97    1147.00
 72.07    1252.72
 72.17    1406.00
 72.27    1479.00
 72.37    1712.08
 72.47    1946.09
 72.57    1910.37
 72.67    2050.98
 72.77    1941.37
 72.87    1815.00
 72.97    1643.00
 73.07    1494.00
 73.17    1373.09
 73.27    1123.00
 73.37    1113.08
 73.47    1001.96
 73.57     874.50
 73.67     828.23
 73.77     713.28
 73.87     684.97
 73.97     713.87
 74.07     678.52
 74.17     638.00
 74.27     653.00
 74.37     622.39
 74.47     617.81
 74.57     640.83
 74.67     597.00
 74.77     699.20
 74.87     708.00
 74.97     692.00
 75.07     643.82
 75.17     621.87
 75.27     690.00
 75.37     684.10
 75.47     655.03
 75.57     696.43
 75.67     645.97
 75.77     639.98
 75.87     687.83
 75.97     703.00
 76.07     653.00
 76.17     646.10
 76.27     744.09
 76.37     698.00
 76.47     720.00
 76.57     781.00
 76.67     858.30
 76.77     833.00
 76.87     876.17
 76.97     966.51
 77.07    1018.00
 77.17     999.52
 77.27    1014.00
 77.37     917.00
 77.47     963.00
 77.57     877.00
 77.67     874.00
 77.77     800.00
 77.87     830.84
 77.97     726.00
 78.07     740.39
 78.17     656.00
 78.27     689.00
 78.37     665.00
 78.47     634.00
 78.57     621.74
 78.67     637.00
 78.77     656.00
 78.87     680.00
 78.97     651.00
 79.07     589.07
 79.17     666.00
 79.27     602.00
 79.37     616.00
 79.47     594.00
 79.57     648.29
 79.67     571.73
 79.77     611.00
 79.87     599.00
 79.97     606.00
 80.07     657.00
 80.17     624.00
 80.27     646.00
 80.37     668.00
 80.47     661.00
 80.57     730.00
 80.67     725.00
 80.77     726.21
 80.87     836.00
 80.97     831.59
 81.07     972.80
 81.17     958.00
 81.27    1073.98
 81.37    1187.55
 81.47    1215.00
 81.57    1316.00
 81.67    1457.00
 81.77    1376.00
 81.87    1381.00
 81.97    1342.43
 82.07    1211.63
 82.17    1343.00
 82.27    1234.00
 82.37    1148.00
 82.47    1015.49
 82.57    1005.73
 82.67     918.82
 82.77     902.00
 82.87     791.00
 82.97     767.21
 83.07     687.00
 83.17     727.59
 83.27     650.00
 83.37     658.00
 83.47     632.00
 83.57     658.19
 83.67     639.00
 83.77     625.00
 83.87     692.72
 83.97     605.00
 84.07     590.00
 84.17     635.00
 84.27     649.75
 84.37     641.00
 84.47     693.00
 84.57     687.00
 84.67     672.00
 84.77     671.00
 84.87     617.00
 84.97     634.00
 85.07     673.00
 85.17     621.00
 85.27     643.00
 85.37     651.00
 85.47     603.00
 85.57     600.00
 85.67     625.00
 85.77     585.10
 85.87     601.00
 85.97     567.36
 86.07     593.00
 86.17     576.50
 86.27     622.00
 86.37     636.81
 86.47     617.00
 86.57     581.28
 86.67     652.48
 86.77     627.00
 86.87     670.00
 86.97     678.89
 87.07     691.33
 87.17     664.53
 87.27     650.77
 87.37     658.00
 87.47     683.00
 87.57     689.95
 87.67     711.00
 87.77     734.00
 87.87     727.00
 87.97     712.36
 88.07     726.00
 88.17     701.76
 88.27     733.00
 88.37     693.00
 88.47     685.00
 88.57     683.15
 88.67     675.36
 88.77     691.00
 88.87     704.00
 88.97     627.00
 89.07     656.30
 89.17     654.74
 89.27     660.25
 89.37     687.00
 89.47     607.00
 89.57     668.00
 89.67     641.46
 89.77     683.00
 89.87     653.00
 89.97     680.00
 90.07     696.00
 90.17     684.00
 90.27     667.55
 90.37     689.11
 90.47     700.88
 90.57     626.53
 90.67     599.00
 90.77     673.00
 90.87     615.00
 90.97     667.06
 91.07     633.00
 91.17     538.00
 91.27     587.00
 91.37     587.96
 91.47     597.00
 91.57     594.00
 91.67     611.00
 91.77     560.00
 91.87     568.02
 91.97     606.23
 92.07     589.93
 92.17     627.00
 92.27     586.00
 92.37     586.00
 92.47     570.00
 92.57     611.00
 92.67     600.00
 92.77     652.00
 92.87     641.00
 92.97     604.00
 93.07     633.00
 93.17     668.00
 93.27     668.62
 93.37     724.00
 93.47     693.00
 93.57     714.00
 93.67     774.00
 93.77     746.00
 93.87     781.92
 93.97     843.00
 94.07     775.12
 94.17     788.00
 94.27     852.00
 94.37     846.00
 94.47     887.00
 94.57     933.06
 94.67     876.90
 94.77     920.00
 94.87     977.00
 94.97     942.38
 95.07    1040.08
 95.17    1043.62
 95.27     980.00
 95.37    1079.52
 95.47     985.35
 95.57     993.00
 95.67    1033.00
 95.77    1029.00
 95.87    1010.00
 95.97     965.00
 96.07     970.00
 96.17     924.00
 96.27     949.57
 96.37     891.00
 96.47     887.02
 96.57     816.00
 96.67     746.07
 96.77     833.83
 96.87     853.49
 96.97     828.00
 97.07     845.00
 97.17     880.00
 97.27     839.92
 97.37     957.00
 97.47     983.00
 97.57    1028.00
 97.67    1141.00
 97.77    1200.00
 97.87    1240.40
 97.97    1344.36
 98.07    1453.00
 98.17    1572.00
 98.27    1472.46
 98.37    1541.00
 98.47    1612.00
 98.57    1504.94
 98.67    1538.70
 98.77    1577.70
 98.87    1468.00
 98.97    1360.72
 99.07    1308.00
 99.17    1248.00
 99.27    1198.00
 99.37    1151.31
 99.47    1062.00
 99.57    1052.09
 99.67    1051.00
 99.77    1011.00
 99.87     995.00
 99.97     966.00
100.07    1036.90
100.17    1044.53
100.27    1114.61
100.37    1140.00
100.47    1173.78
100.57    1332.00
100.67    1480.00
100.77    1470.00
100.87    1543.00
100.97    1683.00
101.07    1770.71
101.17    1877.53
101.27    1859.00
101.37    1945.00
101.47    2029.00
101.57    1987.83
101.67    2171.58
101.77    2141.00
101.87    2091.69
101.97    2015.00
102.07    2041.00
102.17    1964.00
102.27    1985.89
102.37    1932.95
102.47    1847.67
102.57    1710.00
102.67    1676.13
102.77    1544.00
102.87    1477.00
102.97    1362.00
103.07    1418.00
103.17    1433.23
103.27    1220.00
103.37    1272.00
103.47    1259.00
103.57    1213.00
103.67    1205.00
103.77    1171.38
103.87    1136.00
103.97    1072.00
104.07    1040.39
104.17    1049.18
104.27     958.00
104.37    1000.00
104.47     913.00
104.57     899.00
104.67     865.93
104.77     809.08
104.87     754.19
104.97     748.00
105.07     765.00
105.17     702.00
105.27     687.00
105.37     670.00
105.47     638.00
105.57     666.00
105.67     620.00
105.77     617.85
105.87     647.55
105.97     598.55
106.07     612.00
106.17     603.19
106.27     619.00
106.37     583.00
106.47     629.96
106.57     629.08
106.67     623.00
106.77     590.53
106.87     656.73
106.97     599.12
107.07     611.00
107.17     666.69
107.27     665.00
107.37     669.00
107.47     668.00
107.57     675.00
107.67     781.00
107.77     715.00
107.87     726.00
107.97     745.00
108.07     731.00
108.17     744.00
108.27     813.85
108.37     778.00
108.47     776.55
108.57     749.00
108.67     749.07
108.77     733.95
108.87     726.00
108.97     783.70
109.07     783.00
109.17     731.00
109.27     728.14
109.37     744.00
109.47     780.00
109.57     701.00
109.67     725.00
109.77     727.42
109.87     726.78
109.97     781.72
110.07     800.74
110.17     803.00
110.27     739.00
110.37     731.00
110.47     732.00
110.57     753.74
110.67     716.31
110.77     728.00
110.87     772.00
110.97     683.00
111.07     667.00
111.17     676.46
111.27     644.00
111.37     657.96
111.47     614.00
111.57     613.00
111.67     602.18
111.77     645.00
111.87     640.92
111.97     605.00
112.07     624.00
112.17     647.02
112.27     588.25
112.37     612.22
112.47     633.00
112.57     624.23
112.67     638.00
112.77     583.88
112.87     598.72
112.97     576.94
113.07     623.00
113.17     601.00
113.27     560.00
113.37     624.00
113.47     626.00
113.57     580.46
113.67     603.00
113.77     676.49
113.87     630.80
113.97     654.00
114.07     643.00
114.17     642.00
114.27     625.00
114.37     719.37
114.47     721.00
114.57     732.70
114.67     685.00
114.77     727.00
114.87     829.00
114.97     896.00
115.07     801.00
115.17     835.00
115.27    1001.00
115.37     985.00
115.47    1097.00
115.57    1252.00
115.67    1310.46
115.77    1460.00
115.87    1728.41
115.97    1920.80
116.07    2157.00
116.17    2376.91
116.27    2673.00
116.37    2870.07
116.47    3204.00
116.57    3579.00
116.67    3851.00
116.77    4261.00
116.87    4747.81
116.97    5185.54
117.07    5371.00
117.17    5798.00
117.27    6365.00
117.37    6753.21
117.47    6887.00
117.57    7142.00
117.67    7380.00
117.77    7387.69
117.87    7499.00
117.97    7541.00
118.07    7240.07
118.17    7300.00
118.27    7046.87
118.37    6871.22
118.47    6491.28
118.57    5980.00
118.67    5720.00
118.77    5513.36
118.87    4931.00
118.97    4738.00
119.07    4369.00
119.17    3982.00
119.27    3785.00
119.37    3304.00
119.47    2979.08
119.57    2713.00
119.67    2329.95
119.77    2169.00
119.87    2034.00
119.97    1768.00
120.07    1636.02
120.17    1559.00
120.27    1391.00
120.37    1307.00
120.47    1160.00
120.57    1059.62
120.67    1037.00
120.77     988.62
120.87     913.00
120.97     897.00
121.07     867.16
121.17     793.00
121.27     827.68
121.37     775.00
121.47     794.00
121.57     780.00
121.67     708.02
121.77     696.00
121.87     710.55
121.97     688.00
122.07     704.85
122.17     734.53
122.27     662.00
122.37     673.93
122.47     693.00
122.57     669.00
122.67     713.00
122.77     685.00
122.87     683.21
122.97     722.62
123.07     720.00
123.17     760.10
123.27     723.00
123.37     699.00
123.47     716.00
123.57     771.05
123.67     775.00
123.77     775.62
123.87     734.00
123.97     791.12
124.07     778.00
124.17     734.00
124.27     778.00
124.37     789.00
124.47     811.00
124.57     781.00
124.67     740.60
124.77     805.00
124.87     851.00
124.97     758.00
