  9.97     657.00
 10.07     629.00
 10.17     693.00
 10.27     671.00
 10.37     677.00
 10.47     717.25
 10.57     689.00
 10.67     740.00
 10.77     661.74
 10.87     649.00
 10.97     712.00
 11.07     739.00
 11.17     636.08
 11.27     656.00
 11.37     679.00
 11.47     702.00
 11.57     698.00
 11.67     752.00
 11.77     703.44
 11.87     712.79
 11.97     725.00
 12.07     812.00
 12.17     803.00
 12.27     772.00
 12.37     781.00
 12.47     785.00
 12.57     685.00
 12.67     687.00
 12.77     652.00
 12.87     688.00
 12.97     642.64
 13.07     664.09
 13.17     645.00
 13.27     609.79
 13.37     675.75
 13.47     643.00
 13.57     668.22
 13.67     636.00
 13.77     605.00
 13.87     640.70
 13.97     619.00
 14.07     626.00
 14.17     647.00
 14.27     618.00
 14.37     626.00
 14.47     614.00
 14.57     625.10
 14.67     658.00
 14.77     686.30
 14.87     662.01
 14.97     681.07
 15.07     612.00
 15.17     640.15
 15.27     648.47
 15.37     632.26
 15.47     611.00
 15.57     633.45
 15.67     627.75
 15.77     652.00
 15.87     610.00
 15.97     642.90
 16.07     667.28
 16.17     602.00
 16.27     677.67
 16.37     638.00
 16.47     565.00
 16.57     607.60
 16.67     674.38
 16.77     582.08
 16.87     650.47
 16.97     666.11
 17.07     593.00
 17.17     588.00
 17.27     592.00
 17.37     607.00
 17.47     588.83
 17.57     577.36
 17.67     633.00
 17.77     618.00
 17.87     633.00
 17.97     659.08
 18.07     639.00
 18.17     611.00
 18.27     606.00
 18.37     623.00
 18.47     624.00
 18.57     607.00
 18.67     574.00
 18.77     638.48
 18.87     626.44
 18.97     640.80
 19.07     611.69
 19.17     600.00
 19.27     624.00
 19.37     622.00
 19.47     591.70
 19.57     553.00
 19.67     587.00
 19.77     610.00
 19.87     609.00
 19.97     568.00
 20.07     597.00
 20.17     628.00
 20.27     589.00
 20.37     643.58
 20.47     623.51
 20.57     578.82
 20.67     619.00
 20.77     626.00
 20.87     596.00
 20.97     605.00
 21.07     605.00
 21.17     567.17
 21.27     606.00
 21.37     597.00
 21.47     562.49
 21.57     595.07
 21.67     603.00
 21.77     593.00
 21.87     618.00
 21.97     608.00
 22.07     605.00
 22.17     594.00
 22.27     603.00
 22.37     582.62
 22.47     576.00
 22.57     568.00
 22.67     629.00
 22.77     607.00
 22.87     603.68
 22.97     652.00
 23.07     622.00
 23.17     610.00
 23.27     629.22
 23.37     573.00
 23.47     558.45
 23.57     620.00
 23.67     591.00
 23.77     643.94
 23.87     623.46
 23.97     618.08
 24.07     556.24
 24.17     588.66
 24.27     612.00
 24.37     635.03
 24.47     576.31
 24.57     576.51
 24.67     643.00
 24.77     629.86
 24.87     733.00
 24.97     701.00
 25.07     652.94
 25.17     685.02
 25.27     649.00
 25.37     617.00
 25.47     599.00
 25.57     621.14
 25.67     616.00
 25.77     612.00
 25.87     595.28
 25.97     586.00
 26.07     582.93
 26.17     681.00
 26.27     568.00
 26.37     630.00
 26.47     631.00
 26.57     648.00
 26.67     643.00
 26.77     662.15
 26.87     668.11
 26.97     691.00
 27.07     615.87
 27.17     675.00
 27.27     629.01
 27.37     626.85
 27.47     716.00
 27.57     732.00
 27.67     747.00
 27.77     809.00
 27.87     905.00
 27.97    1185.00
 28.07    1699.00
 28.17    2861.75
 28.27    4001.21
 28.37    4702.00
 28.47    4851.00
 28.57    4033.00
 28.67    3156.63
 28.77    2399.00
 28.87    2427.62
 28.97    2525.03
 29.07    2969.66
 29.17    2850.91
 29.27    2425.00
 29.37    1851.96
 29.47    1330.00
 29.57     983.13
 29.67     812.23
 29.77     882.00
 29.87     772.00
 29.97     739.81
 30.07     647.91
 30.17     619.31
 30.27     655.00
 30.37     628.77
 30.47     674.00
 30.57     665.00
 30.67     597.82
 30.77     664.00
 30.87     686.00
 30.97     677.09
 31.07     769.00
 31.17     740.61
 31.27     713.00
 31.37     627.92
 31.47     641.00
 31.57     648.85
 31.67     557.03
 31.77     608.00
 31.87     617.40
 31.97     565.17
 32.07     588.87
 32.17     558.80
 32.27     607.00
 32.37     618.00
 32.47     584.00
 32.57     604.00
 32.67     583.00
 32.77     575.00
 32.87     594.00
 32.97     593.00
 33.07     599.00
 33.17     636.02
 33.27     629.00
 33.37     614.00
 33.47     571.00
 33.57     640.00
 33.67     622.36
 33.77     656.00
 33.87     741.82
 33.97     882.84
 34.07     967.11
 34.17    1115.19
 34.27    1110.17
 34.37    1169.00
 34.47     983.00
 34.57     859.12
 34.67     766.00
 34.77     705.00
 34.87     684.00
 34.97     659.64
 35.07     564.97
 35.17     626.00
 35.27     623.00
 35.37     603.00
 35.47     570.00
 35.57     582.00
 35.67     575.00
 35.77     570.00
 35.87     559.20
 35.97     522.00
 36.07     561.00
 36.17     560.02
 36.27     544.00
 36.37     571.00
 36.47     574.17
 36.57     597.66
 36.67     587.00
 36.77     571.48
 36.87     593.00
 36.97     555.00
 37.07     573.00
 37.17     526.12
 37.27     522.94
 37.37     532.46
 37.47     565.00
 37.57     588.00
 37.67     575.00
 37.77     602.00
 37.87     581.00
 37.97     613.48
 38.07     702.53
 38.17     698.27
 38.27     647.15
 38.37     626.76
 38.47     638.00
 38.57     626.88
 38.67     570.91
 38.77     587.76
 38.87     595.51
 38.97     548.00
 39.07     506.00
 39.17     571.00
 39.27     591.00
 39.37     587.89
 39.47     563.00
 39.57     556.00
 39.67     533.00
 39.77     533.00
 39.87     585.00
 39.97     539.00
 40.07     566.85
 40.17     602.11
 40.27     565.00
 40.37     568.25
 40.47     581.00
 40.57     554.00
 40.67     537.86
 40.77     530.54
 40.87     541.27
 40.97     517.00
 41.07     561.63
 41.17     535.15
 41.27     514.36
 41.37     552.00
 41.47     523.73
 41.57     535.00
 41.67     546.11
 41.77     513.00
 41.87     535.00
 41.97     595.00
 42.07     578.00
 42.17     545.00
 42.27     562.00
 42.37     570.00
 42.47     608.07
 42.57     599.00
 42.67     623.00
 42.77     615.00
 42.87     667.13
 42.97     687.18
 43.07     692.15
 43.17     591.00
 43.27     589.00
 43.37     571.00
 43.47     542.00
 43.57     588.79
 43.67     534.00
 43.77     526.29
 43.87     548.00
 43.97     539.00
 44.07     578.00
 44.17     516.00
 44.27     524.26
 44.37     569.00
 44.47     581.18
 44.57     583.00
 44.67     543.00
 44.77     573.00
 44.87     514.54
 44.97     584.00
 45.07     569.00
 45.17     627.00
 45.27     573.00
 45.37     561.00
 45.47     568.00
 45.57     562.88
 45.67     568.00
 45.77     596.00
 45.87     531.00
 45.97     579.00
 46.07     577.62
 46.17     556.00
 46.27     569.00
 46.37     551.00
 46.47     603.00
 46.57     600.93
 46.67     517.59
 46.77     574.90
 46.87     599.99
 46.97     552.00
 47.07     603.21
 47.17     549.00
 47.27     572.00
 47.37     560.00
 47.47     590.00
 47.57     610.00
 47.67     623.58
 47.77     621.00
 47.87     613.00
 47.97     610.00
 48.07     635.00
 48.17     632.05
 48.27     688.66
 48.37     665.00
 48.47     621.98
 48.57     614.00
 48.67     618.00
 48.77     615.00
 48.87     599.00
 48.97     576.00
 49.07     560.00
 49.17     602.00
 49.27     619.66
 49.37     586.00
 49.47     599.00
 49.57     664.00
 49.67     683.00
 49.77     712.00
 49.87     879.00
 49.97    1039.00
 50.07    1376.00
 50.17    1701.00
 50.27    2241.00
 50.37    2659.52
 50.47    2719.00
 50.57    2755.56
 50.67    2538.00
 50.77    2048.23
 50.87    1640.00
 50.97    1315.04
 51.07     976.00
 51.17     842.00
 51.27     829.14
 51.37     731.00
 51.47     713.00
 51.57     727.00
 51.67     674.53
 51.77     620.01
 51.87     635.00
 51.97     615.00
 52.07     634.10
 52.17     608.75
 52.27     661.00
 52.37     661.00
 52.47     642.00
 52.57     589.00
 52.67     615.62
 52.77     634.00
 52.87     584.36
 52.97     646.00
 53.07     659.00
 53.17     663.00
 53.27     778.66
 53.37     797.00
 53.47     894.00
 53.57    1003.13
 53.67    1139.00
 53.77    1229.00
 53.87    1191.00
 53.97    1213.81
 54.07    1196.00
 54.17    1024.00
 54.27     925.00
 54.37     814.75
 54.47     757.00
 54.57     724.00
 54.67     692.00
 54.77     651.82
 54.87     610.64
 54.97     648.89
 55.07     588.09
 55.17     574.38
 55.27     620.00
 55.37     654.60
 55.47     604.60
 55.57     670.22
 55.67     678.00
 55.77     608.01
 55.87     679.61
 55.97     663.00
 56.07     673.00
 56.17     718.00
 56.27     740.00
 56.37     791.00
 56.47     869.00
 56.57    1001.00
 56.67    1232.91
 56.77    1428.00
 56.87    1785.94
 56.97    2240.00
 57.07    2389.04
 57.17    2688.24
 57.27    2681.00
 57.37    2528.00
 57.47    2279.00
 57.57    1930.00
 57.67    1604.88
 57.77    1224.00
 57.87    1129.00
 57.97     903.00
 58.07     831.00
 58.17     779.00
 58.27     753.00
 58.37     715.00
 58.47     814.72
 58.57     796.00
 58.67     850.00
 58.77     908.00
 58.87    1039.30
 58.97    1118.00
 59.07    1283.00
 59.17    1299.00
 59.27    1250.40
 59.37    1241.52
 59.47    1342.40
 59.57    1279.53
 59.67    1203.83
 59.77    1203.00
 59.87    1223.12
 59.97    1236.00
 60.07    1208.00
 60.17    1285.75
 60.27    1367.00
 60.37    1509.15
 60.47    1477.93
 60.57    1614.00
 60.67    1534.45
 60.77    1486.00
 60.87    1409.00
 60.97    1246.00
 61.07    1096.00
 61.17     985.00
 61.27     883.00
 61.37     793.00
 61.47     792.00
 61.57     775.00
 61.67     755.00
 61.77     817.00
 61.87     902.00
 61.97     919.00
 62.07    1091.00
 62.17    1186.49
 62.27    1311.14
 62.37    1459.37
 62.47    1519.00
 62.57    1527.00
 62.67    1544.34
 62.77    1445.00
 62.87    1342.00
 62.97    1196.00
 63.07     972.00
 63.17     878.00
 63.27     783.00
 63.37     758.00
 63.47     661.85
 63.57     715.00
 63.67     658.00
 63.77     628.46
 63.87     667.00
 63.97     642.00
 64.07     694.00
 64.17     690.00
 64.27     742.00
 64.37     876.00
 64.47     831.76
 64.57     921.00
 64.67     960.62
 64.77    1120.04
 64.87    1227.00
 64.97    1353.00
 65.07    1233.86
 65.17    1289.12
 65.27    1236.03
 65.37    1226.00
 65.47    1102.00
 65.57    1049.45
 65.67     954.00
 65.77     912.01
 65.87     813.00
 65.97     769.29
 66.07     769.53
 66.17     741.05
 66.27     645.59
 66.37     658.00
 66.47     625.00
 66.57     595.00
 66.67     607.00
 66.77     702.00
 66.87     620.43
 66.97     621.00
 67.07     619.00
 67.17     700.47
 67.27     630.00
 67.37     718.00
 67.47     729.00
 67.57     862.33
 67.67     882.00
 67.77     968.56
 67.87    1165.00
 67.97    1400.00
 68.07    1664.00
 68.17    1918.00
 68.27    2136.00
 68.37    2255.49
 68.47    2471.30
 68.57    2486.00
 68.67    2452.62
 68.77    2149.87
 68.87    2046.50
 68.97    1718.00
 69.07    1592.00
 69.17    1285.00
 69.27    1144.00
 69.37     982.00
 69.47     813.80
 69.57     741.99
 69.67     708.19
 69.77     703.00
 69.87     693.00
 69.97     677.00
 70.07     666.00
 70.17     698.00
 70.27     667.00
 70.37     646.77
 70.47     617.22
 70.57     651.00
 70.67     633.00
 70.77     647.00
 70.87     667.00
 70.97     621.00
 71.07     658.72
 71.17     702.00
 71.27     712.67
 71.37     720.00
 71.47     741.00
 71.57     813.00
 71.67     925.00
 71.77     935.46
 71.87    1133.00
 71.97    1305.00
 72.07    1409.00
 72.17    1556.61
 72.27    1746.79
 72.37    1816.03
 72.47    2041.00
 72.57    1960.00
 72.67    1877.79
 72.77    1703.00
 72.87    1592.00
 72.97    1386.00
 73.07    1218.33
 73.17    1152.94
 73.27     966.58
 73.37     848.85
 73.47     812.00
 73.57     738.00
 73.67     727.17
 73.77     731.00
 73.87     655.58
 73.97     679.00
 74.07     665.56
 74.17     644.44
 74.27     636.99
 74.37     586.83
 74.47     631.00
 74.57     695.00
 74.67     653.17
 74.77     643.00
 74.87     651.57
 74.97     597.44
 75.07     655.00
 75.17     691.00
 75.27     680.00
 75.37     608.72
 75.47     590.06
 75.57     671.00
 75.67     694.00
 75.77     649.00
 75.87     645.00
 75.97     663.00
 76.07     643.00
 76.17     603.38
 76.27     615.28
 76.37     722.00
 76.47     747.00
 76.57     757.00
 76.67     805.29
 76.77     778.91
 76.87     822.00
 76.97     881.00
 77.07     864.00
 77.17     837.77
 77.27     850.00
 77.37     803.00
 77.47     765.59
 77.57     781.00
 77.67     714.00
 77.77     707.04
 77.87     636.00
 77.97     627.14
 78.07     575.00
 78.17     615.99
 78.27     583.00
 78.37     630.81
 78.47     559.00
 78.57     566.00
 78.67     536.36
 78.77     551.16
 78.87     534.00
 78.97     593.00
 79.07     558.00
 79.17     536.00
 79.27     578.39
 79.37     543.00
 79.47     579.00
 79.57     559.00
 79.67     540.71
 79.77     536.00
 79.87     539.72
 79.97     583.03
 80.07     582.00
 80.17     570.00
 80.27     577.06
 80.37     618.00
 80.47     591.00
 80.57     639.90
 80.67     663.00
 80.77     698.00
 80.87     784.00
 80.97     832.00
 81.07     814.42
 81.17     900.88
 81.27     933.18
 81.37     972.72
 81.47    1049.00
 81.57    1162.00
 81.67    1163.00
 81.77    1113.00
 81.87    1100.00
 81.97     996.35
 82.07    1067.00
 82.17    1028.00
 82.27     961.00
 82.37     923.00
 82.47     809.00
 82.57     813.89
 82.67     783.00
 82.77     774.00
 82.87     693.00
 82.97     685.00
 83.07     691.00
 83.17     664.15
 83.27     598.84
 83.37     643.92
 83.47     607.83
 83.57     567.00
 83.67     571.00
 83.77     587.00
 83.87     594.00
 83.97     615.86
 84.07     576.00
 84.17     579.00
 84.27     641.99
 84.37     604.00
 84.47     553.00
 84.57     653.35
 84.67     655.53
 84.77     606.00
 84.87     599.00
 84.97     611.00
 85.07     544.00
 85.17     582.00
 85.27     601.00
 85.37     597.00
 85.47     567.00
 85.57     566.00
 85.67     568.00
 85.77     597.00
 85.87     531.60
 85.97     548.00
 86.07     559.45
 86.17     587.00
 86.27     571.00
 86.37     571.00
 86.47     608.00
 86.57     578.00
 86.67     582.00
 86.77     565.00
 86.87     582.93
 86.97     628.00
 87.07     636.00
 87.17     623.00
 87.27     605.00
 87.37     686.00
 87.47     641.00
 87.57     627.99
 87.67     670.00
 87.77     669.00
 87.87     647.93
 87.97     762.00
 88.07     655.13
 88.17     675.00
 88.27     675.00
 88.37     717.00
 88.47     655.00
 88.57     691.65
 88.67     608.00
 88.77     645.06
 88.87     622.00
 88.97     607.00
 89.07     620.04
 89.17     613.00
 89.27     635.77
 89.37     624.00
 89.47     566.00
 89.57     643.00
 89.67     664.67
 89.77     639.85
 89.87     634.00
 89.97     673.50
 90.07     684.74
 90.17     641.00
 90.27     650.00
 90.37     650.96
 90.47     676.00
 90.57     585.00
 90.67     618.71
 90.77     528.00
 90.87     565.00
 90.97     522.00
 91.07     571.84
 91.17     558.00
 91.27     593.00
 91.37     535.19
 91.47     580.00
 91.57     537.00
 91.67     579.00
 91.77     535.00
 91.87     546.13
 91.97     570.78
 92.07     570.00
 92.17     537.00
 92.27     531.00
 92.37     536.00
 92.47     566.00
 92.57     590.49
 92.67     596.00
 92.77     602.00
 92.87     602.00
 92.97     660.40
 93.07     626.00
 93.17     670.85
 93.27     718.00
 93.37     691.00
 93.47     664.00
 93.57     757.75
 93.67     736.00
 93.77     812.87
 93.87     817.00
 93.97     750.81
 94.07     833.91
 94.17     771.00
 94.27     840.00
 94.37     865.00
 94.47     844.00
 94.57     937.13
 94.67     881.04
 94.77     868.48
 94.87     906.69
 94.97     959.00
 95.07     885.00
 95.17     998.06
 95.27     986.00
 95.37     920.35
 95.47     961.82
 95.57     974.00
 95.67     984.00
 95.77     951.00
 95.87     940.39
 95.97     906.96
 96.07     863.00
 96.17     800.00
 96.27     819.95
 96.37     786.00
 96.47     774.00
 96.57     783.00
 96.67     794.15
 96.77     778.00
 96.87     806.00
 96.97     872.00
 97.07     846.00
 97.17     943.00
 97.27     983.00
 97.37    1067.00
 97.47    1100.00
 97.57    1205.00
 97.67    1259.00
 97.77    1367.16
 97.87    1413.26
 97.97    1422.00
 98.07    1532.00
 98.17    1519.00
 98.27    1578.00
 98.37    1520.00
 98.47    1549.00
 98.57    1482.00
 98.67    1446.00
 98.77    1320.00
 98.87    1337.00
 98.97    1208.00
 99.07    1109.53
 99.17    1210.00
 99.27    1071.00
 99.37     964.00
 99.47     956.55
 99.57     904.00
 99.67     924.00
 99.77     999.31
 99.87     950.00
 99.97    1018.00
100.07    1003.62
100.17    1100.00
100.27    1204.00
100.37    1211.22
100.47    1391.00
100.57    1525.00
100.67    1483.45
100.77    1625.00
100.87    1741.43
100.97    1882.00
101.07    1941.38
101.17    1940.50
101.27    1981.00
101.37    2037.10
101.47    2099.00
101.57    1954.85
101.67    2001.34
101.77    2081.66
101.87    1927.00
101.97    1938.00
102.07    1866.00
102.17    1668.00
102.27    1658.18
102.37    1532.00
102.47    1514.00
102.57    1523.92
102.67    1445.00
102.77    1338.00
102.87    1270.00
102.97    1389.58
103.07    1184.00
103.17    1254.57
103.27    1225.00
103.37    1181.00
103.47    1141.00
103.57    1123.00
103.67    1079.00
103.77    1109.43
103.87    1028.77
103.97     959.00
104.07     940.00
104.17     914.53
104.27     868.85
104.37     834.62
104.47     779.00
104.57     785.18
104.67     708.00
104.77     692.00
104.87     696.00
104.97     654.00
105.07     623.00
105.17     676.00
105.27     633.00
105.37     557.80
105.47     628.00
105.57     598.49
105.67     578.00
105.77     626.00
105.87     523.78
105.97     556.92
106.07     550.81
106.17     574.00
106.27     552.99
106.37     591.00
106.47     612.46
106.57     603.64
106.67     658.00
106.77     591.00
106.87     638.00
106.97     635.00
107.07     626.00
107.17     648.00
107.27     643.00
107.37     646.33
107.47     699.00
107.57     731.07
107.67     705.49
107.77     686.37
107.87     763.00
107.97     742.00
108.07     769.67
108.17     743.00
108.27     736.00
108.37     750.00
108.47     769.00
108.57     705.00
108.67     720.85
108.77     714.00
108.87     729.00
108.97     734.02
109.07     720.00
109.17     702.00
109.27     779.00
109.37     691.30
109.47     703.37
109.57     783.65
109.67     728.00
109.77     743.00
109.87     743.35
109.97     712.00
110.07     715.00
110.17     680.18
110.27     652.00
110.37     757.47
110.47     677.00
110.57     647.00
110.67     656.00
110.77     703.29
110.87     685.00
110.97     693.05
111.07     637.75
111.17     605.77
111.27     572.89
111.37     641.00
111.47     635.00
111.57     610.31
111.67     594.00
111.77     591.00
111.87     567.82
111.97     563.00
112.07     548.38
112.17     605.00
112.27     601.00
112.37     584.00
112.47     585.95
112.57     624.00
112.67     589.03
112.77     620.01
112.87     610.00
112.97     607.00
113.07     549.00
113.17     626.00
113.27     560.25
113.37     546.00
113.47     594.10
113.57     625.00
113.67     642.21
113.77     578.00
113.87     619.00
113.97     663.00
114.07     632.68
114.17     594.00
114.27     686.74
114.37     637.00
114.47     694.00
114.57     717.00
114.67     765.00
114.77     788.00
114.87     796.60
114.97     879.00
115.07     893.00
115.17    1008.00
115.27    1108.00
115.37    1240.00
115.47    1420.77
115.57    1561.00
115.67    1764.00
115.77    1803.51
115.87    2094.63
115.97    2280.47
116.07    2643.00
116.17    3069.00
116.27    3328.00
116.37    3819.00
116.47    4030.00
116.57    4376.00
116.67    4665.00
116.77    5266.68
116.87    5463.06
116.97    5833.34
117.07    6346.00
117.17    6638.00
117.27    6978.70
117.37    7143.25
117.47    7245.00
117.57    7295.09
117.67    7271.99
117.77    7356.00
117.87    6955.37
117.97    7003.25
118.07    6508.00
118.17    6168.00
118.27    5992.00
118.37    5836.92
118.47    5467.91
118.57    4952.48
118.67    4818.00
118.77    4363.09
118.87    4004.00
118.97    3641.82
119.07    3288.00
119.17    2791.01
119.27    2647.00
119.37    2394.96
119.47    2061.00
119.57    1945.00
119.67    1708.00
119.77    1586.00
119.87    1468.00
119.97    1445.00
120.07    1239.00
120.17    1114.91
120.27    1015.58
120.37     983.00
120.47     986.00
120.57     921.94
120.67     912.00
120.77     821.00
120.87     765.00
120.97     737.95
121.07     746.00
121.17     706.00
121.27     721.00
121.37     664.00
121.47     683.00
121.57     668.01
121.67     693.80
121.77     646.96
121.87     655.00
121.97     671.00
122.07     656.00
122.17     643.23
122.27     614.85
122.37     667.00
122.47     657.00
122.57     683.51
122.67     685.00
122.77     731.65
122.87     698.00
122.97     729.00
123.07     671.00
123.17     717.50
123.27     681.65
123.37     740.10
123.47     689.58
123.57     667.61
123.67     718.83
123.77     682.00
123.87     716.00
123.97     752.00
124.07     701.13
124.17     676.00
124.27     739.00
124.37     687.28
124.47     751.00
124.57     664.13
124.67     713.00
124.77     662.43
124.87     667.21
124.97     742.43
