  9.97     661.38
 10.07     724.00
 10.17     661.95
 10.27     680.00
 10.37     711.00
 10.47     686.00
 10.57     733.00
 10.67     696.00
 10.77     726.00
 10.87     721.00
 10.97     686.57
 11.07     741.57
 11.17     719.00
 11.27     749.00
 11.37     743.00
 11.47     699.00
 11.57     736.00
 11.67     758.00
 11.77     756.00
 11.87     760.28
 11.97     787.00
 12.07     745.32
 12.17     864.00
 12.27     804.00
 12.37     752.16
 12.47     760.00
 12.57     773.38
 12.67     728.00
 12.77     660.00
 12.87     685.55
 12.97     631.38
 13.07     640.00
 13.17     613.00
 13.27     644.00
 13.37     710.09
 13.47     646.86
 13.57     624.00
 13.67     688.17
 13.77     611.00
 13.87     679.00
 13.97     681.00
 14.07     673.00
 14.17     673.26
 14.27     642.70
 14.37     637.00
 14.47     611.70
 14.57     654.00
 14.67     643.71
 14.77     613.98
 14.87     616.44
 14.97     661.00
 15.07     600.00
 15.17     634.00
 15.27     637.00
 15.37     656.57
 15.47     641.00
 15.57     639.00
 15.67     617.00
 15.77     603.00
 15.87     680.72
 15.97     641.00
 16.07     616.82
 16.17     675.21
 16.27     620.00
 16.37     622.00
 16.47     621.00
 16.57     598.00
 16.67     604.00
 16.77     604.00
 16.87     654.38
 16.97     626.00
 17.07     661.00
 17.17     662.04
 17.27     641.00
 17.37     637.00
 17.47     589.31
 17.57     604.81
 17.67     637.00
 17.77     639.00
 17.87     608.79
 17.97     671.00
 18.07     659.00
 18.17     611.27
 18.27     616.31
 18.37     634.00
 18.47     618.16
 18.57     646.00
 18.67     623.00
 18.77     595.00
 18.87     666.00
 18.97     657.00
 19.07     575.00
 19.17     667.00
 19.27     581.57
 19.37     619.00
 19.47     616.00
 19.57     611.00
 19.67     627.10
 19.77     603.00
 19.87     622.00
 19.97     600.68
 20.07     659.91
 20.17     637.00
 20.27     568.00
 20.37     658.35
 20.47     598.00
 20.57     639.00
 20.67     635.05
 20.77     603.00
 20.87     598.80
 20.97     596.00
 21.07     614.00
 21.17     600.24
 21.27     594.55
 21.37     559.00
 21.47     615.00
 21.57     600.94
 21.67     637.72
 21.77     568.62
 21.87     570.00
 21.97     633.00
 22.07     577.00
 22.17     594.27
 22.27     565.00
 22.37     646.00
 22.47     642.00
 22.57     658.69
 22.67     619.53
 22.77     607.00
 22.87     580.87
 22.97     623.00
 23.07     600.17
 23.17     634.00
 23.27     621.98
 23.37     635.00
 23.47     655.08
 23.57     601.00
 23.67     615.00
 23.77     598.00
 23.87     610.00
 23.97     630.00
 24.07     642.70
 24.17     580.00
 24.27     649.49
 24.37     600.00
 24.47     632.00
 24.57     609.00
 24.67     654.00
 24.77     693.00
 24.87     678.00
 24.97     720.39
 25.07     731.84
 25.17     687.00
 25.27     703.00
 25.37     678.15
 25.47     675.25
 25.57     665.76
 25.67     631.00
 25.77     682.00
 25.87     640.00
 25.97     625.00
 26.07     663.40
 26.17     597.00
 26.27     623.13
 26.37     628.00
 26.47     640.00
 26.57     596.00
 26.67     665.00
 26.77     672.00
 26.87     669.89
 26.97     637.00
 27.07     632.00
 27.17     654.00
 27.27     702.00
 27.37     679.00
 27.47     718.00
 27.57     770.00
 27.67     788.05
 27.77     870.00
 27.87     966.00
 27.97    1263.00
 28.07    1880.00
 28.17    2942.00
 28.27    4896.10
 28.37    6118.00
 28.47    6643.00
 28.57    5794.00
 28.67    4128.12
 28.77    3236.00
 28.87    2729.00
 28.97    3083.00
 29.07    3608.00
 29.17    3596.63
 29.27    3210.00
 29.37    2395.00
 29.47    1649.65
 29.57    1208.00
 29.67    1038.00
 29.77     835.00
 29.87     833.00
 29.97     668.87
 30.07     798.00
 30.17     717.00
 30.27     651.90
 30.37     664.00
 30.47     687.00
 30.57     645.00
 30.67     680.00
 30.77     639.00
 30.87     729.74
 30.97     754.82
 31.07     824.00
 31.17     689.28
 31.27     760.45
 31.37     659.00
 31.47     683.85
 31.57     591.00
 31.67     639.00
 31.77     655.44
 31.87     656.00
 31.97     654.78
 32.07     616.00
 32.17     615.00
 32.27     585.00
 32.37     660.00
 32.47     644.98
 32.57     566.00
 32.67     568.00
 32.77     620.00
 32.87     643.00
 32.97     610.00
 33.07     588.00
 33.17     574.30
 33.27     638.00
 33.37     610.00
 33.47     599.00
 33.57     610.21
 33.67     662.00
 33.77     698.00
 33.87     768.00
 33.97     815.00
 34.07     940.47
 34.17    1082.00
 34.27    1183.00
 34.37    1154.00
 34.47    1138.61
 34.57     948.00
 34.67     772.00
 34.77     780.00
 34.87     665.00
 34.97     647.00
 35.07     687.00
 35.17     586.71
 35.27     670.00
 35.37     651.00
 35.47     529.00
 35.57     585.00
 35.67     630.76
 35.77     626.36
 35.87     582.00
 35.97     584.93
 36.07     581.00
 36.17     592.00
 36.27     621.69
 36.37     603.00
 36.47     574.06
 36.57     598.15
 36.67     543.00
 36.77     598.05
 36.87     630.94
 36.97     592.00
 37.07     546.24
 37.17     589.00
 37.27     567.00
 37.37     609.51
 37.47     630.15
 37.57     578.00
 37.67     555.51
 37.77     621.00
 37.87     644.35
 37.97     644.00
 38.07     640.52
 38.17     693.00
 38.27     721.69
 38.37     700.00
 38.47     655.00
 38.57     617.40
 38.67     592.00
 38.77     662.00
 38.87     586.17
 38.97     559.00
 39.07     634.08
 39.17     600.00
 39.27     609.00
 39.37     615.97
 39.47     573.00
 39.57     547.11
 39.67     614.74
 39.77     582.00
 39.87     584.00
 39.97     561.33
 40.07     583.00
 40.17     541.70
 40.27     535.00
 40.37     554.85
 40.47     591.00
 40.57     559.00
 40.67     582.28
 40.77     626.23
 40.87     550.00
 40.97     559.00
 41.07     578.00
 41.17     605.39
 41.27     553.00
 41.37     575.00
 41.47     618.00
 41.57     553.00
 41.67     596.00
 41.77     564.00
 41.87     575.65
 41.97     541.17
 42.07     576.00
 42.17     553.00
 42.27     575.03
 42.37     567.48
 42.47     648.16
 42.57     625.00
 42.67     582.68
 42.77     662.09
 42.87     624.00
 42.97     675.00
 43.07     667.33
 43.17     723.07
 43.27     626.01
 43.37     621.00
 43.47     595.00
 43.57     633.33
 43.67     596.00
 43.77     613.00
 43.87     576.58
 43.97     599.82
 44.07     531.00
 44.17     617.90
 44.27     609.58
 44.37     536.10
 44.47     629.00
 44.57     536.98
 44.67     638.00
 44.77     600.00
 44.87     560.70
 44.97     529.86
 45.07     577.65
 45.17     581.00
 45.27     577.00
 45.37     524.00
 45.47     574.00
 45.57     552.00
 45.67     546.59
 45.77     548.00
 45.87     612.47
 45.97     590.00
 46.07     607.17
 46.17     587.00
 46.27     595.00
 46.37     574.00
 46.47     579.00
 46.57     611.00
 46.67     607.00
 46.77     560.14
 46.87     571.00
 46.97     616.00
 47.07     575.59
 47.17     590.64
 47.27     620.00
 47.37     572.00
 47.47     641.00
 47.57     546.47
 47.67     600.00
 47.77     657.00
 47.87     595.00
 47.97     664.00
 48.07     622.89
 48.17     631.00
 48.27     665.00
 48.37     655.46
 48.47     647.00
 48.57     645.00
 48.67     634.00
 48.77     658.86
 48.87     606.00
 48.97     599.00
 49.07     575.00
 49.17     587.26
 49.27     601.00
 49.37     663.12
 49.47     668.43
 49.57     695.73
 49.67     697.00
 49.77     708.00
 49.87     881.22
 49.97    1070.27
 50.07    1310.00
 50.17    1704.57
 50.27    2037.00
 50.37    2558.00
 50.47    2855.00
 50.57    3115.72
 50.67    2761.00
 50.77    2419.00
 50.87    1883.00
 50.97    1489.00
 51.07    1164.00
 51.17     975.71
 51.27     946.00
 51.37     777.00
 51.47     775.96
 51.57     733.00
 51.67     734.00
 51.77     744.17
 51.87     707.00
 51.97     660.00
 52.07     709.00
 52.17     706.59
 52.27     674.00
 52.37     680.00
 52.47     693.83
 52.57     650.00
 52.67     684.00
 52.77     683.00
 52.87     623.00
 52.97     691.00
 53.07     678.00
 53.17     744.59
 53.27     755.00
 53.37     806.00
 53.47     914.00
 53.57     925.84
 53.67    1128.00
 53.77    1242.00
 53.87    1315.79
 53.97    1363.36
 54.07    1286.00
 54.17    1153.78
 54.27     983.20
 54.37     927.00
 54.47     828.00
 54.57     717.00
 54.67     734.00
 54.77     699.00
 54.87     657.00
 54.97     631.33
 55.07     675.86
 55.17     693.34
 55.27     593.00
 55.37     565.00
 55.47     626.00
 55.57     620.56
 55.67     642.00
 55.77     684.00
 55.87     688.00
 55.97     675.83
 56.07     687.00
 56.17     653.00
 56.27     729.45
 56.37     763.00
 56.47     851.04
 56.57     956.00
 56.67    1085.55
 56.77    1391.88
 56.87    1680.00
 56.97    2061.00
 57.07    2264.29
 57.17    2646.00
 57.27    2678.00
 57.37    2650.00
 57.47    2312.06
 57.57    2093.90
 57.67    1752.32
 57.77    1427.00
 57.87    1126.00
 57.97    1033.90
 58.07     926.00
 58.17     826.00
 58.27     796.00
 58.37     784.00
 58.47     764.00
 58.57     796.00
 58.67     857.00
 58.77     956.01
 58.87     961.00
 58.97    1134.90
 59.07    1204.00
 59.17    1251.00
 59.27    1273.00
 59.37    1336.00
 59.47    1287.00
 59.57    1275.00
 59.67    1257.00
 59.77    1297.00
 59.87    1251.00
 59.97    1277.00
 60.07    1204.84
 60.17    1214.79
 60.27    1365.00
 60.37    1422.00
 60.47    1474.12
 60.57    1640.62
 60.67    1518.00
 60.77    1508.00
 60.87    1409.84
 60.97    1321.00
 61.07    1202.35
 61.17    1016.00
 61.27     865.00
 61.37     882.00
 61.47     766.71
 61.57     804.00
 61.67     794.00
 61.77     790.00
 61.87     871.13
 61.97     904.00
 62.07    1023.69
 62.17    1140.00
 62.27    1291.00
 62.37    1450.66
 62.47    1490.00
 62.57    1587.00
 62.67    1622.00
 62.77    1500.00
 62.87    1484.79
 62.97    1309.96
 63.07    1230.28
 63.17     954.00
 63.27     909.82
 63.37     856.00
 63.47     748.57
 63.57     717.00
 63.67     692.00
 63.77     694.00
 63.87     691.00
 63.97     718.00
 64.07     692.00
 64.17     724.00
 64.27     745.40
 64.37     810.00
 64.47     838.00
 64.57     916.19
 64.67    1063.00
 64.77    1094.00
 64.87    1150.48
 64.97    1376.00
 65.07    1348.06
 65.17    1403.73
 65.27    1439.00
 65.37    1394.00
 65.47    1289.00
 65.57    1131.39
 65.67    1068.00
 65.77     974.00
 65.87     834.00
 65.97     840.00
 66.07     841.00
 66.17     677.00
 66.27     738.07
 66.37     685.00
 66.47     745.49
 66.57     659.93
 66.67     669.00
 66.77     649.00
 66.87     639.60
 66.97     691.00
 67.07     710.16
 67.17     679.00
 67.27     753.98
 67.37     725.51
 67.47     744.00
 67.57     798.00
 67.67     832.00
 67.77     965.25
 67.87    1071.00
 67.97    1252.09
 68.07    1542.55
 68.17    1765.00
 68.27    1968.00
 68.37    2230.00
 68.47    2386.00
 68.57    2484.00
 68.67    2425.58
 68.77    2427.00
 68.87    2224.03
 68.97    1898.08
 69.07    1728.00
 69.17    1413.00
 69.27    1287.00
 69.37    1094.00
 69.47     997.00
 69.57     908.00
 69.67     851.00
 69.77     753.66
 69.87     776.00
 69.97     769.00
 70.07     727.00
 70.17     759.00
 70.27     687.10
 70.37     704.00
 70.47     700.00
 70.57     619.15
 70.67     650.00
 70.77     711.00
 70.87     666.00
 70.97     657.00
 71.07     709.16
 71.17     714.00
 71.27     689.00
 71.37     697.11
 71.47     772.00
 71.57     820.00
 71.67     825.47
 71.77     995.00
 71.87    1093.00
 71.97    1245.00
 72.07    1349.00
 72.17    1553.00
 72.27    1650.00
 72.37    1768.39
 72.47    1960.00
 72.57    1950.43
 72.67    1846.00
 72.77    1786.00
 72.87    1660.00
 72.97    1607.00
 73.07    1390.00
 73.17    1247.00
 73.27    1031.48
 73.37     990.00
 73.47     849.00
 73.57     813.86
 73.67     784.51
 73.77     736.00
 73.87     717.13
 73.97     689.00
 74.07     725.00
 74.17     684.26
 74.27     656.00
 74.37     605.56
 74.47     624.00
 74.57     666.00
 74.67     716.00
 74.77     681.13
 74.87     654.00
 74.97     672.00
 75.07     687.19
 75.17     623.00
 75.27     636.72
 75.37     682.00
 75.47     694.00
 75.57     664.00
 75.67     674.42
 75.77     705.00
 75.87     653.00
 75.97     644.00
 76.07     644.28
 76.17     644.04
 76.27     677.85
 76.37     707.00
 76.47     769.00
 76.57     757.00
 76.67     721.00
 76.77     800.00
 76.87     869.00
 76.97     910.20
 77.07     931.00
 77.17     893.22
 77.27     963.94
 77.37     942.00
 77.47     903.90
 77.57     839.08
 77.67     788.00
 77.77     787.22
 77.87     723.00
 77.97     713.00
 78.07     650.33
 78.17     635.00
 78.27     641.00
 78.37     623.00
 78.47     600.54
 78.57     642.00
 78.67     635.79
 78.77     612.70
 78.87     601.00
 78.97     621.00
 79.07     561.00
 79.17     624.76
 79.27     577.44
 79.37     579.00
 79.47     645.59
 79.57     555.00
 79.67     589.00
 79.77     623.00
 79.87     604.00
 79.97     609.45
 80.07     600.00
 80.17     569.00
 80.27     639.00
 80.37     623.00
 80.47     628.00
 80.57     723.53
 80.67     712.00
 80.77     772.00
 80.87     812.00
 80.97     886.00
 81.07     934.00
 81.17    1034.75
 81.27    1057.68
 81.37    1151.24
 81.47    1160.89
 81.57    1251.00
 81.67    1332.00
 81.77    1342.00
 81.87    1226.94
 81.97    1193.77
 82.07    1223.11
 82.17    1172.41
 82.27    1075.00
 82.37     977.29
 82.47    1003.00
 82.57     957.00
 82.67     909.57
 82.77     838.00
 82.87     815.49
 82.97     718.00
 83.07     673.00
 83.17     688.99
 83.27     662.00
 83.37     666.19
 83.47     624.00
 83.57     580.00
 83.67     622.00
 83.77     591.54
 83.87     637.00
 83.97     614.00
 84.07     607.00
 84.17     688.30
 84.27     664.73
 84.37     680.80
 84.47     632.00
 84.57     604.00
 84.67     635.00
 84.77     678.14
 84.87     694.80
 84.97     636.00
 85.07     650.42
 85.17     581.00
 85.27     639.09
 85.37     606.00
 85.47     574.86
 85.57     611.86
 85.67     573.07
 85.77     586.00
 85.87     592.88
 85.97     637.27
 86.07     604.00
 86.17     625.52
 86.27     589.00
 86.37     569.20
 86.47     609.84
 86.57     613.25
 86.67     615.82
 86.77     630.00
 86.87     653.00
 86.97     611.55
 87.07     704.00
 87.17     683.00
 87.27     647.00
 87.37     667.00
 87.47     701.44
 87.57     691.00
 87.67     719.30
 87.77     715.18
 87.87     666.97
 87.97     673.53
 88.07     725.00
 88.17     694.00
 88.27     742.00
 88.37     676.00
 88.47     714.82
 88.57     677.00
 88.67     678.00
 88.77     679.00
 88.87     647.00
 88.97     664.73
 89.07     660.00
 89.17     616.00
 89.27     615.45
 89.37     654.00
 89.47     683.54
 89.57     630.00
 89.67     626.00
 89.77     580.00
 89.87     626.00
 89.97     558.00
 90.07     691.00
 90.17     644.84
 90.27     683.00
 90.37     672.00
 90.47     614.00
 90.57     670.93
 90.67     615.00
 90.77     609.00
 90.87     610.00
 90.97     619.00
 91.07     641.73
 91.17     594.00
 91.27     582.00
 91.37     567.00
 91.47     542.02
 91.57     586.00
 91.67     647.00
 91.77     624.55
 91.87     571.00
 91.97     610.00
 92.07     554.24
 92.17     544.70
 92.27     583.00
 92.37     549.80
 92.47     613.00
 92.57     581.00
 92.67     582.00
 92.77     585.00
 92.87     624.00
 92.97     669.15
 93.07     629.00
 93.17     643.00
 93.27     705.52
 93.37     695.00
 93.47     657.00
 93.57     692.00
 93.67     713.67
 93.77     730.80
 93.87     786.00
 93.97     789.00
 94.07     815.00
 94.17     828.00
 94.27     804.02
 94.37     809.07
 94.47     905.65
 94.57     936.00
 94.67     867.52
 94.77     926.00
 94.87     954.00
 94.97     946.00
 95.07     953.00
 95.17     912.00
 95.27     972.92
 95.37    1013.00
 95.47     986.00
 95.57     989.78
 95.67     989.35
 95.77     927.09
 95.87     954.79
 95.97     896.36
 96.07     931.00
 96.17     868.00
 96.27     891.00
 96.37     862.15
 96.47     840.00
 96.57     808.00
 96.67     764.00
 96.77     787.62
 96.87     843.46
 96.97     818.00
 97.07     860.00
 97.17     846.23
 97.27     971.92
 97.37     999.00
 97.47    1031.00
 97.57    1109.08
 97.67    1156.00
 97.77    1207.00
 97.87    1378.16
 97.97    1341.30
 98.07    1449.00
 98.17    1546.00
 98.27    1526.00
 98.37    1638.73
 98.47    1486.58
 98.57    1563.04
 98.67    1533.33
 98.77    1321.00
 98.87    1386.00
 98.97    1327.00
 99.07    1185.59
 99.17    1191.00
 99.27    1071.28
 99.37    1092.00
 99.47     990.00
 99.57     955.64
 99.67     930.39
 99.77     980.00
 99.87    1032.05
 99.97     948.82
100.07    1056.00
100.17    1037.00
100.27    1125.10
100.37    1244.98
100.47    1191.68
100.57    1377.74
100.67    1489.00
100.77    1510.00
100.87    1661.29
100.97    1708.55
101.07    1819.00
101.17    1935.00
101.27    1975.65
101.37    2082.00
101.47    2213.00
101.57    2070.00
101.67    2070.00
101.77    2143.00
101.87    2132.00
101.97    2039.00
102.07    1957.00
102.17    1879.26
102.27    1784.00
102.37    1781.00
102.47    1761.89
102.57    1531.00
102.67    1507.73
102.77    1438.00
102.87    1512.57
102.97    1366.00
103.07    1245.00
103.17    1237.00
103.27    1249.86
103.37    1243.00
103.47    1247.23
103.57    1192.00
103.67    1095.00
103.77    1130.96
103.87    1088.00
103.97    1045.00
104.07     966.00
104.17     971.00
104.27     946.00
104.37     886.00
104.47     795.06
104.57     790.00
104.67     773.00
104.77     761.00
104.87     777.00
104.97     661.85
105.07     622.79
105.17     760.00
105.27     612.44
105.37     681.00
105.47     620.00
105.57     612.00
105.67     579.00
105.77     613.00
105.87     627.00
105.97     601.74
106.07     578.00
106.17     584.00
106.27     596.00
106.37     555.08
106.47     557.52
106.57     614.00
106.67     589.78
106.77     594.00
106.87     669.00
106.97     599.28
107.07     637.00
107.17     618.88
107.27     674.00
107.37     663.21
107.47     699.00
107.57     688.00
107.67     676.93
107.77     770.00
107.87     774.99
107.97     796.13
108.07     740.00
108.17     728.00
108.27     759.00
108.37     785.00
108.47     722.46
108.57     803.65
108.67     778.00
108.77     810.00
108.87     817.00
108.97     708.33
109.07     748.36
109.17     742.00
109.27     760.00
109.37     792.00
109.47     819.00
109.57     706.35
109.67     777.00
109.77     716.00
109.87     784.00
109.97     821.89
110.07     791.69
110.17     790.00
110.27     749.00
110.37     779.00
110.47     704.00
110.57     706.00
110.67     748.00
110.77     672.00
110.87     702.00
110.97     696.00
111.07     692.00
111.17     668.00
111.27     631.48
111.37     683.00
111.47     639.00
111.57     609.69
111.67     653.20
111.77     646.00
111.87     605.00
111.97     605.00
112.07     572.00
112.17     588.00
112.27     547.32
112.37     597.00
112.47     614.00
112.57     593.00
112.67     628.80
112.77     589.00
112.87     585.03
112.97     579.04
113.07     630.00
113.17     580.97
113.27     638.00
113.37     613.00
113.47     645.00
113.57     651.67
113.67     654.87
113.77     596.00
113.87     611.93
113.97     638.18
114.07     659.00
114.17     644.70
114.27     617.00
114.37     697.81
114.47     655.00
114.57     722.59
114.67     718.75
114.77     728.00
114.87     816.00
114.97     811.47
115.07     944.01
115.17     880.00
115.27     979.00
115.37    1102.36
115.47    1220.75
115.57    1322.25
115.67    1501.89
115.77    1607.60
115.87    1872.44
115.97    2013.00
116.07    2429.80
116.17    2598.00
116.27    2939.00
116.37    3340.86
116.47    3577.00
116.57    3843.76
116.67    4296.00
116.77    4663.85
116.87    4919.00
116.97    5364.40
117.07    5766.00
117.17    6192.43
117.27    6604.00
117.37    6773.07
117.47    7142.00
117.57    7264.00
117.67    7344.00
117.77    7336.00
117.87    7483.00
117.97    7265.38
118.07    7146.32
118.17    6894.48
118.27    6565.00
118.37    6355.00
118.47    6201.61
118.57    5560.59
118.67    5279.00
118.77    4853.44
118.87    4655.00
118.97    4235.83
119.07    3787.14
119.17    3520.00
119.27    3121.42
119.37    2973.00
119.47    2614.00
119.57    2351.00
119.67    2055.47
119.77    1905.00
119.87    1725.00
119.97    1585.00
120.07    1409.73
120.17    1328.86
120.27    1205.78
120.37    1160.00
120.47     993.00
120.57    1006.02
120.67     970.00
120.77     884.88
120.87     839.00
120.97     868.83
121.07     823.00
121.17     729.00
121.27     802.00
121.37     697.48
121.47     718.00
121.57     687.00
121.67     673.00
121.77     683.00
121.87     654.88
121.97     699.20
122.07     650.98
122.17     620.00
122.27     667.80
122.37     664.00
122.47     643.00
122.57     659.05
122.67     717.39
122.77     668.00
122.87     668.00
122.97     691.00
123.07     694.00
123.17     675.63
123.27     760.26
123.37     729.98
123.47     741.00
123.57     695.54
123.67     755.00
123.77     696.38
123.87     779.00
123.97     815.00
124.07     697.00
124.17     790.00
124.27     706.00
124.37     781.00
124.47     785.00
124.57     820.00
124.67     709.00
124.77     769.58
124.87     676.17
124.97     757.08
