  9.97     776.00
 10.07     752.23
 10.17     721.37
 10.27     726.00
 10.37     748.00
 10.47     728.00
 10.57     739.11
 10.67     741.00
 10.77     768.00
 10.87     754.00
 10.97     752.00
 11.07     711.00
 11.17     701.30
 11.27     690.00
 11.37     739.13
 11.47     757.00
 11.57     749.00
 11.67     749.50
 11.77     811.00
 11.87     735.42
 11.97     791.00
 12.07     765.95
 12.17     832.00
 12.27     868.00
 12.37     825.51
 12.47     820.56
 12.57     757.00
 12.67     750.00
 12.77     727.00
 12.87     698.61
 12.97     681.00
 13.07     728.00
 13.17     748.00
 13.27     694.61
 13.37     742.59
 13.47     656.70
 13.57     681.00
 13.67     662.00
 13.77     653.00
 13.87     679.00
 13.97     755.00
 14.07     665.47
 14.17     670.46
 14.27     727.84
 14.37     633.00
 14.47     729.37
 14.57     683.00
 14.67     682.25
 14.77     683.00
 14.87     621.68
 14.97     602.00
 15.07     621.00
 15.17     671.00
 15.27     721.74
 15.37     637.00
 15.47     667.00
 15.57     672.00
 15.67     680.72
 15.77     714.00
 15.87     662.64
 15.97     640.00
 16.07     716.05
 16.17     621.01
 16.27     679.00
 16.37     653.00
 16.47     646.00
 16.57     683.00
 16.67     608.00
 16.77     612.45
 16.87     705.00
 16.97     642.80
 17.07     706.86
 17.17     639.00
 17.27     659.00
 17.37     671.00
 17.47     639.00
 17.57     627.15
 17.67     618.11
 17.77     635.00
 17.87     610.33
 17.97     671.52
 18.07     706.56
 18.17     689.60
 18.27     597.00
 18.37     675.00
 18.47     634.00
 18.57     612.00
 18.67     607.27
 18.77     603.00
 18.87     612.04
 18.97     670.00
 19.07     630.00
 19.17     629.00
 19.27     621.00
 19.37     643.00
 19.47     644.00
 19.57     644.63
 19.67     687.31
 19.77     607.10
 19.87     598.35
 19.97     613.00
 20.07     625.00
 20.17     612.65
 20.27     626.00
 20.37     624.00
 20.47     616.00
 20.57     583.02
 20.67     592.55
 20.77     664.00
 20.87     620.00
 20.97     609.00
 21.07     682.90
 21.17     578.41
 21.27     671.00
 21.37     649.70
 21.47     605.00
 21.57     594.00
 21.67     597.00
 21.77     634.00
 21.87     612.00
 21.97     636.00
 22.07     581.63
 22.17     659.00
 22.27     622.00
 22.37     677.50
 22.47     637.00
 22.57     594.00
 22.67     611.00
 22.77     604.00
 22.87     625.00
 22.97     657.00
 23.07     609.00
 23.17     585.00
 23.27     650.00
 23.37     607.00
 23.47     580.51
 23.57     661.00
 23.67     591.33
 23.77     662.72
 23.87     663.69
 23.97     611.00
 24.07     627.59
 24.17     589.00
 24.27     627.21
 24.37     627.00
 24.47     629.37
 24.57     621.00
 24.67     711.32
 24.77     659.00
 24.87     648.58
 24.97     721.00
 25.07     703.00
 25.17     722.00
 25.27     708.00
 25.37     722.00
 25.47     644.00
 25.57     696.03
 25.67     680.00
 25.77     702.00
 25.87     621.00
 25.97     652.00
 26.07     697.44
 26.17     681.00
 26.27     605.00
 26.37     680.87
 26.47     689.98
 26.57     634.04
 26.67     667.00
 26.77     659.00
 26.87     718.68
 26.97     654.00
 27.07     690.00
 27.17     701.00
 27.27     684.00
 27.37     700.45
 27.47     705.00
 27.57     851.11
 27.67     837.00
 27.77     862.95
 27.87    1075.00
 27.97    1326.00
 28.07    2116.62
 28.17    3324.00
 28.27    5398.00
 28.37    7629.85
 28.47    8691.31
 28.57    7941.28
 28.67    6116.00
 28.77    4370.00
 28.87    3569.16
 28.97    3815.00
 29.07    4448.00
 29.17    4652.45
 29.27    4378.00
 29.37    3492.22
 29.47    2371.00
 29.57    1674.31
 29.67    1287.00
 29.77     946.04
 29.87     931.00
 29.97     857.00
 30.07     789.00
 30.17     775.00
 30.27     776.00
 30.37     705.00
 30.47     726.00
 30.57     742.00
 30.67     647.55
 30.77     717.98
 30.87     720.39
 30.97     767.78
 31.07     730.07
 31.17     819.00
 31.27     779.00
 31.37     757.00
 31.47     664.37
 31.57     741.00
 31.67     610.91
 31.77     674.00
 31.87     605.68
 31.97     644.00
 32.07     623.42
 32.17     639.00
 32.27     637.00
 32.37     667.00
 32.47     641.00
 32.57     615.00
 32.67     572.58
 32.77     614.00
 32.87     649.00
 32.97     616.00
 33.07     677.15
 33.17     598.89
 33.27     594.31
 33.37     645.00
 33.47     708.00
 33.57     683.00
 33.67     659.00
 33.77     721.00
 33.87     757.74
 33.97     824.00
 34.07     923.00
 34.17    1117.03
 34.27    1220.00
 34.37    1282.00
 34.47    1242.00
 34.57    1022.89
 34.67     950.48
 34.77     793.00
 34.87     716.00
 34.97     729.00
 35.07     711.00
 35.17     673.76
 35.27     660.00
 35.37     640.00
 35.47     637.00
 35.57     641.46
 35.67     607.00
 35.77     605.00
 35.87     638.00
 35.97     622.13
 36.07     627.00
 36.17     600.00
 36.27     609.00
 36.37     620.00
 36.47     635.00
 36.57     613.00
 36.67     635.00
 36.77     594.00
 36.87     620.00
 36.97     560.97
 37.07     638.00
 37.17     608.00
 37.27     595.26
 37.37     604.00
 37.47     593.00
 37.57     639.00
 37.67     592.00
 37.77     691.00
 37.87     589.00
 37.97     656.00
 38.07     689.54
 38.17     733.00
 38.27     747.00
 38.37     733.00
 38.47     788.64
 38.57     712.00
 38.67     740.54
 38.77     646.00
 38.87     618.68
 38.97     580.00
 39.07     561.00
 39.17     591.00
 39.27     582.00
 39.37     634.00
 39.47     602.59
 39.57     620.00
 39.67     628.00
 39.77     587.93
 39.87     542.35
 39.97     632.00
 40.07     590.00
 40.17     606.00
 40.27     625.00
 40.37     580.00
 40.47     589.00
 40.57     610.00
 40.67     657.00
 40.77     623.00
 40.87     614.00
 40.97     575.00
 41.07     619.00
 41.17     544.00
 41.27     605.27
 41.37     561.74
 41.47     619.00
 41.57     547.00
 41.67     572.57
 41.77     577.38
 41.87     570.54
 41.97     603.00
 42.07     631.00
 42.17     630.54
 42.27     565.67
 42.37     628.00
 42.47     611.68
 42.57     663.00
 42.67     639.31
 42.77     643.00
 42.87     708.00
 42.97     752.19
 43.07     687.00
 43.17     657.00
 43.27     648.00
 43.37     683.00
 43.47     662.93
 43.57     675.93
 43.67     647.00
 43.77     660.00
 43.87     549.66
 43.97     606.00
 44.07     595.00
 44.17     584.00
 44.27     617.38
 44.37     637.00
 44.47     614.16
 44.57     598.12
 44.67     565.00
 44.77     602.50
 44.87     576.91
 44.97     638.49
 45.07     645.00
 45.17     651.00
 45.27     642.00
 45.37     590.80
 45.47     549.00
 45.57     602.32
 45.67     574.67
 45.77     536.00
 45.87     557.24
 45.97     603.00
 46.07     614.00
 46.17     589.00
 46.27     649.83
 46.37     648.05
 46.47     587.00
 46.57     624.00
 46.67     620.00
 46.77     572.61
 46.87     564.00
 46.97     592.00
 47.07     594.14
 47.17     620.00
 47.27     625.55
 47.37     589.00
 47.47     582.75
 47.57     663.85
 47.67     589.89
 47.77     661.00
 47.87     643.00
 47.97     704.34
 48.07     694.00
 48.17     656.00
 48.27     706.00
 48.37     692.00
 48.47     698.00
 48.57     639.00
 48.67     697.00
 48.77     647.15
 48.87     665.22
 48.97     627.10
 49.07     651.00
 49.17     622.00
 49.27     671.00
 49.37     629.00
 49.47     664.32
 49.57     677.00
 49.67     703.00
 49.77     727.70
 49.87     843.00
 49.97    1002.00
 50.07    1203.61
 50.17    1492.00
 50.27    1955.00
 50.37    2480.00
 50.47    2935.00
 50.57    3171.00
 50.67    3178.49
 50.77    2763.07
 50.87    2325.04
 50.97    1813.00
 51.07    1468.14
 51.17    1125.00
 51.27     936.27
 51.37     843.00
 51.47     779.00
 51.57     786.00
 51.67     760.00
 51.77     673.71
 51.87     743.00
 51.97     700.00
 52.07     741.88
 52.17     748.83
 52.27     726.57
 52.37     729.00
 52.47     697.00
 52.57     709.00
 52.67     727.00
 52.77     665.64
 52.87     653.00
 52.97     679.00
 53.07     744.16
 53.17     697.00
 53.27     700.58
 53.37     779.00
 53.47     884.30
 53.57     937.67
 53.67     975.00
 53.77    1099.89
 53.87    1190.00
 53.97    1224.00
 54.07    1308.00
 54.17    1316.52
 54.27    1167.88
 54.37    1006.00
 54.47     989.49
 54.57     829.00
 54.67     764.00
 54.77     695.28
 54.87     673.24
 54.97     685.00
 55.07     647.00
 55.17     633.75
 55.27     646.72
 55.37     616.53
 55.47     707.00
 55.57     662.00
 55.67     667.00
 55.77     678.00
 55.87     672.00
 55.97     667.00
 56.07     671.00
 56.17     772.00
 56.27     738.00
 56.37     761.00
 56.47     813.00
 56.57     873.00
 56.67     980.00
 56.77    1164.00
 56.87    1438.00
 56.97    1794.00
 57.07    2274.00
 57.17    2386.72
 57.27    2707.00
 57.37    2633.37
 57.47    2648.76
 57.57    2460.96
 57.67    2027.81
 57.77    1772.48
 57.87    1365.49
 57.97    1156.00
 58.07    1020.82
 58.17     881.00
 58.27     821.00
 58.37     813.00
 58.47     853.14
 58.57     757.49
 58.67     863.00
 58.77     922.18
 58.87     956.00
 58.97    1022.04
 59.07    1109.53
 59.17    1232.00
 59.27    1258.00
 59.37    1353.87
 59.47    1359.00
 59.57    1363.00
 59.67    1316.00
 59.77    1247.23
 59.87    1285.00
 59.97    1250.00
 60.07    1272.61
 60.17    1320.00
 60.27    1392.00
 60.37    1347.45
 60.47    1480.00
 60.57    1544.61
 60.67    1565.54
 60.77    1663.14
 60.87    1557.95
 60.97    1508.00
 61.07    1295.00
 61.17    1180.00
 61.27    1028.22
 61.37     964.00
 61.47     865.00
 61.57     832.24
 61.67     794.18
 61.77     814.00
 61.87     863.00
 61.97     876.00
 62.07    1042.00
 62.17    1124.00
 62.27    1268.00
 62.37    1450.44
 62.47    1626.00
 62.57    1715.55
 62.67    1782.00
 62.77    1771.29
 62.87    1699.80
 62.97    1543.00
 63.07    1463.00
 63.17    1198.78
 63.27    1062.00
 63.37     876.00
 63.47     853.00
 63.57     813.00
 63.67     863.00
 63.77     793.29
 63.87     743.00
 63.97     794.00
 64.07     693.00
 64.17     715.00
 64.27     741.00
 64.37     765.00
 64.47     827.00
 64.57     881.00
 64.67    1013.00
 64.77    1091.11
 64.87    1175.00
 64.97    1290.41
 65.07    1520.02
 65.17    1561.00
 65.27    1631.00
 65.37    1500.86
 65.47    1435.60
 65.57    1487.73
 65.67    1356.00
 65.77    1201.00
 65.87    1075.00
 65.97     930.00
 66.07     912.00
 66.17     891.56
 66.27     779.00
 66.37     755.00
 66.47     706.00
 66.57     774.67
 66.67     703.00
 66.77     663.05
 66.87     701.00
 66.97     731.89
 67.07     676.00
 67.17     715.00
 67.27     723.00
 67.37     687.88
 67.47     760.00
 67.57     780.60
 67.67     851.00
 67.77     951.00
 67.87    1055.00
 67.97    1099.00
 68.07    1277.14
 68.17    1534.00
 68.27    1768.24
 68.37    2085.92
 68.47    2253.00
 68.57    2466.00
 68.67    2471.43
 68.77    2620.00
 68.87    2311.76
 68.97    2221.00
 69.07    1981.90
 69.17    1725.00
 69.27    1447.23
 69.37    1276.87
 69.47    1055.06
 69.57    1035.00
 69.67     956.32
 69.77     788.42
 69.87     809.00
 69.97     714.64
 70.07     749.34
 70.17     669.78
 70.27     737.00
 70.37     751.42
 70.47     737.00
 70.57     683.27
 70.67     639.88
 70.77     667.88
 70.87     686.23
 70.97     660.48
 71.07     699.00
 71.17     736.00
 71.27     687.00
 71.37     750.16
 71.47     756.95
 71.57     778.00
 71.67     828.00
 71.77     857.00
 71.87    1028.00
 71.97    1091.00
 72.07    1268.00
 72.17    1441.12
 72.27    1596.74
 72.37    1683.00
 72.47    1866.00
 72.57    1934.00
 72.67    1980.00
 72.77    1908.00
 72.87    1902.00
 72.97    1859.00
 73.07    1598.00
 73.17    1379.69
 73.27    1251.00
 73.37    1117.00
 73.47    1011.00
 73.57     896.00
 73.67     839.00
 73.77     796.00
 73.87     748.00
 73.97     768.00
 74.07     763.00
 74.17     699.80
 74.27     672.00
 74.37     698.71
 74.47     665.00
 74.57     705.00
 74.67     626.52
 74.77     656.00
 74.87     741.00
 74.97     640.00
 75.07     667.81
 75.17     727.00
 75.27     691.00
 75.37     734.00
 75.47     676.00
 75.57     729.28
 75.67     691.00
 75.77     709.00
 75.87     660.00
 75.97     644.18
 76.07     689.64
 76.17     676.00
 76.27     680.00
 76.37     748.50
 76.47     719.00
 76.57     812.00
 76.67     827.00
 76.77     862.00
 76.87     954.00
 76.97     952.00
 77.07    1032.00
 77.17    1045.00
 77.27     962.98
 77.37     985.00
 77.47    1019.00
 77.57     996.00
 77.67     980.95
 77.77     894.00
 77.87     847.00
 77.97     796.00
 78.07     767.41
 78.17     736.00
 78.27     702.00
 78.37     652.00
 78.47     624.00
 78.57     656.22
 78.67     660.00
 78.77     595.00
 78.87     664.00
 78.97     606.00
 79.07     635.00
 79.17     605.00
 79.27     684.76
 79.37     628.00
 79.47     644.17
 79.57     628.00
 79.67     652.05
 79.77     633.00
 79.87     608.00
 79.97     628.00
 80.07     638.00
 80.17     663.69
 80.27     604.78
 80.37     646.80
 80.47     674.00
 80.57     668.02
 80.67     745.55
 80.77     833.66
 80.87     774.00
 80.97     889.55
 81.07    1036.00
 81.17    1099.90
 81.27    1058.76
 81.37    1316.00
 81.47    1397.00
 81.57    1461.00
 81.67    1471.00
 81.77    1564.00
 81.87    1465.35
 81.97    1466.00
 82.07    1437.54
 82.17    1371.00
 82.27    1272.00
 82.37    1202.00
 82.47    1107.47
 82.57    1089.00
 82.67     930.23
 82.77    1002.70
 82.87     901.00
 82.97     840.70
 83.07     759.00
 83.17     818.71
 83.27     764.00
 83.37     695.00
 83.47     654.00
 83.57     653.06
 83.67     619.00
 83.77     627.00
 83.87     702.00
 83.97     618.00
 84.07     672.89
 84.17     683.94
 84.27     635.76
 84.37     684.14
 84.47     707.00
 84.57     743.38
 84.67     641.00
 84.77     710.96
 84.87     691.48
 84.97     721.99
 85.07     662.98
 85.17     652.00
 85.27     634.56
 85.37     667.00
 85.47     629.00
 85.57     617.00
 85.67     642.00
 85.77     636.00
 85.87     636.00
 85.97     628.05
 86.07     607.00
 86.17     624.43
 86.27     635.00
 86.37     588.00
 86.47     640.29
 86.57     639.00
 86.67     591.36
 86.77     644.00
 86.87     684.00
 86.97     713.69
 87.07     666.00
 87.17     731.00
 87.27     683.36
 87.37     636.16
 87.47     697.00
 87.57     712.00
 87.67     636.42
 87.77     808.00
 87.87     695.30
 87.97     700.78
 88.07     728.00
 88.17     659.00
 88.27     675.00
 88.37     673.17
 88.47     762.89
 88.57     719.00
 88.67     765.93
 88.77     668.19
 88.87     635.54
 88.97     684.00
 89.07     730.00
 89.17     686.00
 89.27     705.71
 89.37     640.00
 89.47     647.00
 89.57     608.50
 89.67     678.00
 89.77     671.00
 89.87     694.00
 89.97     717.00
 90.07     702.00
 90.17     705.15
 90.27     689.49
 90.37     727.00
 90.47     667.00
 90.57     672.00
 90.67     622.00
 90.77     678.00
 90.87     645.00
 90.97     572.00
 91.07     644.91
 91.17     640.00
 91.27     689.00
 91.37     574.00
 91.47     565.00
 91.57     590.85
 91.67     597.36
 91.77     622.43
 91.87     593.00
 91.97     658.00
 92.07     620.00
 92.17     578.98
 92.27     583.45
 92.37     628.00
 92.47     620.00
 92.57     660.00
 92.67     561.99
 92.77     618.00
 92.87     673.83
 92.97     662.00
 93.07     699.00
 93.17     724.57
 93.27     664.00
 93.37     639.00
 93.47     656.36
 93.57     720.12
 93.67     795.00
 93.77     791.89
 93.87     763.00
 93.97     783.00
 94.07     798.77
 94.17     814.00
 94.27     892.22
 94.37     943.72
 94.47     836.92
 94.57     913.00
 94.67     861.04
 94.77     909.00
 94.87     953.00
 94.97     966.00
 95.07    1015.00
 95.17    1029.00
 95.27     975.77
 95.37     999.22
 95.47    1070.00
 95.57    1130.05
 95.67    1069.01
 95.77    1059.00
 95.87    1071.00
 95.97    1045.00
 96.07    1006.00
 96.17     969.00
 96.27     914.00
 96.37     934.00
 96.47     982.00
 96.57     854.00
 96.67     874.00
 96.77     830.04
 96.87     846.00
 96.97     858.00
 97.07     831.00
 97.17     875.00
 97.27     940.85
 97.37     941.00
 97.47     927.42
 97.57    1019.00
 97.67    1117.00
 97.77    1198.00
 97.87    1307.00
 97.97    1370.03
 98.07    1510.00
 98.17    1432.00
 98.27    1560.00
 98.37    1624.00
 98.47    1510.40
 98.57    1617.81
 98.67    1598.00
 98.77    1604.82
 98.87    1548.00
 98.97    1462.00
 99.07    1413.00
 99.17    1302.00
 99.27    1328.00
 99.37    1185.81
 99.47    1136.62
 99.57    1110.00
 99.67    1051.00
 99.77     963.79
 99.87     981.00
 99.97    1021.00
100.07    1044.00
100.17    1011.00
100.27    1106.00
100.37    1144.00
100.47    1175.00
100.57    1278.00
100.67    1346.05
100.77    1429.85
100.87    1520.74
100.97    1651.00
101.07    1635.65
101.17    1739.55
101.27    1865.00
101.37    1866.31
101.47    2024.00
101.57    2060.46
101.67    2132.00
101.77    2158.00
101.87    2134.94
101.97    2103.00
102.07    2138.59
102.17    2164.54
102.27    2053.00
102.37    1968.00
102.47    1927.12
102.57    1791.00
102.67    1649.00
102.77    1709.00
102.87    1602.00
102.97    1559.00
103.07    1483.71
103.17    1448.00
103.27    1460.19
103.37    1303.00
103.47    1375.58
103.57    1262.88
103.67    1321.00
103.77    1200.00
103.87    1195.87
103.97    1201.00
104.07    1086.00
104.17    1034.00
104.27    1084.41
104.37    1001.00
104.47    1011.77
104.57     943.00
104.67     937.90
104.77     808.00
104.87     754.22
104.97     794.00
105.07     800.93
105.17     769.00
105.27     694.87
105.37     707.00
105.47     673.00
105.57     689.00
105.67     613.29
105.77     641.20
105.87     615.00
105.97     611.00
106.07     659.00
106.17     571.66
106.27     621.00
106.37     598.16
106.47     651.42
106.57     608.00
106.67     562.00
106.77     660.99
106.87     644.00
106.97     646.00
107.07     651.71
107.17     710.39
107.27     668.00
107.37     696.00
107.47     660.00
107.57     638.00
107.67     703.00
107.77     752.00
107.87     774.00
107.97     782.00
108.07     728.00
108.17     755.00
108.27     800.00
108.37     802.00
108.47     785.00
108.57     786.00
108.67     783.00
108.77     857.05
108.87     746.32
108.97     755.00
109.07     837.94
109.17     757.00
109.27     770.00
109.37     738.00
109.47     746.00
109.57     816.29
109.67     757.00
109.77     741.86
109.87     740.23
109.97     790.00
110.07     735.50
110.17     741.67
110.27     784.00
110.37     799.00
110.47     769.00
110.57     785.00
110.67     712.27
110.77     758.00
110.87     762.00
110.97     674.20
111.07     736.00
111.17     702.00
111.27     708.00
111.37     695.61
111.47     658.00
111.57     703.00
111.67     702.33
111.77     672.00
111.87     608.05
111.97     644.00
112.07     599.59
112.17     590.27
112.27     650.83
112.37     643.94
112.47     614.00
112.57     637.00
112.67     580.48
112.77     598.00
112.87     635.10
112.97     624.00
113.07     571.00
113.17     658.13
113.27     669.02
113.37     669.32
113.47     600.00
113.57     671.99
113.67     619.00
113.77     661.52
113.87     623.00
113.97     694.73
114.07     604.00
114.17     718.49
114.27     657.37
114.37     715.39
114.47     706.00
114.57     686.00
114.67     707.03
114.77     715.00
114.87     751.24
114.97     773.24
115.07     842.00
115.17     909.00
115.27     889.00
115.37    1014.04
115.47     980.00
115.57    1129.10
115.67    1352.62
115.77    1333.00
115.87    1581.00
115.97    1713.00
116.07    1984.00
116.17    2090.91
116.27    2417.00
116.37    2657.52
116.47    3087.00
116.57    3380.00
116.67    3606.00
116.77    3998.00
116.87    4301.00
116.97    4575.00
117.07    5079.00
117.17    5563.33
117.27    5864.00
117.37    6522.27
117.47    6728.00
117.57    6967.00
117.67    7320.00
117.77    7439.79
117.87    7604.00
117.97    7751.31
118.07    7698.00
118.17    7524.00
118.27    7226.24
118.37    7099.00
118.47    6829.00
118.57    6415.00
118.67    6067.00
118.77    5822.00
118.87    5389.00
118.97    5180.41
119.07    4762.00
119.17    4428.00
119.27    4022.39
119.37    3700.43
119.47    3345.00
119.57    3085.00
119.67    2761.00
119.77    2371.54
119.87    2252.00
119.97    2058.00
120.07    1856.28
120.17    1606.00
120.27    1570.00
120.37    1437.00
120.47    1315.25
120.57    1167.84
120.67    1052.85
120.77    1087.00
120.87    1017.62
120.97     990.00
121.07     844.45
121.17     887.00
121.27     872.00
121.37     832.32
121.47     818.00
121.57     800.77
121.67     792.00
121.77     764.33
121.87     741.44
121.97     687.00
122.07     731.00
122.17     687.00
122.27     770.22
122.37     667.00
122.47     705.39
122.57     775.45
122.67     724.00
122.77     717.29
122.87     665.00
122.97     727.00
123.07     777.13
123.17     725.00
123.27     742.00
123.37     798.32
123.47     703.22
123.57     777.96
123.67     777.00
123.77     760.91
123.87     794.09
123.97     776.51
124.07     741.00
124.17     753.59
124.27     802.00
124.37     823.00
124.47     764.84
124.57     830.00
124.67     830.00
124.77     794.00
124.87     810.00
124.97     835.00
