  9.97     661.94
 10.07     716.00
 10.17     754.09
 10.27     733.03
 10.37     683.24
 10.47     706.20
 10.57     701.00
 10.67     659.92
 10.77     691.00
 10.87     756.00
 10.97     661.34
 11.07     691.27
 11.17     700.00
 11.27     730.23
 11.37     664.95
 11.47     679.36
 11.57     697.76
 11.67     746.00
 11.77     749.16
 11.87     719.00
 11.97     791.00
 12.07     827.00
 12.17     849.00
 12.27     825.00
 12.37     840.00
 12.47     803.00
 12.57     783.82
 12.67     739.78
 12.77     702.00
 12.87     679.00
 12.97     656.00
 13.07     664.00
 13.17     676.00
 13.27     644.00
 13.37     684.41
 13.47     670.45
 13.57     627.45
 13.67     688.00
 13.77     652.00
 13.87     634.14
 13.97     689.00
 14.07     669.00
 14.17     669.00
 14.27     657.00
 14.37     664.00
 14.47     679.03
 14.57     655.00
 14.67     614.39
 14.77     656.00
 14.87     628.88
 14.97     656.45
 15.07     633.10
 15.17     628.00
 15.27     582.00
 15.37     653.00
 15.47     641.27
 15.57     648.74
 15.67     661.00
 15.77     620.57
 15.87     671.00
 15.97     663.00
 16.07     624.00
 16.17     725.00
 16.27     617.23
 16.37     654.00
 16.47     636.00
 16.57     627.00
 16.67     611.00
 16.77     644.25
 16.87     670.00
 16.97     668.55
 17.07     628.00
 17.17     670.79
 17.27     645.00
 17.37     644.00
 17.47     693.19
 17.57     654.54
 17.67     652.00
 17.77     659.51
 17.87     551.00
 17.97     652.53
 18.07     620.00
 18.17     675.37
 18.27     570.00
 18.37     648.53
 18.47     634.13
 18.57     619.00
 18.67     587.00
 18.77     621.00
 18.87     653.00
 18.97     647.53
 19.07     650.46
 19.17     652.00
 19.27     652.00
 19.37     603.00
 19.47     599.00
 19.57     590.00
 19.67     604.00
 19.77     571.00
 19.87     620.00
 19.97     611.00
 20.07     587.00
 20.17     616.00
 20.27     626.84
 20.37     607.68
 20.47     657.00
 20.57     612.00
 20.67     657.81
 20.77     590.00
 20.87     640.91
 20.97     593.57
 21.07     643.84
 21.17     620.79
 21.27     660.00
 21.37     609.00
 21.47     591.05
 21.57     583.12
 21.67     622.21
 21.77     650.97
 21.87     631.00
 21.97     610.19
 22.07     612.91
 22.17     595.00
 22.27     618.00
 22.37     590.00
 22.47     623.25
 22.57     599.81
 22.67     645.48
 22.77     560.00
 22.87     631.00
 22.97     605.26
 23.07     602.00
 23.17     583.67
 23.27     586.00
 23.37     617.00
 23.47     668.92
 23.57     610.00
 23.67     563.00
 23.77     661.35
 23.87     562.00
 23.97     614.00
 24.07     602.71
 24.17     644.00
 24.27     601.00
 24.37     635.00
 24.47     644.00
 24.57     665.00
 24.67     683.39
 24.77     698.24
 24.87     649.29
 24.97     660.00
 25.07     734.00
 25.17     694.00
 25.27     657.00
 25.37     683.91
 25.47     668.00
 25.57     641.00
 25.67     617.00
 25.77     693.00
 25.87     673.00
 25.97     599.90
 26.07     612.00
 26.17     637.00
 26.27     639.00
 26.37     637.08
 26.47     629.00
 26.57     650.00
 26.67     647.77
 26.77     613.00
 26.87     702.00
 26.97     641.25
 27.07     699.76
 27.17     685.00
 27.27     747.00
 27.37     726.00
 27.47     760.00
 27.57     763.00
 27.67     791.00
 27.77     879.72
 27.87     946.00
 27.97    1265.00
 28.07    2121.85
 28.17    3259.30
 28.27    5034.00
 28.37    6831.00
 28.47    7416.21
 28.57    6655.47
 28.67    5075.00
 28.77    3683.00
 28.87    3151.22
 28.97    3527.00
 29.07    4071.00
 29.17    4306.18
 29.27    3776.00
 29.37    2848.00
 29.47    1863.00
 29.57    1376.98
 29.67    1083.00
 29.77     943.00
 29.87     876.00
 29.97     811.00
 30.07     795.00
 30.17     728.00
 30.27     718.00
 30.37     698.00
 30.47     624.55
 30.57     621.00
 30.67     656.00
 30.77     724.45
 30.87     681.00
 30.97     755.00
 31.07     790.00
 31.17     792.00
 31.27     808.00
 31.37     727.00
 31.47     722.00
 31.57     614.19
 31.67     635.07
 31.77     670.00
 31.87     635.00
 31.97     629.00
 32.07     572.34
 32.17     620.00
 32.27     632.64
 32.37     620.00
 32.47     641.00
 32.57     653.33
 32.67     610.00
 32.77     605.00
 32.87     622.00
 32.97     591.67
 33.07     583.35
 33.17     629.00
 33.27     673.00
 33.37     640.00
 33.47     684.00
 33.57     684.57
 33.67     650.00
 33.77     763.00
 33.87     743.18
 33.97     800.38
 34.07     978.08
 34.17    1155.00
 34.27    1205.00
 34.37    1202.00
 34.47    1131.27
 34.57     900.00
 34.67     824.00
 34.77     731.59
 34.87     684.00
 34.97     711.00
 35.07     661.86
 35.17     656.00
 35.27     642.03
 35.37     661.00
 35.47     620.25
 35.57     621.00
 35.67     573.51
 35.77     599.00
 35.87     610.00
 35.97     634.00
 36.07     552.76
 36.17     611.00
 36.27     600.00
 36.37     583.00
 36.47     632.00
 36.57     611.00
 36.67     599.00
 36.77     586.11
 36.87     538.00
 36.97     604.45
 37.07     577.71
 37.17     634.00
 37.27     547.87
 37.37     635.09
 37.47     647.25
 37.57     569.32
 37.67     588.00
 37.77     644.00
 37.87     597.00
 37.97     655.00
 38.07     654.00
 38.17     674.00
 38.27     768.00
 38.37     745.00
 38.47     691.00
 38.57     755.00
 38.67     635.00
 38.77     631.00
 38.87     659.71
 38.97     605.00
 39.07     580.78
 39.17     575.00
 39.27     651.00
 39.37     611.00
 39.47     610.00
 39.57     593.96
 39.67     629.61
 39.77     632.93
 39.87     605.00
 39.97     579.85
 40.07     547.21
 40.17     618.00
 40.27     586.00
 40.37     582.00
 40.47     573.00
 40.57     554.00
 40.67     543.45
 40.77     610.97
 40.87     556.00
 40.97     609.45
 41.07     583.00
 41.17     558.00
 41.27     619.00
 41.37     559.00
 41.47     579.00
 41.57     534.00
 41.67     561.00
 41.77     573.55
 41.87     592.00
 41.97     611.58
 42.07     544.70
 42.17     618.00
 42.27     572.00
 42.37     580.00
 42.47     581.00
 42.57     645.66
 42.67     592.22
 42.77     613.76
 42.87     631.00
 42.97     659.39
 43.07     722.36
 43.17     696.00
 43.27     657.79
 43.37     650.33
 43.47     682.95
 43.57     605.24
 43.67     616.00
 43.77     594.00
 43.87     577.00
 43.97     604.00
 44.07     632.02
 44.17     580.00
 44.27     556.00
 44.37     593.00
 44.47     587.00
 44.57     548.00
 44.67     571.34
 44.77     615.00
 44.87     610.00
 44.97     619.62
 45.07     596.18
 45.17     612.00
 45.27     547.49
 45.37     562.31
 45.47     559.16
 45.57     619.00
 45.67     605.75
 45.77     601.00
 45.87     559.52
 45.97     626.64
 46.07     571.18
 46.17     551.00
 46.27     608.00
 46.37     562.00
 46.47     583.99
 46.57     607.99
 46.67     613.00
 46.77     625.00
 46.87     577.00
 46.97     588.00
 47.07     666.00
 47.17     596.91
 47.27     600.00
 47.37     589.00
 47.47     573.00
 47.57     628.00
 47.67     640.00
 47.77     570.00
 47.87     628.00
 47.97     644.00
 48.07     699.87
 48.17     664.00
 48.27     726.00
 48.37     706.32
 48.47     692.00
 48.57     662.11
 48.67     673.00
 48.77     628.00
 48.87     640.00
 48.97     643.00
 49.07     626.00
 49.17     625.25
 49.27     596.00
 49.37     625.00
 49.47     581.00
 49.57     671.67
 49.67     730.51
 49.77     751.00
 49.87     774.00
 49.97    1056.00
 50.07    1237.00
 50.17    1614.00
 50.27    2075.00
 50.37    2483.00
 50.47    2869.00
 50.57    3095.87
 50.67    3084.39
 50.77    2541.00
 50.87    2153.00
 50.97    1669.00
 51.07    1284.67
 51.17    1032.00
 51.27     928.00
 51.37     824.00
 51.47     784.00
 51.57     770.26
 51.67     657.00
 51.77     721.00
 51.87     705.47
 51.97     684.00
 52.07     727.00
 52.17     707.00
 52.27     703.00
 52.37     693.75
 52.47     650.69
 52.57     603.00
 52.67     662.00
 52.77     697.00
 52.87     669.00
 52.97     689.00
 53.07     649.92
 53.17     739.00
 53.27     775.96
 53.37     802.00
 53.47     920.23
 53.57     910.70
 53.67    1056.00
 53.77    1151.00
 53.87    1303.00
 53.97    1266.00
 54.07    1300.18
 54.17    1135.00
 54.27    1081.00
 54.37     960.88
 54.47     868.00
 54.57     861.57
 54.67     774.64
 54.77     659.00
 54.87     719.71
 54.97     629.00
 55.07     655.00
 55.17     658.00
 55.27     668.16
 55.37     649.00
 55.47     705.00
 55.57     645.58
 55.67     673.79
 55.77     678.33
 55.87     691.64
 55.97     688.28
 56.07     685.00
 56.17     758.00
 56.27     740.00
 56.37     783.10
 56.47     872.06
 56.57     918.00
 56.67    1061.94
 56.77    1295.00
 56.87    1519.00
 56.97    1860.00
 57.07    2220.72
 57.17    2584.00
 57.27    2805.00
 57.37    2785.00
 57.47    2530.25
 57.57    2406.00
 57.67    1905.00
 57.77    1627.48
 57.87    1268.00
 57.97    1053.00
 58.07     944.23
 58.17     846.00
 58.27     770.00
 58.37     824.00
 58.47     812.00
 58.57     808.00
 58.67     812.43
 58.77     865.00
 58.87     995.00
 58.97     991.00
 59.07    1181.00
 59.17    1145.00
 59.27    1250.00
 59.37    1345.21
 59.47    1423.00
 59.57    1360.00
 59.67    1338.00
 59.77    1200.81
 59.87    1229.17
 59.97    1201.13
 60.07    1208.00
 60.17    1339.00
 60.27    1299.47
 60.37    1468.00
 60.47    1535.00
 60.57    1635.17
 60.67    1619.00
 60.77    1563.00
 60.87    1534.00
 60.97    1383.00
 61.07    1235.00
 61.17    1133.00
 61.27     958.38
 61.37     847.00
 61.47     827.00
 61.57     741.00
 61.67     757.92
 61.77     830.00
 61.87     879.49
 61.97     889.00
 62.07    1025.00
 62.17    1139.04
 62.27    1296.00
 62.37    1451.00
 62.47    1610.32
 62.57    1715.00
 62.67    1758.00
 62.77    1759.00
 62.87    1541.68
 62.97    1410.00
 63.07    1245.52
 63.17    1076.00
 63.27     949.00
 63.37     876.00
 63.47     811.00
 63.57     775.01
 63.67     785.00
 63.77     700.94
 63.87     710.00
 63.97     739.00
 64.07     713.00
 64.17     757.00
 64.27     772.62
 64.37     772.76
 64.47     888.90
 64.57     935.89
 64.67    1040.19
 64.77    1118.00
 64.87    1296.00
 64.97    1381.00
 65.07    1475.00
 65.17    1597.00
 65.27    1561.17
 65.37    1514.00
 65.47    1407.00
 65.57    1350.00
 65.67    1228.63
 65.77     981.00
 65.87     944.00
 65.97     839.00
 66.07     829.00
 66.17     772.05
 66.27     770.00
 66.37     715.00
 66.47     711.00
 66.57     681.00
 66.67     701.27
 66.77     640.00
 66.87     694.00
 66.97     700.14
 67.07     667.00
 67.17     686.00
 67.27     687.56
 67.37     749.39
 67.47     773.00
 67.57     783.15
 67.67     830.00
 67.77     979.87
 67.87    1003.00
 67.97    1278.42
 68.07    1411.00
 68.17    1708.15
 68.27    1899.29
 68.37    2239.87
 68.47    2352.00
 68.57    2501.00
 68.67    2618.08
 68.77    2430.65
 68.87    2324.00
 68.97    2115.00
 69.07    1869.63
 69.17    1598.00
 69.27    1341.88
 69.37    1216.00
 69.47    1086.00
 69.57     912.00
 69.67     895.00
 69.77     815.03
 69.87     836.00
 69.97     759.00
 70.07     771.00
 70.17     750.00
 70.27     737.95
 70.37     696.00
 70.47     722.80
 70.57     701.00
 70.67     707.98
 70.77     662.08
 70.87     717.00
 70.97     663.00
 71.07     679.00
 71.17     703.00
 71.27     713.00
 71.37     754.00
 71.47     832.00
 71.57     838.00
 71.67     902.19
 71.77     935.00
 71.87    1065.00
 71.97    1131.61
 72.07    1354.00
 72.17    1493.00
 72.27    1632.00
 72.37    1749.02
 72.47    1924.92
 72.57    2068.75
 72.67    2058.92
 72.77    1968.24
 72.87    1766.00
 72.97    1570.00
 73.07    1527.00
 73.17    1405.22
 73.27    1192.00
 73.37     991.28
 73.47     997.46
 73.57     820.00
 73.67     805.01
 73.77     754.00
 73.87     698.00
 73.97     681.00
 74.07     691.00
 74.17     628.15
 74.27     711.00
 74.37     652.06
 74.47     671.00
 74.57     643.00
 74.67     634.60
 74.77     699.00
 74.87     618.25
 74.97     695.00
 75.07     645.14
 75.17     709.00
 75.27     719.82
 75.37     664.00
 75.47     750.00
 75.57     720.00
 75.67     684.00
 75.77     628.00
 75.87     672.00
 75.97     668.00
 76.07     682.00
 76.17     650.39
 76.27     699.00
 76.37     713.00
 76.47     770.23
 76.57     765.00
 76.67     756.00
 76.77     883.00
 76.87     939.00
 76.97     938.00
 77.07     945.00
 77.17     953.00
 77.27     975.26
 77.37    1017.19
 77.47     944.00
 77.57     921.00
 77.67     778.00
 77.77     795.96
 77.87     759.00
 77.97     721.00
 78.07     706.80
 78.17     653.00
 78.27     701.00
 78.37     685.63
 78.47     607.43
 78.57     631.00
 78.67     594.00
 78.77     633.00
 78.87     604.00
 78.97     626.65
 79.07     589.42
 79.17     659.00
 79.27     595.26
 79.37     636.00
 79.47     589.00
 79.57     622.00
 79.67     594.00
 79.77     609.75
 79.87     671.47
 79.97     640.09
 80.07     646.00
 80.17     627.00
 80.27     637.00
 80.37     695.31
 80.47     635.47
 80.57     707.00
 80.67     716.00
 80.77     743.00
 80.87     848.00
 80.97     860.00
 81.07     973.51
 81.17    1064.75
 81.27    1143.00
 81.37    1223.00
 81.47    1241.00
 81.57    1220.01
 81.67    1247.51
 81.77    1358.00
 81.87    1393.61
 81.97    1261.06
 82.07    1324.83
 82.17    1306.00
 82.27    1252.00
 82.37    1118.65
 82.47    1079.00
 82.57     976.37
 82.67     932.00
 82.77     815.00
 82.87     814.73
 82.97     784.30
 83.07     793.00
 83.17     722.00
 83.27     668.70
 83.37     740.00
 83.47     628.00
 83.57     616.00
 83.67     639.00
 83.77     664.35
 83.87     647.00
 83.97     605.00
 84.07     649.00
 84.17     613.00
 84.27     661.43
 84.37     659.00
 84.47     709.77
 84.57     678.83
 84.67     673.00
 84.77     684.00
 84.87     607.00
 84.97     718.19
 85.07     664.00
 85.17     655.00
 85.27     617.00
 85.37     601.00
 85.47     641.22
 85.57     628.00
 85.67     655.00
 85.77     603.00
 85.87     601.00
 85.97     562.00
 86.07     597.00
 86.17     598.00
 86.27     590.00
 86.37     568.40
 86.47     622.00
 86.57     632.00
 86.67     641.00
 86.77     628.00
 86.87     635.00
 86.97     686.00
 87.07     670.00
 87.17     679.13
 87.27     674.00
 87.37     706.00
 87.47     705.34
 87.57     690.00
 87.67     660.00
 87.77     711.32
 87.87     738.00
 87.97     738.22
 88.07     674.28
 88.17     749.00
 88.27     713.00
 88.37     678.34
 88.47     713.00
 88.57     681.00
 88.67     697.00
 88.77     679.00
 88.87     694.51
 88.97     688.00
 89.07     618.58
 89.17     610.00
 89.27     614.31
 89.37     633.00
 89.47     675.00
 89.57     667.96
 89.67     640.00
 89.77     702.76
 89.87     646.00
 89.97     664.00
 90.07     714.00
 90.17     712.00
 90.27     708.00
 90.37     652.00
 90.47     625.00
 90.57     636.00
 90.67     669.00
 90.77     634.86
 90.87     627.00
 90.97     609.00
 91.07     656.96
 91.17     599.00
 91.27     571.00
 91.37     624.94
 91.47     622.51
 91.57     576.00
 91.67     596.00
 91.77     545.54
 91.87     573.00
 91.97     543.61
 92.07     562.00
 92.17     591.00
 92.27     539.00
 92.37     570.67
 92.47     645.82
 92.57     601.00
 92.67     564.79
 92.77     585.00
 92.87     616.19
 92.97     662.09
 93.07     666.06
 93.17     698.00
 93.27     680.00
 93.37     749.86
 93.47     696.97
 93.57     783.75
 93.67     793.99
 93.77     748.97
 93.87     776.00
 93.97     833.43
 94.07     773.00
 94.17     792.00
 94.27     845.59
 94.37     848.00
 94.47     902.00
 94.57     891.42
 94.67     903.37
 94.77     882.09
 94.87     931.00
 94.97     955.00
 95.07     950.29
 95.17    1014.66
 95.27     970.56
 95.37    1070.73
 95.47    1048.38
 95.57    1011.94
 95.67    1013.00
 95.77    1059.00
 95.87     978.00
 95.97     957.00
 96.07     926.00
 96.17     951.19
 96.27     917.74
 96.37     923.00
 96.47     895.00
 96.57     783.00
 96.67     814.00
 96.77     825.00
 96.87     840.00
 96.97     811.00
 97.07     869.00
 97.17     857.00
 97.27     903.00
 97.37     894.49
 97.47    1078.00
 97.57    1111.01
 97.67    1194.58
 97.77    1210.98
 97.87    1339.00
 97.97    1411.63
 98.07    1486.14
 98.17    1462.00
 98.27    1508.00
 98.37    1490.02
 98.47    1627.66
 98.57    1493.00
 98.67    1598.00
 98.77    1427.00
 98.87    1491.77
 98.97    1412.00
 99.07    1299.95
 99.17    1297.00
 99.27    1176.00
 99.37    1144.00
 99.47    1110.00
 99.57    1055.63
 99.67    1008.57
 99.77     966.00
 99.87     994.00
 99.97     985.39
100.07    1054.00
100.17    1094.00
100.27    1097.00
100.37    1134.00
100.47    1221.00
100.57    1368.00
100.67    1358.35
100.77    1512.00
100.87    1537.00
100.97    1708.00
101.07    1718.47
101.17    1815.08
101.27    1930.00
101.37    2029.84
101.47    2044.82
101.57    2119.00
101.67    2145.00
101.77    2034.23
101.87    2010.01
101.97    2071.00
102.07    2065.00
102.17    1972.00
102.27    1944.15
102.37    1843.82
102.47    1847.19
102.57    1682.36
102.67    1672.50
102.77    1499.26
102.87    1526.00
102.97    1450.66
103.07    1322.00
103.17    1299.00
103.27    1269.00
103.37    1361.26
103.47    1290.00
103.57    1278.02
103.67    1200.00
103.77    1217.00
103.87    1117.27
103.97    1117.33
104.07    1049.00
104.17    1018.06
104.27     984.34
104.37     959.00
104.47     925.00
104.57     863.00
104.67     819.01
104.77     841.25
104.87     754.69
104.97     743.86
105.07     690.26
105.17     703.00
105.27     647.00
105.37     642.00
105.47     682.00
105.57     648.00
105.67     622.93
105.77     657.00
105.87     587.74
105.97     562.37
106.07     604.00
106.17     614.54
106.27     585.63
106.37     638.00
106.47     594.00
106.57     611.00
106.67     584.00
106.77     656.06
106.87     633.00
106.97     639.00
107.07     684.00
107.17     640.14
107.27     698.69
107.37     678.10
107.47     675.00
107.57     711.57
107.67     686.00
107.77     747.00
107.87     766.00
107.97     767.00
108.07     764.00
108.17     809.12
108.27     788.29
108.37     742.94
108.47     757.00
108.57     755.00
108.67     820.00
108.77     754.00
108.87     779.11
108.97     761.00
109.07     772.25
109.17     810.66
109.27     750.00
109.37     814.40
109.47     722.00
109.57     733.00
109.67     740.00
109.77     727.53
109.87     735.00
109.97     764.00
110.07     784.00
110.17     783.00
110.27     811.71
110.37     766.13
110.47     724.78
110.57     713.00
110.67     726.00
110.77     686.40
110.87     683.00
110.97     676.71
111.07     679.00
111.17     636.07
111.27     649.01
111.37     627.00
111.47     670.00
111.57     682.00
111.67     679.26
111.77     646.00
111.87     672.00
111.97     609.00
112.07     640.00
112.17     637.00
112.27     593.16
112.37     627.23
112.47     581.98
112.57     589.00
112.67     612.00
112.77     616.57
112.87     609.00
112.97     641.00
113.07     640.68
113.17     650.42
113.27     591.00
113.37     564.90
113.47     621.11
113.57     598.00
113.67     628.00
113.77     621.00
113.87     632.00
113.97     608.75
114.07     601.49
114.17     670.00
114.27     685.50
114.37     711.13
114.47     669.71
114.57     727.63
114.67     740.28
114.77     739.00
114.87     808.90
114.97     773.00
115.07     814.00
115.17     863.00
115.27     896.00
115.37    1048.11
115.47    1126.00
115.57    1278.03
115.67    1359.00
115.77    1517.00
115.87    1697.00
115.97    1853.72
116.07    2164.00
116.17    2441.00
116.27    2605.76
116.37    2933.31
116.47    3210.00
116.57    3617.00
116.67    3962.00
116.77    4288.00
116.87    4768.90
116.97    5004.00
117.07    5506.00
117.17    5875.00
117.27    6267.00
117.37    6761.25
117.47    6956.00
117.57    7199.74
117.67    7361.00
117.77    7610.00
117.87    7570.34
117.97    7529.00
118.07    7356.00
118.17    7340.00
118.27    6957.00
118.37    6744.34
118.47    6566.73
118.57    6145.65
118.67    5645.00
118.77    5280.00
118.87    4981.96
118.97    4725.00
119.07    4322.00
119.17    3934.47
119.27    3555.00
119.37    3190.00
119.47    2971.00
119.57    2501.30
119.67    2434.47
119.77    2184.34
119.87    2015.00
119.97    1822.00
120.07    1628.00
120.17    1500.00
120.27    1265.50
120.37    1287.18
120.47    1176.00
120.57    1167.00
120.67    1003.00
120.77     999.00
120.87     911.09
120.97     872.00
121.07     839.00
121.17     847.00
121.27     814.00
121.37     753.00
121.47     758.76
121.57     740.00
121.67     755.00
121.77     694.00
121.87     704.00
121.97     699.00
122.07     703.00
122.17     716.32
122.27     649.00
122.37     719.36
122.47     707.00
122.57     688.41
122.67     656.52
122.77     694.00
122.87     715.00
122.97     732.00
123.07     752.36
123.17     671.00
123.27     750.00
123.37     758.19
123.47     723.00
123.57     795.35
123.67     803.14
123.77     762.00
123.87     734.00
123.97     843.00
124.07     764.00
124.17     816.02
124.27     790.00
124.37     792.00
124.47     807.97
124.57     798.00
124.67     790.00
124.77     789.00
124.87     816.00
124.97     784.00
