  9.97     779.00
 10.07     690.54
 10.17     698.65
 10.27     786.00
 10.37     681.00
 10.47     731.00
 10.57     765.33
 10.67     699.08
 10.77     762.00
 10.87     702.84
 10.97     710.00
 11.07     772.00
 11.17     727.82
 11.27     784.00
 11.37     759.00
 11.47     769.00
 11.57     721.00
 11.67     754.00
 11.77     801.00
 11.87     794.00
 11.97     841.00
 12.07     773.25
 12.17     765.43
 12.27     872.91
 12.37     832.00
 12.47     798.00
 12.57     766.98
 12.67     790.77
 12.77     730.00
 12.87     671.22
 12.97     698.00
 13.07     676.00
 13.17     754.26
 13.27     662.00
 13.37     743.17
 13.47     707.00
 13.57     674.00
 13.67     707.00
 13.77     659.00
 13.87     654.34
 13.97     741.00
 14.07     716.00
 14.17     692.00
 14.27     705.43
 14.37     695.00
 14.47     717.00
 14.57     682.00
 14.67     675.00
 14.77     691.69
 14.87     687.49
 14.97     661.23
 15.07     673.70
 15.17     686.00
 15.27     676.18
 15.37     635.00
 15.47     677.00
 15.57     668.20
 15.67     675.00
 15.77     669.00
 15.87     696.90
 15.97     661.00
 16.07     626.00
 16.17     669.45
 16.27     679.00
 16.37     627.37
 16.47     672.00
 16.57     678.00
 16.67     634.72
 16.77     681.00
 16.87     651.00
 16.97     679.71
 17.07     619.00
 17.17     683.46
 17.27     679.00
 17.37     654.00
 17.47     627.00
 17.57     704.65
 17.67     664.12
 17.77     672.60
 17.87     666.00
 17.97     651.00
 18.07     620.18
 18.17     705.08
 18.27     596.00
 18.37     674.00
 18.47     627.00
 18.57     665.00
 18.67     661.00
 18.77     656.00
 18.87     636.32
 18.97     645.27
 19.07     649.00
 19.17     611.00
 19.27     671.15
 19.37     676.00
 19.47     666.20
 19.57     663.00
 19.67     637.00
 19.77     673.80
 19.87     620.00
 19.97     640.00
 20.07     640.00
 20.17     695.84
 20.27     652.89
 20.37     683.00
 20.47     628.00
 20.57     621.10
 20.67     638.00
 20.77     679.75
 20.87     642.00
 20.97     613.00
 21.07     596.00
 21.17     673.30
 21.27     653.00
 21.37     574.00
 21.47     671.27
 21.57     683.00
 21.67     651.00
 21.77     667.00
 21.87     600.08
 21.97     610.00
 22.07     640.00
 22.17     673.31
 22.27     636.00
 22.37     625.00
 22.47     631.64
 22.57     590.00
 22.67     630.00
 22.77     621.00
 22.87     627.24
 22.97     666.70
 23.07     681.85
 23.17     608.23
 23.27     649.69
 23.37     688.00
 23.47     610.07
 23.57     631.00
 23.67     649.00
 23.77     647.00
 23.87     622.00
 23.97     653.66
 24.07     627.00
 24.17     635.00
 24.27     627.00
 24.37     647.00
 24.47     653.00
 24.57     694.59
 24.67     710.00
 24.77     660.09
 24.87     733.73
 24.97     675.00
 25.07     774.93
 25.17     684.39
 25.27     710.00
 25.37     704.94
 25.47     687.00
 25.57     652.12
 25.67     604.00
 25.77     609.84
 25.87     639.00
 25.97     649.00
 26.07     606.00
 26.17     658.00
 26.27     678.00
 26.37     680.00
 26.47     717.00
 26.57     635.85
 26.67     659.00
 26.77     693.67
 26.87     659.22
 26.97     671.58
 27.07     715.00
 27.17     709.00
 27.27     727.00
 27.37     791.45
 27.47     768.00
 27.57     863.62
 27.67     922.63
 27.77     920.71
 27.87    1047.42
 27.97    1388.00
 28.07    2056.00
 28.17    3357.00
 28.27    5265.00
 28.37    7712.40
 28.47    8759.12
 28.57    8354.00
 28.67    6518.45
 28.77    4807.00
 28.87    3797.00
 28.97    3952.00
 29.07    4640.00
 29.17    5035.00
 29.27    4561.00
 29.37    3658.00
 29.47    2756.86
 29.57    1833.00
 29.67    1393.00
 29.77    1089.00
 29.87     963.00
 29.97     822.45
 30.07     767.24
 30.17     764.00
 30.27     781.00
 30.37     797.00
 30.47     757.00
 30.57     720.00
 30.67     691.00
 30.77     680.00
 30.87     760.21
 30.97     797.80
 31.07     780.00
 31.17     853.27
 31.27     752.17
 31.37     775.00
 31.47     707.93
 31.57     760.00
 31.67     697.00
 31.77     704.07
 31.87     677.00
 31.97     671.00
 32.07     677.00
 32.17     688.00
 32.27     654.00
 32.37     648.00
 32.47     623.04
 32.57     640.75
 32.67     666.00
 32.77     637.00
 32.87     627.00
 32.97     667.53
 33.07     652.00
 33.17     654.00
 33.27     663.00
 33.37     674.00
 33.47     673.00
 33.57     705.58
 33.67     711.00
 33.77     729.00
 33.87     757.00
 33.97     843.00
 34.07     986.00
 34.17    1073.00
 34.27    1271.36
 34.37    1319.00
 34.47    1270.79
 34.57    1094.00
 34.67     920.00
 34.77     865.00
 34.87     750.37
 34.97     714.00
 35.07     677.00
 35.17     650.25
 35.27     681.00
 35.37     611.22
 35.47     618.00
 35.57     669.50
 35.67     672.87
 35.77     577.83
 35.87     657.00
 35.97     632.95
 36.07     653.00
 36.17     595.00
 36.27     578.00
 36.37     659.64
 36.47     623.00
 36.57     581.00
 36.67     593.21
 36.77     569.41
 36.87     611.50
 36.97     541.00
 37.07     631.20
 37.17     619.00
 37.27     574.00
 37.37     613.61
 37.47     598.00
 37.57     657.00
 37.67     638.00
 37.77     634.99
 37.87     703.24
 37.97     732.00
 38.07     717.00
 38.17     701.88
 38.27     778.10
 38.37     747.46
 38.47     761.00
 38.57     686.00
 38.67     734.00
 38.77     662.00
 38.87     699.19
 38.97     643.00
 39.07     601.00
 39.17     621.00
 39.27     640.51
 39.37     573.00
 39.47     564.28
 39.57     622.00
 39.67     612.00
 39.77     651.00
 39.87     582.00
 39.97     582.36
 40.07     561.63
 40.17     582.69
 40.27     557.87
 40.37     621.00
 40.47     651.03
 40.57     575.00
 40.67     594.00
 40.77     593.13
 40.87     614.00
 40.97     588.31
 41.07     574.87
 41.17     644.35
 41.27     633.54
 41.37     589.00
 41.47     653.52
 41.57     575.62
 41.67     582.53
 41.77     613.00
 41.87     594.00
 41.97     587.00
 42.07     628.23
 42.17     621.87
 42.27     653.32
 42.37     586.00
 42.47     585.00
 42.57     614.43
 42.67     629.00
 42.77     644.41
 42.87     647.20
 42.97     710.00
 43.07     768.99
 43.17     663.00
 43.27     727.00
 43.37     682.00
 43.47     695.00
 43.57     635.87
 43.67     631.00
 43.77     647.00
 43.87     630.00
 43.97     634.00
 44.07     582.26
 44.17     589.44
 44.27     566.15
 44.37     653.03
 44.47     656.00
 44.57     652.00
 44.67     616.00
 44.77     569.83
 44.87     599.00
 44.97     562.52
 45.07     631.10
 45.17     629.00
 45.27     628.25
 45.37     616.00
 45.47     661.50
 45.57     651.90
 45.67     587.11
 45.77     628.00
 45.87     660.10
 45.97     655.00
 46.07     638.93
 46.17     592.00
 46.27     620.16
 46.37     657.92
 46.47     654.00
 46.57     629.00
 46.67     623.00
 46.77     620.00
 46.87     641.00
 46.97     560.00
 47.07     584.80
 47.17     657.00
 47.27     589.04
 47.37     617.00
 47.47     620.00
 47.57     612.90
 47.67     642.00
 47.77     641.00
 47.87     623.00
 47.97     638.00
 48.07     684.00
 48.17     641.00
 48.27     705.00
 48.37     731.63
 48.47     721.01
 48.57     661.29
 48.67     657.00
 48.77     637.00
 48.87     670.85
 48.97     647.00
 49.07     615.72
 49.17     636.85
 49.27     680.00
 49.37     636.00
 49.47     653.00
 49.57     736.05
 49.67     705.00
 49.77     765.00
 49.87     841.00
 49.97     918.00
 50.07    1096.00
 50.17    1474.00
 50.27    1780.00
 50.37    2524.02
 50.47    2923.97
 50.57    3251.00
 50.67    3237.00
 50.77    2874.00
 50.87    2436.00
 50.97    1895.61
 51.07    1490.00
 51.17    1196.00
 51.27    1070.23
 51.37     953.00
 51.47     891.00
 51.57     757.00
 51.67     772.00
 51.77     792.00
 51.87     732.48
 51.97     706.00
 52.07     732.80
 52.17     749.00
 52.27     708.64
 52.37     746.00
 52.47     759.00
 52.57     742.00
 52.67     710.31
 52.77     717.00
 52.87     650.13
 52.97     651.81
 53.07     658.00
 53.17     672.00
 53.27     707.00
 53.37     832.14
 53.47     795.00
 53.57     917.17
 53.67    1039.00
 53.77    1158.31
 53.87    1248.00
 53.97    1367.27
 54.07    1402.36
 54.17    1202.00
 54.27    1157.00
 54.37    1058.00
 54.47     990.00
 54.57     881.00
 54.67     838.00
 54.77     726.00
 54.87     714.00
 54.97     727.00
 55.07     731.58
 55.17     683.41
 55.27     687.00
 55.37     644.00
 55.47     654.00
 55.57     670.00
 55.67     682.18
 55.77     701.00
 55.87     730.42
 55.97     685.00
 56.07     719.00
 56.17     733.35
 56.27     754.00
 56.37     731.49
 56.47     838.00
 56.57     855.00
 56.67    1074.92
 56.77    1156.00
 56.87    1431.83
 56.97    1755.77
 57.07    2101.00
 57.17    2438.00
 57.27    2672.00
 57.37    2719.00
 57.47    2755.00
 57.57    2342.83
 57.67    2185.10
 57.77    1864.00
 57.87    1532.77
 57.97    1253.02
 58.07    1038.00
 58.17     965.60
 58.27     860.00
 58.37     838.34
 58.47     766.90
 58.57     796.93
 58.67     868.00
 58.77     865.21
 58.87     991.00
 58.97    1105.00
 59.07    1154.00
 59.17    1135.00
 59.27    1268.00
 59.37    1371.64
 59.47    1450.09
 59.57    1425.00
 59.67    1347.00
 59.77    1344.00
 59.87    1320.62
 59.97    1321.00
 60.07    1331.00
 60.17    1299.00
 60.27    1284.00
 60.37    1409.00
 60.47    1535.74
 60.57    1474.97
 60.67    1559.00
 60.77    1666.00
 60.87    1614.00
 60.97    1434.40
 61.07    1379.00
 61.17    1283.10
 61.27    1050.00
 61.37     971.00
 61.47     891.85
 61.57     930.00
 61.67     849.00
 61.77     811.83
 61.87     868.00
 61.97     962.38
 62.07    1001.00
 62.17    1090.05
 62.27    1265.00
 62.37    1443.00
 62.47    1605.00
 62.57    1712.79
 62.67    1806.00
 62.77    1836.00
 62.87    1714.49
 62.97    1556.00
 63.07    1426.93
 63.17    1357.49
 63.27    1135.00
 63.37     949.00
 63.47     951.00
 63.57     801.00
 63.67     799.77
 63.77     794.41
 63.87     716.66
 63.97     785.00
 64.07     723.10
 64.17     744.94
 64.27     727.00
 64.37     812.00
 64.47     834.00
 64.57     944.00
 64.67    1004.00
 64.77    1067.00
 64.87    1196.79
 64.97    1422.26
 65.07    1499.00
 65.17    1634.04
 65.27    1649.00
 65.37    1658.00
 65.47    1536.67
 65.57    1494.31
 65.67    1441.03
 65.77    1311.67
 65.87    1106.00
 65.97    1006.00
 66.07     904.00
 66.17     809.00
 66.27     806.20
 66.37     834.00
 66.47     752.02
 66.57     784.87
 66.67     709.84
 66.77     754.76
 66.87     637.00
 66.97     742.00
 67.07     740.00
 67.17     714.00
 67.27     722.00
 67.37     725.00
 67.47     728.00
 67.57     798.00
 67.67     801.00
 67.77     912.00
 67.87     982.70
 67.97    1181.00
 68.07    1251.49
 68.17    1461.54
 68.27    1778.00
 68.37    2000.00
 68.47    2220.00
 68.57    2515.00
 68.67    2634.68
 68.77    2528.75
 68.87    2496.00
 68.97    2283.00
 69.07    2102.00
 69.17    1750.54
 69.27    1632.00
 69.37    1323.00
 69.47    1161.00
 69.57    1037.00
 69.67     957.00
 69.77     796.82
 69.87     780.98
 69.97     720.96
 70.07     733.15
 70.17     738.00
 70.27     731.04
 70.37     708.00
 70.47     726.00
 70.57     711.81
 70.67     651.74
 70.77     731.00
 70.87     717.00
 70.97     707.00
 71.07     730.00
 71.17     733.00
 71.27     745.00
 71.37     697.30
 71.47     744.00
 71.57     803.00
 71.67     877.47
 71.77     896.00
 71.87     975.55
 71.97    1052.00
 72.07    1173.00
 72.17    1378.00
 72.27    1461.00
 72.37    1655.00
 72.47    1764.11
 72.57    1963.59
 72.67    2101.00
 72.77    2001.00
 72.87    1938.00
 72.97    1755.88
 73.07    1723.00
 73.17    1473.00
 73.27    1354.00
 73.37    1169.67
 73.47    1053.45
 73.57     910.00
 73.67     859.00
 73.77     833.00
 73.87     827.00
 73.97     756.00
 74.07     740.00
 74.17     736.00
 74.27     641.15
 74.37     742.00
 74.47     667.00
 74.57     654.70
 74.67     650.00
 74.77     675.00
 74.87     721.42
 74.97     665.00
 75.07     695.00
 75.17     709.00
 75.27     711.00
 75.37     737.00
 75.47     729.45
 75.57     749.00
 75.67     809.00
 75.77     721.00
 75.87     696.94
 75.97     691.00
 76.07     701.00
 76.17     695.00
 76.27     726.00
 76.37     733.08
 76.47     752.34
 76.57     788.00
 76.67     795.00
 76.77     894.00
 76.87     843.00
 76.97     943.75
 77.07    1013.52
 77.17     987.00
 77.27    1062.00
 77.37    1018.40
 77.47    1051.00
 77.57    1068.42
 77.67     922.00
 77.77     924.07
 77.87     894.00
 77.97     867.62
 78.07     779.00
 78.17     756.45
 78.27     705.30
 78.37     743.00
 78.47     722.00
 78.57     660.00
 78.67     651.00
 78.77     630.48
 78.87     655.03
 78.97     662.04
 79.07     609.00
 79.17     596.28
 79.27     619.88
 79.37     647.00
 79.47     625.72
 79.57     632.52
 79.67     671.88
 79.77     614.92
 79.87     613.00
 79.97     685.98
 80.07     628.00
 80.17     660.00
 80.27     653.00
 80.37     637.00
 80.47     723.78
 80.57     757.12
 80.67     759.00
 80.77     783.00
 80.87     866.00
 80.97     911.00
 81.07     994.77
 81.17    1089.00
 81.27    1174.60
 81.37    1265.78
 81.47    1213.30
 81.57    1381.85
 81.67    1519.00
 81.77    1532.79
 81.87    1556.00
 81.97    1587.00
 82.07    1491.00
 82.17    1409.00
 82.27    1373.09
 82.37    1188.14
 82.47    1208.00
 82.57    1137.00
 82.67     992.00
 82.77     998.00
 82.87     898.00
 82.97     873.00
 83.07     842.00
 83.17     776.00
 83.27     699.00
 83.37     754.52
 83.47     673.00
 83.57     665.00
 83.67     684.55
 83.77     727.85
 83.87     683.00
 83.97     664.07
 84.07     654.72
 84.17     644.00
 84.27     735.21
 84.37     701.97
 84.47     667.00
 84.57     751.59
 84.67     710.00
 84.77     669.00
 84.87     733.00
 84.97     706.00
 85.07     669.00
 85.17     641.00
 85.27     735.55
 85.37     628.00
 85.47     663.00
 85.57     674.00
 85.67     628.69
 85.77     582.00
 85.87     610.00
 85.97     622.47
 86.07     643.22
 86.17     642.50
 86.27     677.72
 86.37     630.00
 86.47     608.00
 86.57     591.88
 86.67     603.78
 86.77     605.71
 86.87     695.00
 86.97     700.00
 87.07     631.00
 87.17     718.82
 87.27     700.00
 87.37     679.00
 87.47     714.59
 87.57     692.00
 87.67     708.14
 87.77     707.00
 87.87     761.33
 87.97     738.62
 88.07     779.00
 88.17     743.00
 88.27     729.84
 88.37     780.00
 88.47     763.00
 88.57     764.00
 88.67     710.00
 88.77     751.00
 88.87     701.00
 88.97     703.00
 89.07     683.29
 89.17     658.00
 89.27     674.00
 89.37     692.00
 89.47     695.38
 89.57     676.00
 89.67     697.00
 89.77     667.95
 89.87     724.84
 89.97     721.00
 90.07     735.00
 90.17     696.00
 90.27     741.14
 90.37     701.00
 90.47     649.00
 90.57     689.00
 90.67     681.00
 90.77     636.00
 90.87     700.00
 90.97     650.00
 91.07     623.00
 91.17     613.00
 91.27     602.00
 91.37     585.00
 91.47     625.00
 91.57     625.00
 91.67     578.00
 91.77     621.28
 91.87     586.26
 91.97     599.00
 92.07     648.00
 92.17     593.46
 92.27     623.69
 92.37     585.00
 92.47     627.00
 92.57     619.00
 92.67     652.86
 92.77     682.00
 92.87     683.42
 92.97     664.00
 93.07     656.00
 93.17     638.00
 93.27     697.00
 93.37     695.00
 93.47     675.00
 93.57     727.00
 93.67     768.60
 93.77     703.00
 93.87     764.00
 93.97     790.00
 94.07     841.82
 94.17     889.00
 94.27     825.00
 94.37     884.00
 94.47     871.72
 94.57     926.67
 94.67     935.17
 94.77     899.00
 94.87     952.47
 94.97     955.00
 95.07    1029.86
 95.17    1000.00
 95.27    1015.00
 95.37    1051.97
 95.47    1038.00
 95.57    1111.00
 95.67    1061.00
 95.77    1123.83
 95.87    1025.00
 95.97     998.00
 96.07    1036.48
 96.17    1023.00
 96.27     945.00
 96.37     904.00
 96.47     905.00
 96.57     873.00
 96.67     813.10
 96.77     830.00
 96.87     813.76
 96.97     820.00
 97.07     801.00
 97.17     826.00
 97.27     853.24
 97.37     977.98
 97.47     974.38
 97.57    1055.00
 97.67    1112.00
 97.77    1115.57
 97.87    1199.00
 97.97    1353.00
 98.07    1353.00
 98.17    1480.00
 98.27    1479.00
 98.37    1543.00
 98.47    1634.00
 98.57    1619.00
 98.67    1586.76
 98.77    1559.68
 98.87    1557.00
 98.97    1475.00
 99.07    1458.00
 99.17    1414.00
 99.27    1309.00
 99.37    1228.00
 99.47    1216.00
 99.57    1099.27
 99.67    1153.42
 99.77    1096.00
 99.87     997.00
 99.97    1027.00
100.07    1035.00
100.17    1061.15
100.27    1065.19
100.37    1144.72
100.47    1187.00
100.57    1275.00
100.67    1383.25
100.77    1436.00
100.87    1474.00
100.97    1584.00
101.07    1696.61
101.17    1763.00
101.27    1891.00
101.37    1895.00
101.47    2045.00
101.57    1994.95
101.67    2143.84
101.77    2056.22
101.87    2225.00
101.97    2194.55
102.07    2114.00
102.17    2108.00
102.27    2019.00
102.37    1987.00
102.47    1963.00
102.57    1927.61
102.67    1785.00
102.77    1650.00
102.87    1599.61
102.97    1629.91
103.07    1488.00
103.17    1447.00
103.27    1383.00
103.37    1338.00
103.47    1392.00
103.57    1321.99
103.67    1366.27
103.77    1265.00
103.87    1282.71
103.97    1165.28
104.07    1152.00
104.17    1121.00
104.27    1044.00
104.37     997.00
104.47     989.00
104.57     935.00
104.67     888.00
104.77     910.00
104.87     864.00
104.97     825.00
105.07     781.00
105.17     776.86
105.27     731.34
105.37     739.00
105.47     690.00
105.57     692.00
105.67     696.00
105.77     642.16
105.87     641.00
105.97     645.05
106.07     644.00
106.17     624.00
106.27     617.04
106.37     595.00
106.47     603.00
106.57     614.00
106.67     623.00
106.77     630.00
106.87     658.00
106.97     652.64
107.07     678.00
107.17     705.05
107.27     653.00
107.37     665.00
107.47     686.89
107.57     681.68
107.67     696.00
107.77     732.00
107.87     750.00
107.97     781.00
108.07     769.00
108.17     782.28
108.27     760.14
108.37     784.00
108.47     772.00
108.57     795.00
108.67     857.73
108.77     819.00
108.87     759.38
108.97     796.88
109.07     787.02
109.17     802.90
109.27     797.00
109.37     829.50
109.47     729.00
109.57     694.00
109.67     747.00
109.77     764.00
109.87     857.02
109.97     749.00
110.07     796.78
110.17     855.95
110.27     793.00
110.37     768.00
110.47     820.00
110.57     775.00
110.67     783.00
110.77     807.00
110.87     770.00
110.97     703.47
111.07     694.00
111.17     714.00
111.27     767.38
111.37     660.15
111.47     656.00
111.57     694.00
111.67     694.00
111.77     686.00
111.87     683.00
111.97     630.00
112.07     625.59
112.17     650.00
112.27     665.00
112.37     642.00
112.47     647.00
112.57     623.00
112.67     625.00
112.77     654.00
112.87     652.49
112.97     647.00
113.07     648.00
113.17     645.00
113.27     586.64
113.37     663.00
113.47     671.95
113.57     622.69
113.67     672.84
113.77     634.00
113.87     619.00
113.97     665.06
114.07     659.00
114.17     705.00
114.27     683.00
114.37     694.00
114.47     733.35
114.57     674.00
114.67     713.00
114.77     724.87
114.87     727.00
114.97     795.00
115.07     883.58
115.17     883.00
115.27     940.35
115.37     904.00
115.47    1054.00
115.57    1139.00
115.67    1157.00
115.77    1422.93
115.87    1530.08
115.97    1741.00
116.07    1854.00
116.17    1953.88
116.27    2288.61
116.37    2559.00
116.47    2764.00
116.57    3224.63
116.67    3377.73
116.77    3954.34
116.87    4288.00
116.97    4588.18
117.07    4919.00
117.17    5424.00
117.27    5845.63
117.37    6119.00
117.47    6513.00
117.57    6877.66
117.67    7163.21
117.77    7473.88
117.87    7438.02
117.97    7549.00
118.07    7627.21
118.17    7556.00
118.27    7533.00
118.37    7168.65
118.47    6997.36
118.57    6794.00
118.67    6350.00
118.77    5977.00
118.87    5854.88
118.97    5219.00
119.07    4872.73
119.17    4625.00
119.27    4344.54
119.37    3953.00
119.47    3485.20
119.57    3299.00
119.67    3021.00
119.77    2654.28
119.87    2326.00
119.97    2235.93
120.07    2020.00
120.17    1823.90
120.27    1608.99
120.37    1492.00
120.47    1426.73
120.57    1294.00
120.67    1235.00
120.77    1150.00
120.87    1083.00
120.97    1042.97
121.07     902.88
121.17     886.00
121.27     866.00
121.37     914.00
121.47     870.39
121.57     833.00
121.67     751.00
121.77     779.00
121.87     796.78
121.97     723.00
122.07     763.30
122.17     685.00
122.27     737.14
122.37     718.00
122.47     722.00
122.57     742.30
122.67     749.91
122.77     697.00
122.87     774.00
122.97     727.00
123.07     720.09
123.17     728.33
123.27     713.00
123.37     694.00
123.47     785.95
123.57     740.09
123.67     764.00
123.77     770.00
123.87     824.23
123.97     773.00
124.07     738.00
124.17     814.00
124.27     801.00
124.37     766.00
124.47     803.00
124.57     778.00
124.67     807.00
124.77     794.00
124.87     740.61
124.97     805.00
