  9.97     744.00
 10.07     743.00
 10.17     761.63
 10.27     749.00
 10.37     689.00
 10.47     749.00
 10.57     699.00
 10.67     708.00
 10.77     761.00
 10.87     726.00
 10.97     695.36
 11.07     706.00
 11.17     734.00
 11.27     744.15
 11.37     677.00
 11.47     783.00
 11.57     731.00
 11.67     798.00
 11.77     730.88
 11.87     706.00
 11.97     794.05
 12.07     843.00
 12.17     851.00
 12.27     840.00
 12.37     866.50
 12.47     762.24
 12.57     725.00
 12.67     790.79
 12.77     763.77
 12.87     685.06
 12.97     638.00
 13.07     675.00
 13.17     713.75
 13.27     692.31
 13.37     659.00
 13.47     679.00
 13.57     650.60
 13.67     706.03
 13.77     645.00
 13.87     637.23
 13.97     702.00
 14.07     641.78
 14.17     676.00
 14.27     693.00
 14.37     671.35
 14.47     698.00
 14.57     644.00
 14.67     646.00
 14.77     713.00
 14.87     708.38
 14.97     621.00
 15.07     697.76
 15.17     644.45
 15.27     667.01
 15.37     666.00
 15.47     687.11
 15.57     709.00
 15.67     668.30
 15.77     664.00
 15.87     652.78
 15.97     661.00
 16.07     637.00
 16.17     634.00
 16.27     700.25
 16.37     677.36
 16.47     646.00
 16.57     671.00
 16.67     700.00
 16.77     647.59
 16.87     642.00
 16.97     702.90
 17.07     635.75
 17.17     656.00
 17.27     688.12
 17.37     618.00
 17.47     567.00
 17.57     612.00
 17.67     677.00
 17.77     669.21
 17.87     677.00
 17.97     641.00
 18.07     644.88
 18.17     633.00
 18.27     665.50
 18.37     616.46
 18.47     659.63
 18.57     610.86
 18.67     618.34
 18.77     638.97
 18.87     595.54
 18.97     645.00
 19.07     629.00
 19.17     602.60
 19.27     685.17
 19.37     661.00
 19.47     627.00
 19.57     674.15
 19.67     630.00
 19.77     605.00
 19.87     603.64
 19.97     644.00
 20.07     582.00
 20.17     598.00
 20.27     635.00
 20.37     631.90
 20.47     598.00
 20.57     620.00
 20.67     639.64
 20.77     616.79
 20.87     615.00
 20.97     679.64
 21.07     636.00
 21.17     644.00
 21.27     620.93
 21.37     639.00
 21.47     630.00
 21.57     628.05
 21.67     596.00
 21.77     657.19
 21.87     642.50
 21.97     638.00
 22.07     666.00
 22.17     597.83
 22.27     621.00
 22.37     635.00
 22.47     647.00
 22.57     637.86
 22.67     643.00
 22.77     583.23
 22.87     627.00
 22.97     630.00
 23.07     629.00
 23.17     613.00
 23.27     598.00
 23.37     605.00
 23.47     653.00
 23.57     623.00
 23.67     622.00
 23.77     617.00
 23.87     618.06
 23.97     663.00
 24.07     630.00
 24.17     624.00
 24.27     622.34
 24.37     639.00
 24.47     592.00
 24.57     693.97
 24.67     668.00
 24.77     685.00
 24.87     698.00
 24.97     718.00
 25.07     745.00
 25.17     701.00
 25.27     706.00
 25.37     687.00
 25.47     638.32
 25.57     642.00
 25.67     603.77
 25.77     613.00
 25.87     682.71
 25.97     640.00
 26.07     632.84
 26.17     664.00
 26.27     625.24
 26.37     647.00
 26.47     647.83
 26.57     639.00
 26.67     647.00
 26.77     684.00
 26.87     689.00
 26.97     701.00
 27.07     683.00
 27.17     688.99
 27.27     718.00
 27.37     663.00
 27.47     768.00
 27.57     757.00
 27.67     828.00
 27.77     942.00
 27.87    1021.15
 27.97    1276.00
 28.07    2046.00
 28.17    3161.00
 28.27    5230.00
 28.37    7118.81
 28.47    8059.00
 28.57    7438.64
 28.67    5413.38
 28.77    3949.50
 28.87    3401.00
 28.97    3770.85
 29.07    4334.90
 29.17    4542.00
 29.27    4172.00
 29.37    3104.00
 29.47    2279.65
 29.57    1568.12
 29.67    1107.04
 29.77    1026.00
 29.87     868.00
 29.97     819.00
 30.07     783.64
 30.17     774.36
 30.27     775.00
 30.37     715.00
 30.47     716.94
 30.57     685.00
 30.67     699.00
 30.77     740.36
 30.87     690.00
 30.97     774.35
 31.07     716.12
 31.17     780.00
 31.27     764.25
 31.37     744.00
 31.47     656.68
 31.57     728.00
 31.67     688.00
 31.77     639.34
 31.87     689.00
 31.97     676.61
 32.07     574.88
 32.17     602.42
 32.27     606.00
 32.37     637.00
 32.47     687.00
 32.57     567.92
 32.67     624.88
 32.77     611.61
 32.87     664.00
 32.97     676.00
 33.07     613.69
 33.17     700.00
 33.27     638.00
 33.37     657.61
 33.47     593.82
 33.57     652.00
 33.67     683.00
 33.77     695.10
 33.87     756.00
 33.97     875.03
 34.07     950.00
 34.17    1187.00
 34.27    1186.00
 34.37    1313.35
 34.47    1240.00
 34.57    1025.00
 34.67     841.00
 34.77     836.00
 34.87     667.97
 34.97     724.00
 35.07     672.38
 35.17     667.00
 35.27     641.19
 35.37     677.00
 35.47     622.32
 35.57     635.00
 35.67     639.64
 35.77     596.57
 35.87     642.00
 35.97     594.00
 36.07     556.59
 36.17     581.35
 36.27     654.00
 36.37     585.97
 36.47     569.00
 36.57     560.83
 36.67     634.00
 36.77     596.00
 36.87     619.00
 36.97     641.75
 37.07     588.00
 37.17     602.72
 37.27     628.34
 37.37     636.00
 37.47     620.32
 37.57     606.38
 37.67     608.00
 37.77     599.60
 37.87     651.00
 37.97     640.62
 38.07     698.00
 38.17     707.00
 38.27     753.57
 38.37     694.00
 38.47     804.43
 38.57     682.00
 38.67     630.10
 38.77     658.76
 38.87     660.68
 38.97     575.00
 39.07     640.59
 39.17     616.04
 39.27     627.00
 39.37     616.00
 39.47     618.91
 39.57     596.00
 39.67     597.00
 39.77     633.00
 39.87     597.00
 39.97     563.00
 40.07     588.00
 40.17     568.00
 40.27     595.00
 40.37     611.00
 40.47     577.00
 40.57     608.00
 40.67     563.55
 40.77     591.00
 40.87     593.00
 40.97     629.75
 41.07     581.07
 41.17     589.00
 41.27     583.00
 41.37     601.00
 41.47     577.00
 41.57     570.00
 41.67     594.99
 41.77     596.00
 41.87     562.35
 41.97     595.00
 42.07     600.00
 42.17     607.00
 42.27     602.00
 42.37     572.59
 42.47     623.39
 42.57     626.67
 42.67     686.30
 42.77     659.66
 42.87     659.00
 42.97     652.00
 43.07     669.00
 43.17     722.25
 43.27     679.00
 43.37     637.00
 43.47     644.00
 43.57     619.00
 43.67     576.93
 43.77     573.00
 43.87     618.00
 43.97     626.33
 44.07     585.00
 44.17     631.94
 44.27     596.00
 44.37     597.00
 44.47     600.00
 44.57     600.00
 44.67     603.27
 44.77     560.24
 44.87     618.00
 44.97     549.92
 45.07     619.00
 45.17     626.00
 45.27     625.15
 45.37     593.00
 45.47     621.36
 45.57     606.00
 45.67     587.00
 45.77     550.33
 45.87     573.00
 45.97     622.00
 46.07     604.00
 46.17     600.46
 46.27     626.69
 46.37     617.00
 46.47     613.15
 46.57     581.00
 46.67     595.00
 46.77     568.14
 46.87     594.28
 46.97     579.48
 47.07     642.60
 47.17     569.00
 47.27     548.00
 47.37     632.35
 47.47     597.55
 47.57     590.00
 47.67     662.00
 47.77     618.00
 47.87     609.00
 47.97     670.00
 48.07     625.35
 48.17     693.00
 48.27     718.00
 48.37     677.00
 48.47     670.26
 48.57     680.00
 48.67     667.00
 48.77     638.00
 48.87     671.57
 48.97     647.00
 49.07     630.00
 49.17     645.00
 49.27     638.00
 49.37     629.00
 49.47     691.92
 49.57     665.94
 49.67     675.00
 49.77     767.00
 49.87     785.00
 49.97     963.00
 50.07    1246.24
 50.17    1527.00
 50.27    1953.00
 50.37    2552.00
 50.47    2972.00
 50.57    3140.00
 50.67    3070.00
 50.77    2735.37
 50.87    2290.00
 50.97    1795.00
 51.07    1302.00
 51.17    1069.00
 51.27     932.00
 51.37     840.00
 51.47     802.00
 51.57     712.57
 51.67     731.00
 51.77     796.00
 51.87     734.00
 51.97     683.00
 52.07     689.00
 52.17     641.52
 52.27     713.00
 52.37     686.00
 52.47     696.00
 52.57     668.00
 52.67     645.50
 52.77     645.23
 52.87     674.00
 52.97     712.00
 53.07     652.75
 53.17     694.00
 53.27     740.00
 53.37     769.00
 53.47     844.64
 53.57     948.00
 53.67    1025.66
 53.77    1143.79
 53.87    1298.00
 53.97    1313.00
 54.07    1242.86
 54.17    1175.66
 54.27    1135.00
 54.37     994.00
 54.47     919.00
 54.57     829.00
 54.67     773.00
 54.77     773.47
 54.87     635.00
 54.97     643.00
 55.07     654.00
 55.17     643.76
 55.27     651.00
 55.37     674.00
 55.47     684.00
 55.57     640.00
 55.67     623.38
 55.77     679.00
 55.87     712.59
 55.97     732.89
 56.07     699.00
 56.17     779.00
 56.27     677.00
 56.37     755.00
 56.47     791.94
 56.57     893.00
 56.67    1044.00
 56.77    1284.23
 56.87    1540.00
 56.97    1768.81
 57.07    2181.00
 57.17    2521.74
 57.27    2667.78
 57.37    2736.00
 57.47    2508.00
 57.57    2310.00
 57.67    2049.00
 57.77    1666.23
 57.87    1397.78
 57.97    1127.00
 58.07    1019.53
 58.17     874.00
 58.27     831.00
 58.37     775.00
 58.47     799.00
 58.57     815.00
 58.67     823.96
 58.77     905.00
 58.87     986.00
 58.97    1062.00
 59.07    1101.00
 59.17    1266.00
 59.27    1261.00
 59.37    1307.00
 59.47    1315.00
 59.57    1385.00
 59.67    1245.00
 59.77    1284.00
 59.87    1269.00
 59.97    1189.88
 60.07    1202.00
 60.17    1240.00
 60.27    1360.00
 60.37    1384.00
 60.47    1534.00
 60.57    1552.39
 60.67    1585.55
 60.77    1578.78
 60.87    1561.00
 60.97    1468.00
 61.07    1339.00
 61.17    1150.00
 61.27    1057.00
 61.37     930.00
 61.47     844.00
 61.57     819.00
 61.67     847.00
 61.77     850.10
 61.87     873.71
 61.97     907.00
 62.07    1027.00
 62.17    1108.00
 62.27    1265.00
 62.37    1502.00
 62.47    1580.04
 62.57    1695.00
 62.67    1798.00
 62.77    1829.83
 62.87    1637.00
 62.97    1487.00
 63.07    1345.76
 63.17    1180.04
 63.27     943.00
 63.37     926.00
 63.47     842.00
 63.57     758.91
 63.67     722.00
 63.77     718.68
 63.87     709.43
 63.97     690.55
 64.07     668.83
 64.17     732.00
 64.27     744.23
 64.37     796.00
 64.47     793.00
 64.57     915.00
 64.67    1020.00
 64.77    1081.00
 64.87    1192.93
 64.97    1373.00
 65.07    1469.00
 65.17    1588.00
 65.27    1562.00
 65.37    1581.71
 65.47    1429.77
 65.57    1297.00
 65.67    1186.35
 65.77    1082.00
 65.87    1012.00
 65.97     970.86
 66.07     877.00
 66.17     847.00
 66.27     761.00
 66.37     815.15
 66.47     719.00
 66.57     717.00
 66.67     688.00
 66.77     651.00
 66.87     622.00
 66.97     661.00
 67.07     702.00
 67.17     714.00
 67.27     719.00
 67.37     664.00
 67.47     770.38
 67.57     847.00
 67.67     812.00
 67.77     972.25
 67.87     996.00
 67.97    1174.00
 68.07    1368.00
 68.17    1568.97
 68.27    1792.00
 68.37    2166.00
 68.47    2342.00
 68.57    2570.12
 68.67    2591.00
 68.77    2565.00
 68.87    2346.00
 68.97    2175.00
 69.07    1883.78
 69.17    1746.00
 69.27    1502.00
 69.37    1268.72
 69.47    1163.00
 69.57    1006.00
 69.67     860.84
 69.77     852.00
 69.87     714.52
 69.97     769.00
 70.07     704.81
 70.17     747.00
 70.27     736.00
 70.37     701.00
 70.47     700.00
 70.57     642.99
 70.67     684.00
 70.77     730.00
 70.87     706.00
 70.97     733.00
 71.07     651.81
 71.17     707.00
 71.27     678.39
 71.37     682.51
 71.47     709.00
 71.57     764.00
 71.67     832.00
 71.77     890.38
 71.87     982.00
 71.97    1161.00
 72.07    1296.47
 72.17    1495.00
 72.27    1580.39
 72.37    1700.00
 72.47    1941.63
 72.57    1921.00
 72.67    2100.94
 72.77    2040.57
 72.87    1768.00
 72.97    1707.38
 73.07    1580.00
 73.17    1457.00
 73.27    1222.18
 73.37    1077.13
 73.47     920.00
 73.57     947.86
 73.67     754.00
 73.77     806.00
 73.87     766.57
 73.97     753.00
 74.07     696.56
 74.17     679.45
 74.27     696.35
 74.37     698.00
 74.47     717.13
 74.57     632.00
 74.67     684.00
 74.77     681.00
 74.87     627.00
 74.97     668.00
 75.07     686.00
 75.17     698.00
 75.27     636.86
 75.37     731.00
 75.47     626.06
 75.57     710.00
 75.67     720.53
 75.77     683.43
 75.87     713.00
 75.97     707.00
 76.07     626.00
 76.17     682.25
 76.27     675.00
 76.37     703.00
 76.47     697.92
 76.57     744.37
 76.67     837.00
 76.77     909.80
 76.87     906.65
 76.97     970.00
 77.07    1036.63
 77.17    1011.00
 77.27    1018.85
 77.37     966.00
 77.47     971.00
 77.57     910.00
 77.67     937.00
 77.77     855.00
 77.87     768.00
 77.97     823.75
 78.07     702.00
 78.17     684.74
 78.27     708.32
 78.37     691.15
 78.47     658.38
 78.57     610.49
 78.67     653.00
 78.77     675.18
 78.87     590.97
 78.97     635.00
 79.07     601.00
 79.17     622.42
 79.27     572.00
 79.37     668.11
 79.47     601.00
 79.57     644.00
 79.67     575.08
 79.77     614.59
 79.87     567.00
 79.97     667.24
 80.07     647.65
 80.17     671.00
 80.27     670.62
 80.37     633.00
 80.47     717.00
 80.57     681.13
 80.67     717.00
 80.77     751.00
 80.87     813.97
 80.97     882.00
 81.07     978.00
 81.17    1004.08
 81.27    1039.02
 81.37    1158.73
 81.47    1295.00
 81.57    1294.00
 81.67    1418.00
 81.77    1414.02
 81.87    1477.00
 81.97    1358.42
 82.07    1445.00
 82.17    1280.00
 82.27    1270.25
 82.37    1142.72
 82.47    1125.00
 82.57    1035.00
 82.67    1019.00
 82.77     925.00
 82.87     851.73
 82.97     782.00
 83.07     828.25
 83.17     745.00
 83.27     652.00
 83.37     657.00
 83.47     639.00
 83.57     659.00
 83.67     621.97
 83.77     646.00
 83.87     607.00
 83.97     570.00
 84.07     683.00
 84.17     606.00
 84.27     718.17
 84.37     720.48
 84.47     697.00
 84.57     669.99
 84.67     637.00
 84.77     669.40
 84.87     648.00
 84.97     645.00
 85.07     638.00
 85.17     665.04
 85.27     562.00
 85.37     617.00
 85.47     632.00
 85.57     639.00
 85.67     662.60
 85.77     640.10
 85.87     616.00
 85.97     599.64
 86.07     579.14
 86.17     591.44
 86.27     589.00
 86.37     662.00
 86.47     591.00
 86.57     595.00
 86.67     612.92
 86.77     606.00
 86.87     607.58
 86.97     658.00
 87.07     666.00
 87.17     697.00
 87.27     725.00
 87.37     687.61
 87.47     715.00
 87.57     735.00
 87.67     713.00
 87.77     768.00
 87.87     710.07
 87.97     650.66
 88.07     734.00
 88.17     773.00
 88.27     707.11
 88.37     775.00
 88.47     749.34
 88.57     682.00
 88.67     647.86
 88.77     649.00
 88.87     626.25
 88.97     700.00
 89.07     646.00
 89.17     687.59
 89.27     669.76
 89.37     661.00
 89.47     648.79
 89.57     605.06
 89.67     700.92
 89.77     670.00
 89.87     668.00
 89.97     690.00
 90.07     625.41
 90.17     632.49
 90.27     648.07
 90.37     657.00
 90.47     681.00
 90.57     657.00
 90.67     606.05
 90.77     602.00
 90.87     664.18
 90.97     656.00
 91.07     610.00
 91.17     617.00
 91.27     612.00
 91.37     618.00
 91.47     597.00
 91.57     598.00
 91.67     564.67
 91.77     559.00
 91.87     623.00
 91.97     629.58
 92.07     649.00
 92.17     601.00
 92.27     592.29
 92.37     589.77
 92.47     567.43
 92.57     609.00
 92.67     635.79
 92.77     641.00
 92.87     623.00
 92.97     622.00
 93.07     667.00
 93.17     640.31
 93.27     647.00
 93.37     726.90
 93.47     674.22
 93.57     686.00
 93.67     769.00
 93.77     814.78
 93.87     838.00
 93.97     759.41
 94.07     809.00
 94.17     829.00
 94.27     871.00
 94.37     876.28
 94.47     940.00
 94.57     934.00
 94.67     861.39
 94.77     891.84
 94.87     957.00
 94.97     950.00
 95.07     947.00
 95.17    1006.00
 95.27    1032.00
 95.37    1048.00
 95.47    1045.22
 95.57    1038.34
 95.67    1074.00
 95.77    1090.00
 95.87    1055.00
 95.97    1041.32
 96.07     948.00
 96.17     905.00
 96.27     905.95
 96.37     887.00
 96.47     909.56
 96.57     822.00
 96.67     756.61
 96.77     815.00
 96.87     839.00
 96.97     751.64
 97.07     839.00
 97.17     860.00
 97.27     944.81
 97.37    1028.00
 97.47    1006.00
 97.57    1014.00
 97.67    1156.96
 97.77    1214.00
 97.87    1307.00
 97.97    1306.00
 98.07    1461.00
 98.17    1491.00
 98.27    1567.00
 98.37    1559.00
 98.47    1657.22
 98.57    1670.00
 98.67    1557.00
 98.77    1604.06
 98.87    1472.00
 98.97    1383.00
 99.07    1394.00
 99.17    1336.00
 99.27    1270.08
 99.37    1149.30
 99.47    1072.96
 99.57    1111.00
 99.67    1036.00
 99.77     999.00
 99.87     982.00
 99.97     990.00
100.07    1001.00
100.17    1095.00
100.27    1067.00
100.37    1145.00
100.47    1161.87
100.57    1302.00
100.67    1376.00
100.77    1467.00
100.87    1589.00
100.97    1749.00
101.07    1642.14
101.17    1841.00
101.27    1933.34
101.37    1959.00
101.47    2124.00
101.57    2096.00
101.67    2076.00
101.77    2179.80
101.87    2127.00
101.97    2144.00
102.07    2171.28
102.17    1972.35
102.27    1917.00
102.37    1853.08
102.47    1775.88
102.57    1820.53
102.67    1632.33
102.77    1568.00
102.87    1489.00
102.97    1568.67
103.07    1430.00
103.17    1409.44
103.27    1312.00
103.37    1336.00
103.47    1285.23
103.57    1208.00
103.67    1274.11
103.77    1233.00
103.87    1239.03
103.97    1108.00
104.07    1116.00
104.17    1099.72
104.27     982.00
104.37     990.00
104.47     902.96
104.57     888.00
104.67     837.00
104.77     839.00
104.87     808.35
104.97     732.25
105.07     759.00
105.17     699.00
105.27     726.11
105.37     618.72
105.47     678.00
105.57     614.29
105.67     656.87
105.77     578.39
105.87     602.00
105.97     609.00
106.07     634.22
106.17     608.15
106.27     632.89
106.37     626.00
106.47     584.54
106.57     642.32
106.67     657.00
106.77     644.92
106.87     605.08
106.97     628.00
107.07     606.00
107.17     684.00
107.27     685.03
107.37     662.00
107.47     674.00
107.57     753.72
107.67     692.00
107.77     729.00
107.87     734.83
107.97     713.42
108.07     760.00
108.17     794.00
108.27     835.83
108.37     756.00
108.47     783.00
108.57     770.00
108.67     812.68
108.77     757.60
108.87     808.00
108.97     785.00
109.07     779.00
109.17     765.73
109.27     810.51
109.37     798.48
109.47     748.00
109.57     786.00
109.67     745.79
109.77     753.26
109.87     772.00
109.97     760.00
110.07     731.00
110.17     765.00
110.27     768.00
110.37     754.00
110.47     777.00
110.57     742.00
110.67     748.00
110.77     713.00
110.87     662.00
110.97     732.00
111.07     696.00
111.17     729.00
111.27     658.50
111.37     705.76
111.47     668.00
111.57     660.00
111.67     635.00
111.77     654.00
111.87     672.22
111.97     612.00
112.07     618.00
112.17     611.00
112.27     629.00
112.37     609.14
112.47     639.00
112.57     585.00
112.67     597.55
112.77     619.00
112.87     633.00
112.97     606.63
113.07     571.13
113.17     610.00
113.27     646.00
113.37     628.00
113.47     667.83
113.57     587.00
113.67     624.00
113.77     643.54
113.87     685.10
113.97     637.00
114.07     630.00
114.17     644.02
114.27     622.00
114.37     698.00
114.47     689.00
114.57     700.00
114.67     735.09
114.77     709.00
114.87     726.13
114.97     820.16
115.07     769.00
115.17     907.12
115.27     916.00
115.37    1073.01
115.47    1103.00
115.57    1195.00
115.67    1313.00
115.77    1416.00
115.87    1625.00
115.97    1838.94
116.07    1983.09
116.17    2275.00
116.27    2474.00
116.37    2802.00
116.47    3037.00
116.57    3466.00
116.67    3642.00
116.77    4240.90
116.87    4559.70
116.97    4792.00
117.07    5221.00
117.17    5819.00
117.27    5939.00
117.37    6615.49
117.47    6639.00
117.57    7009.61
117.67    7356.00
117.77    7269.50
117.87    7602.00
117.97    7595.00
118.07    7421.98
118.17    7498.92
118.27    7225.00
118.37    7048.00
118.47    6562.00
118.57    6471.82
118.67    5985.00
118.77    5548.17
118.87    5337.60
118.97    5009.70
119.07    4483.73
119.17    4152.00
119.27    3750.89
119.37    3310.27
119.47    3211.00
119.57    2866.39
119.67    2554.40
119.77    2273.42
119.87    2073.55
119.97    1921.00
120.07    1700.49
120.17    1649.00
120.27    1460.00
120.37    1286.96
120.47    1317.00
120.57    1185.00
120.67    1153.00
120.77    1047.00
120.87    1009.00
120.97     928.43
121.07     912.58
121.17     799.92
121.27     794.00
121.37     876.00
121.47     732.81
121.57     803.15
121.67     782.00
121.77     740.00
121.87     692.00
121.97     690.00
122.07     745.70
122.17     677.00
122.27     659.80
122.37     706.00
122.47     689.00
122.57     705.00
122.67     675.00
122.77     742.00
122.87     674.00
122.97     679.00
123.07     694.00
123.17     681.00
123.27     766.40
123.37     696.52
123.47     712.00
123.57     788.35
123.67     732.00
123.77     771.00
123.87     803.00
123.97     755.00
124.07     774.00
124.17     747.00
124.27     781.00
124.37     787.00
124.47     724.58
124.57     739.04
124.67     827.00
124.77     827.00
124.87     807.29
124.97     794.00
