  9.97     686.06
 10.07     695.00
 10.17     727.00
 10.27     710.00
 10.37     660.00
 10.47     632.50
 10.57     671.09
 10.67     669.80
 10.77     752.00
 10.87     675.90
 10.97     735.00
 11.07     639.00
 11.17     691.00
 11.27     695.00
 11.37     735.00
 11.47     715.31
 11.57     718.46
 11.67     706.00
 11.77     659.86
 11.87     722.00
 11.97     770.00
 12.07     831.00
 12.17     745.54
 12.27     794.62
 12.37     780.00
 12.47     769.00
 12.57     727.00
 12.67     705.00
 12.77     690.00
 12.87     672.00
 12.97     726.92
 13.07     638.00
 13.17     646.00
 13.27     623.00
 13.37     651.56
 13.47     664.00
 13.57     667.00
 13.67     659.00
 13.77     641.00
 13.87     631.00
 13.97     663.04
 14.07     647.00
 14.17     708.79
 14.27     637.00
 14.37     615.00
 14.47     646.00
 14.57     604.00
 14.67     602.00
 14.77     604.00
 14.87     600.35
 14.97     659.86
 15.07     654.00
 15.17     658.00
 15.27     687.94
 15.37     657.51
 15.47     668.37
 15.57     696.17
 15.67     602.00
 15.77     655.00
 15.87     661.53
 15.97     689.10
 16.07     652.40
 16.17     608.00
 16.27     673.00
 16.37     595.61
 16.47     610.00
 16.57     680.00
 16.67     611.00
 16.77     626.00
 16.87     618.00
 16.97     627.68
 17.07     650.00
 17.17     666.15
 17.27     616.00
 17.37     619.00
 17.47     641.00
 17.57     657.98
 17.67     671.00
 17.77     633.00
 17.87     615.88
 17.97     637.00
 18.07     584.00
 18.17     640.01
 18.27     612.00
 18.37     637.00
 18.47     621.81
 18.57     577.15
 18.67     642.00
 18.77     587.13
 18.87     573.67
 18.97     606.00
 19.07     621.09
 19.17     637.00
 19.27     644.00
 19.37     634.00
 19.47     656.69
 19.57     621.00
 19.67     653.70
 19.77     604.00
 19.87     629.00
 19.97     605.98
 20.07     639.87
 20.17     599.00
 20.27     606.16
 20.37     626.21
 20.47     654.62
 20.57     605.00
 20.67     565.86
 20.77     560.00
 20.87     576.00
 20.97     578.00
 21.07     628.00
 21.17     595.00
 21.27     627.45
 21.37     586.00
 21.47     606.04
 21.57     633.00
 21.67     598.43
 21.77     572.00
 21.87     590.02
 21.97     578.00
 22.07     616.45
 22.17     649.00
 22.27     615.00
 22.37     660.17
 22.47     558.78
 22.57     610.96
 22.67     646.00
 22.77     559.00
 22.87     601.00
 22.97     578.00
 23.07     586.86
 23.17     586.00
 23.27     638.00
 23.37     610.00
 23.47     649.37
 23.57     605.00
 23.67     608.24
 23.77     647.00
 23.87     658.77
 23.97     630.00
 24.07     608.60
 24.17     620.00
 24.27     601.00
 24.37     602.00
 24.47     633.00
 24.57     623.00
 24.67     612.79
 24.77     683.00
 24.87     670.18
 24.97     695.00
 25.07     679.00
 25.17     695.00
 25.27     685.45
 25.37     650.00
 25.47     623.00
 25.57     624.53
 25.67     619.00
 25.77     578.36
 25.87     632.56
 25.97     591.00
 26.07     575.44
 26.17     639.00
 26.27     677.61
 26.37     618.59
 26.47     649.00
 26.57     620.74
 26.67     670.00
 26.77     633.33
 26.87     620.00
 26.97     633.00
 27.07     662.00
 27.17     647.13
 27.27     708.11
 27.37     730.00
 27.47     691.00
 27.57     768.02
 27.67     810.00
 27.77     880.00
 27.87    1060.71
 27.97    1290.00
 28.07    1806.00
 28.17    3052.73
 28.27    4367.00
 28.37    5594.00
 28.47    5864.24
 28.57    5013.56
 28.67    3904.00
 28.77    2874.00
 28.87    2653.00
 28.97    2892.25
 29.07    3303.42
 29.17    3391.00
 29.27    3067.00
 29.37    2245.10
 29.47    1602.88
 29.57    1171.00
 29.67     943.02
 29.77     872.00
 29.87     756.95
 29.97     772.00
 30.07     719.00
 30.17     772.00
 30.27     732.00
 30.37     694.00
 30.47     626.66
 30.57     680.00
 30.67     739.00
 30.77     645.23
 30.87     732.96
 30.97     714.90
 31.07     736.00
 31.17     727.00
 31.27     717.00
 31.37     721.85
 31.47     705.00
 31.57     669.00
 31.67     629.34
 31.77     614.78
 31.87     689.00
 31.97     613.00
 32.07     604.00
 32.17     621.00
 32.27     606.00
 32.37     560.00
 32.47     567.00
 32.57     604.00
 32.67     622.50
 32.77     628.52
 32.87     593.33
 32.97     632.00
 33.07     618.00
 33.17     625.00
 33.27     638.38
 33.37     627.00
 33.47     633.10
 33.57     662.00
 33.67     638.00
 33.77     715.00
 33.87     761.00
 33.97     807.36
 34.07     985.00
 34.17    1139.00
 34.27    1250.00
 34.37    1077.52
 34.47     969.59
 34.57     874.00
 34.67     752.00
 34.77     697.00
 34.87     683.00
 34.97     631.00
 35.07     605.14
 35.17     677.00
 35.27     611.00
 35.37     612.00
 35.47     542.00
 35.57     592.00
 35.67     595.00
 35.77     558.00
 35.87     558.20
 35.97     544.40
 36.07     573.00
 36.17     544.00
 36.27     548.00
 36.37     560.00
 36.47     618.72
 36.57     606.43
 36.67     601.00
 36.77     571.00
 36.87     576.00
 36.97     574.00
 37.07     613.17
 37.17     581.00
 37.27     563.00
 37.37     524.82
 37.47     624.57
 37.57     567.00
 37.67     616.73
 37.77     610.80
 37.87     623.00
 37.97     673.39
 38.07     620.15
 38.17     687.00
 38.27     738.58
 38.37     686.00
 38.47     636.00
 38.57     596.00
 38.67     591.00
 38.77     582.22
 38.87     599.00
 38.97     570.00
 39.07     571.69
 39.17     573.00
 39.27     607.00
 39.37     568.00
 39.47     537.24
 39.57     581.00
 39.67     555.00
 39.77     605.00
 39.87     557.00
 39.97     525.73
 40.07     544.53
 40.17     581.14
 40.27     565.00
 40.37     572.00
 40.47     538.00
 40.57     595.34
 40.67     565.00
 40.77     582.00
 40.87     590.15
 40.97     553.00
 41.07     541.00
 41.17     516.86
 41.27     537.00
 41.37     515.89
 41.47     498.00
 41.57     557.00
 41.67     560.00
 41.77     588.00
 41.87     532.00
 41.97     553.00
 42.07     584.71
 42.17     536.00
 42.27     545.00
 42.37     547.00
 42.47     578.00
 42.57     604.25
 42.67     630.50
 42.77     627.42
 42.87     625.51
 42.97     629.21
 43.07     649.40
 43.17     654.00
 43.27     586.00
 43.37     583.00
 43.47     596.64
 43.57     578.00
 43.67     550.00
 43.77     553.00
 43.87     581.00
 43.97     601.18
 44.07     571.00
 44.17     551.00
 44.27     550.74
 44.37     547.00
 44.47     591.00
 44.57     567.71
 44.67     581.00
 44.77     572.00
 44.87     529.00
 44.97     551.77
 45.07     540.96
 45.17     542.00
 45.27     566.00
 45.37     573.82
 45.47     546.00
 45.57     564.00
 45.67     553.00
 45.77     553.61
 45.87     601.00
 45.97     564.00
 46.07     633.00
 46.17     564.22
 46.27     624.00
 46.37     555.06
 46.47     595.00
 46.57     540.85
 46.67     600.00
 46.77     557.00
 46.87     553.00
 46.97     615.00
 47.07     604.00
 47.17     549.00
 47.27     576.00
 47.37     601.00
 47.47     606.91
 47.57     628.72
 47.67     550.00
 47.77     622.00
 47.87     656.00
 47.97     655.00
 48.07     651.00
 48.17     622.64
 48.27     715.31
 48.37     686.00
 48.47     606.74
 48.57     634.00
 48.67     619.74
 48.77     596.00
 48.87     593.00
 48.97     659.74
 49.07     630.83
 49.17     578.73
 49.27     622.00
 49.37     615.00
 49.47     659.00
 49.57     690.00
 49.67     682.00
 49.77     773.96
 49.87     921.44
 49.97     990.00
 50.07    1313.00
 50.17    1751.99
 50.27    2141.00
 50.37    2521.00
 50.47    2828.00
 50.57    3031.00
 50.67    2657.00
 50.77    2291.00
 50.87    1793.00
 50.97    1363.24
 51.07    1120.00
 51.17     959.72
 51.27     828.00
 51.37     729.00
 51.47     737.00
 51.57     692.00
 51.67     718.00
 51.77     699.00
 51.87     686.89
 51.97     658.93
 52.07     639.48
 52.17     697.00
 52.27     659.00
 52.37     643.28
 52.47     687.44
 52.57     634.66
 52.67     650.80
 52.77     682.21
 52.87     627.94
 52.97     605.63
 53.07     681.00
 53.17     744.00
 53.27     733.00
 53.37     874.00
 53.47     894.00
 53.57    1020.78
 53.67    1047.80
 53.77    1212.00
 53.87    1265.00
 53.97    1231.00
 54.07    1189.64
 54.17    1107.00
 54.27     967.00
 54.37     974.06
 54.47     797.00
 54.57     704.00
 54.67     710.00
 54.77     711.00
 54.87     631.11
 54.97     668.00
 55.07     618.00
 55.17     647.00
 55.27     617.86
 55.37     660.00
 55.47     685.68
 55.57     682.00
 55.67     591.00
 55.77     686.00
 55.87     697.73
 55.97     652.58
 56.07     657.00
 56.17     717.00
 56.27     700.49
 56.37     777.00
 56.47     840.00
 56.57    1000.00
 56.67    1167.00
 56.77    1443.33
 56.87    1665.75
 56.97    1964.81
 57.07    2332.82
 57.17    2556.04
 57.27    2744.00
 57.37    2648.58
 57.47    2413.06
 57.57    2097.67
 57.67    1693.00
 57.77    1425.00
 57.87    1175.06
 57.97     977.00
 58.07     876.00
 58.17     866.29
 58.27     765.00
 58.37     815.80
 58.47     800.00
 58.57     858.31
 58.67     879.21
 58.77     940.00
 58.87    1069.36
 58.97    1100.05
 59.07    1226.40
 59.17    1189.00
 59.27    1260.00
 59.37    1288.00
 59.47    1294.71
 59.57    1281.00
 59.67    1320.77
 59.77    1240.18
 59.87    1213.00
 59.97    1116.34
 60.07    1235.00
 60.17    1305.00
 60.27    1366.99
 60.37    1440.00
 60.47    1549.00
 60.57    1624.71
 60.67    1581.00
 60.77    1554.00
 60.87    1432.00
 60.97    1211.94
 61.07    1074.77
 61.17     958.44
 61.27     956.96
 61.37     772.59
 61.47     745.74
 61.57     810.00
 61.67     753.52
 61.77     783.00
 61.87     812.35
 61.97     923.07
 62.07    1003.00
 62.17    1184.79
 62.27    1342.00
 62.37    1468.00
 62.47    1550.00
 62.57    1541.00
 62.67    1578.00
 62.77    1565.71
 62.87    1452.09
 62.97    1261.00
 63.07    1090.00
 63.17     919.00
 63.27     933.51
 63.37     804.00
 63.47     754.00
 63.57     744.96
 63.67     716.00
 63.77     689.65
 63.87     748.00
 63.97     655.20
 64.07     720.00
 64.17     727.00
 64.27     696.60
 64.37     787.00
 64.47     779.50
 64.57     980.02
 64.67    1035.11
 64.77    1117.00
 64.87    1154.63
 64.97    1326.59
 65.07    1368.00
 65.17    1435.00
 65.27    1361.00
 65.37    1244.04
 65.47    1241.80
 65.57    1070.44
 65.67    1038.00
 65.77     945.00
 65.87     827.46
 65.97     819.00
 66.07     770.69
 66.17     805.06
 66.27     743.00
 66.37     622.00
 66.47     643.00
 66.57     675.79
 66.67     685.00
 66.77     653.00
 66.87     671.00
 66.97     626.00
 67.07     715.00
 67.17     702.00
 67.27     656.00
 67.37     756.00
 67.47     729.00
 67.57     800.00
 67.67     867.94
 67.77    1052.00
 67.87    1117.00
 67.97    1278.00
 68.07    1490.24
 68.17    1784.91
 68.27    2018.07
 68.37    2273.00
 68.47    2332.45
 68.57    2516.00
 68.67    2459.00
 68.77    2325.00
 68.87    2100.85
 68.97    1897.00
 69.07    1679.00
 69.17    1434.00
 69.27    1178.10
 69.37    1060.00
 69.47     967.00
 69.57     879.63
 69.67     859.00
 69.77     817.00
 69.87     717.00
 69.97     695.46
 70.07     717.00
 70.17     665.00
 70.27     666.00
 70.37     618.33
 70.47     649.00
 70.57     726.00
 70.67     644.00
 70.77     628.07
 70.87     693.00
 70.97     642.00
 71.07     666.00
 71.17     684.00
 71.27     715.00
 71.37     746.00
 71.47     791.77
 71.57     821.00
 71.67     907.00
 71.77     974.00
 71.87    1071.00
 71.97    1226.46
 72.07    1367.00
 72.17    1509.38
 72.27    1767.69
 72.37    1793.00
 72.47    1918.00
 72.57    2030.00
 72.67    1942.00
 72.77    1911.03
 72.87    1667.00
 72.97    1507.00
 73.07    1287.00
 73.17    1234.00
 73.27    1017.00
 73.37     933.00
 73.47     814.00
 73.57     785.81
 73.67     731.00
 73.77     724.65
 73.87     695.00
 73.97     653.25
 74.07     692.00
 74.17     681.00
 74.27     673.72
 74.37     666.00
 74.47     679.60
 74.57     642.00
 74.67     595.63
 74.77     663.00
 74.87     670.84
 74.97     684.00
 75.07     666.00
 75.17     650.05
 75.27     744.00
 75.37     651.00
 75.47     679.36
 75.57     654.68
 75.67     720.00
 75.77     664.00
 75.87     650.00
 75.97     643.00
 76.07     685.00
 76.17     646.00
 76.27     726.32
 76.37     728.00
 76.47     765.18
 76.57     713.97
 76.67     740.00
 76.77     878.00
 76.87     882.00
 76.97     882.00
 77.07     878.19
 77.17     866.00
 77.27     839.17
 77.37     872.00
 77.47     871.00
 77.57     791.00
 77.67     805.00
 77.77     751.00
 77.87     731.00
 77.97     657.00
 78.07     716.69
 78.17     680.00
 78.27     674.69
 78.37     630.34
 78.47     562.00
 78.57     587.00
 78.67     589.00
 78.77     614.00
 78.87     597.00
 78.97     613.00
 79.07     610.00
 79.17     566.00
 79.27     545.00
 79.37     631.54
 79.47     584.00
 79.57     565.55
 79.67     577.00
 79.77     572.00
 79.87     579.00
 79.97     609.18
 80.07     584.00
 80.17     616.00
 80.27     663.00
 80.37     632.00
 80.47     656.00
 80.57     708.00
 80.67     696.89
 80.77     721.00
 80.87     838.05
 80.97     879.00
 81.07     917.00
 81.17     979.64
 81.27    1040.71
 81.37    1124.00
 81.47    1243.00
 81.57    1214.00
 81.67    1240.00
 81.77    1156.31
 81.87    1222.00
 81.97    1110.50
 82.07    1173.74
 82.17    1063.00
 82.27    1038.00
 82.37     970.00
 82.47     969.00
 82.57     893.86
 82.67     828.00
 82.77     762.00
 82.87     739.00
 82.97     689.00
 83.07     743.49
 83.17     646.00
 83.27     613.00
 83.37     642.00
 83.47     684.91
 83.57     620.00
 83.67     635.00
 83.77     593.00
 83.87     616.00
 83.97     620.75
 84.07     684.65
 84.17     578.00
 84.27     658.24
 84.37     654.08
 84.47     655.23
 84.57     653.10
 84.67     623.17
 84.77     683.20
 84.87     613.00
 84.97     593.00
 85.07     587.00
 85.17     594.67
 85.27     588.00
 85.37     617.39
 85.47     599.39
 85.57     579.00
 85.67     617.00
 85.77     546.00
 85.87     594.00
 85.97     547.00
 86.07     610.00
 86.17     609.00
 86.27     592.45
 86.37     612.00
 86.47     642.00
 86.57     644.00
 86.67     597.00
 86.77     617.00
 86.87     615.23
 86.97     655.00
 87.07     626.09
 87.17     698.00
 87.27     633.00
 87.37     622.00
 87.47     623.05
 87.57     667.29
 87.67     741.00
 87.77     715.00
 87.87     663.84
 87.97     665.00
 88.07     772.00
 88.17     680.41
 88.27     741.23
 88.37     716.00
 88.47     695.00
 88.57     654.00
 88.67     680.00
 88.77     651.58
 88.87     615.00
 88.97     663.00
 89.07     621.98
 89.17     687.96
 89.27     671.00
 89.37     652.26
 89.47     635.00
 89.57     663.00
 89.67     601.91
 89.77     649.00
 89.87     625.54
 89.97     666.86
 90.07     636.00
 90.17     664.00
 90.27     654.60
 90.37     679.00
 90.47     626.00
 90.57     640.00
 90.67     586.00
 90.77     608.00
 90.87     606.00
 90.97     652.00
 91.07     618.49
 91.17     535.65
 91.27     606.00
 91.37     563.00
 91.47     636.00
 91.57     564.04
 91.67     597.00
 91.77     578.00
 91.87     590.82
 91.97     554.00
 92.07     563.00
 92.17     575.00
 92.27     601.81
 92.37     585.05
 92.47     570.00
 92.57     591.00
 92.67     593.29
 92.77     605.00
 92.87     616.00
 92.97     686.54
 93.07     574.00
 93.17     661.00
 93.27     624.92
 93.37     740.00
 93.47     740.00
 93.57     737.00
 93.67     740.00
 93.77     729.00
 93.87     848.00
 93.97     838.00
 94.07     810.40
 94.17     819.00
 94.27     829.00
 94.37     823.00
 94.47     834.89
 94.57     889.00
 94.67     847.97
 94.77     876.00
 94.87     885.00
 94.97     906.00
 95.07     936.00
 95.17     992.00
 95.27    1000.25
 95.37    1011.00
 95.47     961.00
 95.57    1023.00
 95.67     966.00
 95.77     973.00
 95.87     981.00
 95.97     869.70
 96.07     890.00
 96.17     860.00
 96.27     916.00
 96.37     763.55
 96.47     751.57
 96.57     750.00
 96.67     812.00
 96.77     788.80
 96.87     839.00
 96.97     837.00
 97.07     880.00
 97.17     895.00
 97.27     981.72
 97.37     944.46
 97.47    1084.14
 97.57    1167.00
 97.67    1184.00
 97.77    1296.23
 97.87    1389.00
 97.97    1506.00
 98.07    1472.00
 98.17    1490.64
 98.27    1560.00
 98.37    1512.87
 98.47    1501.00
 98.57    1507.36
 98.67    1435.40
 98.77    1427.25
 98.87    1404.00
 98.97    1371.00
 99.07    1254.00
 99.17    1132.00
 99.27    1074.00
 99.37    1051.00
 99.47     997.00
 99.57    1022.58
 99.67     958.00
 99.77     975.00
 99.87     954.00
 99.97     969.00
100.07    1037.00
100.17    1023.00
100.27    1123.89
100.37    1241.00
100.47    1229.34
100.57    1322.00
100.67    1462.91
100.77    1563.00
100.87    1695.20
100.97    1754.00
101.07    1894.00
101.17    1956.00
101.27    1901.18
101.37    2028.00
101.47    2119.00
101.57    2147.37
101.67    2119.00
101.77    2066.00
101.87    2069.00
101.97    1932.17
102.07    1973.00
102.17    1846.91
102.27    1812.92
102.37    1693.00
102.47    1616.00
102.57    1518.00
102.67    1519.00
102.77    1474.07
102.87    1249.00
102.97    1333.00
103.07    1229.00
103.17    1262.00
103.27    1283.00
103.37    1228.00
103.47    1147.00
103.57    1175.34
103.67    1092.05
103.77    1093.00
103.87    1021.67
103.97    1020.60
104.07     939.00
104.17     970.00
104.27     853.00
104.37     883.00
104.47     895.00
104.57     767.00
104.67     797.00
104.77     761.00
104.87     697.00
104.97     710.00
105.07     676.00
105.17     630.78
105.27     667.00
105.37     654.00
105.47     638.00
105.57     607.00
105.67     590.00
105.77     621.09
105.87     649.00
105.97     557.00
106.07     619.00
106.17     555.64
106.27     579.45
106.37     637.00
106.47     628.00
106.57     609.00
106.67     594.23
106.77     639.00
106.87     626.00
106.97     647.00
107.07     644.00
107.17     685.00
107.27     614.36
107.37     668.00
107.47     693.00
107.57     703.00
107.67     761.54
107.77     718.35
107.87     735.11
107.97     740.00
108.07     731.00
108.17     780.49
108.27     746.65
108.37     714.00
108.47     770.00
108.57     751.05
108.67     767.00
108.77     746.00
108.87     783.90
108.97     711.89
109.07     700.81
109.17     757.87
109.27     767.82
109.37     720.58
109.47     767.00
109.57     714.00
109.67     685.00
109.77     747.72
109.87     766.00
109.97     753.00
110.07     725.42
110.17     741.00
110.27     800.98
110.37     705.84
110.47     721.00
110.57     683.00
110.67     696.45
110.77     688.33
110.87     682.00
110.97     657.00
111.07     679.00
111.17     665.00
111.27     676.00
111.37     615.00
111.47     595.17
111.57     599.00
111.67     621.00
111.77     632.73
111.87     590.54
111.97     580.34
112.07     611.00
112.17     558.19
112.27     631.00
112.37     543.00
112.47     620.00
112.57     582.25
112.67     576.00
112.77     633.00
112.87     575.00
112.97     612.00
113.07     602.01
113.17     617.42
113.27     605.76
113.37     557.00
113.47     594.00
113.57     547.00
113.67     610.98
113.77     675.00
113.87     636.10
113.97     646.00
114.07     638.00
114.17     650.00
114.27     708.62
114.37     626.22
114.47     649.00
114.57     710.00
114.67     765.00
114.77     710.95
114.87     775.50
114.97     897.56
115.07     939.48
115.17    1007.76
115.27     990.99
115.37    1069.00
115.47    1292.13
115.57    1398.17
115.67    1529.09
115.77    1711.00
115.87    1929.00
115.97    2171.86
116.07    2487.00
116.17    2794.37
116.27    3064.00
116.37    3396.00
116.47    3663.00
116.57    4110.00
116.67    4437.50
116.77    4956.00
116.87    5121.00
116.97    5504.00
117.07    6079.12
117.17    6500.00
117.27    6703.00
117.37    6999.00
117.47    7222.34
117.57    7239.00
117.67    7362.44
117.77    7431.86
117.87    7478.55
117.97    7211.00
118.07    7106.00
118.17    6897.74
118.27    6470.66
118.37    6213.00
118.47    5944.90
118.57    5449.61
118.67    5098.00
118.77    4731.00
118.87    4246.96
118.97    3984.08
119.07    3694.00
119.17    3339.00
119.27    3092.00
119.37    2574.46
119.47    2401.00
119.57    2234.00
119.67    1960.86
119.77    1740.67
119.87    1667.96
119.97    1384.03
120.07    1317.40
120.17    1354.00
120.27    1137.90
120.37    1124.40
120.47    1016.00
120.57     955.54
120.67     930.00
120.77     900.00
120.87     784.00
120.97     797.00
121.07     801.00
121.17     763.00
121.27     715.56
121.37     743.61
121.47     762.87
121.57     712.55
121.67     663.00
121.77     724.00
121.87     691.00
121.97     707.00
122.07     736.59
122.17     667.30
122.27     583.00
122.37     655.00
122.47     664.00
122.57     660.00
122.67     653.00
122.77     725.31
122.87     722.35
122.97     676.46
123.07     661.65
123.17     734.00
123.27     693.00
123.37     712.00
123.47     709.10
123.57     728.00
123.67     739.00
123.77     764.00
123.87     793.67
123.97     738.96
124.07     761.00
124.17     750.65
124.27     726.00
124.37     800.19
124.47     699.54
124.57     757.00
124.67     771.00
124.77     757.81
124.87     764.00
124.97     705.88
