  9.97     736.00
 10.07     626.44
 10.17     698.00
 10.27     707.00
 10.37     639.62
 10.47     646.00
 10.57     732.00
 10.67     644.82
 10.77     688.00
 10.87     647.00
 10.97     668.00
 11.07     665.61
 11.17     659.84
 11.27     702.00
 11.37     639.28
 11.47     699.00
 11.57     714.53
 11.67     686.00
 11.77     680.00
 11.87     775.00
 11.97     770.00
 12.07     816.00
 12.17     888.00
 12.27     883.00
 12.37     785.00
 12.47     791.00
 12.57     694.00
 12.67     736.41
 12.77     659.00
 12.87     661.00
 12.97     648.00
 13.07     658.00
 13.17     617.16
 13.27     656.00
 13.37     677.81
 13.47     653.45
 13.57     613.79
 13.67     625.00
 13.77     673.90
 13.87     640.00
 13.97     607.59
 14.07     705.00
 14.17     685.42
 14.27     662.00
 14.37     632.00
 14.47     620.00
 14.57     653.00
 14.67     657.81
 14.77     631.00
 14.87     638.17
 14.97     666.00
 15.07     622.87
 15.17     646.00
 15.27     692.90
 15.37     650.00
 15.47     635.00
 15.57     658.31
 15.67     662.00
 15.77     641.00
 15.87     619.28
 15.97     674.77
 16.07     690.10
 16.17     598.51
 16.27     587.00
 16.37     667.11
 16.47     641.00
 16.57     640.00
 16.67     630.00
 16.77     601.00
 16.87     622.00
 16.97     623.00
 17.07     610.77
 17.17     630.00
 17.27     625.00
 17.37     576.00
 17.47     599.44
 17.57     621.00
 17.67     604.67
 17.77     656.01
 17.87     663.28
 17.97     608.00
 18.07     603.33
 18.17     620.47
 18.27     605.67
 18.37     599.00
 18.47     630.00
 18.57     612.00
 18.67     604.90
 18.77     620.00
 18.87     623.85
 18.97     630.00
 19.07     637.40
 19.17     585.00
 19.27     641.91
 19.37     587.00
 19.47     641.46
 19.57     617.00
 19.67     612.00
 19.77     593.49
 19.87     601.00
 19.97     592.49
 20.07     624.00
 20.17     587.00
 20.27     615.00
 20.37     614.00
 20.47     572.38
 20.57     667.00
 20.67     605.00
 20.77     617.00
 20.87     604.78
 20.97     571.00
 21.07     557.00
 21.17     634.00
 21.27     599.00
 21.37     620.00
 21.47     598.00
 21.57     620.00
 21.67     627.00
 21.77     600.18
 21.87     651.01
 21.97     618.00
 22.07     587.00
 22.17     629.04
 22.27     575.00
 22.37     596.00
 22.47     635.00
 22.57     643.03
 22.67     628.00
 22.77     621.00
 22.87     584.00
 22.97     566.00
 23.07     665.00
 23.17     637.38
 23.27     580.71
 23.37     592.00
 23.47     600.00
 23.57     658.18
 23.67     587.98
 23.77     608.00
 23.87     612.52
 23.97     598.00
 24.07     612.94
 24.17     658.00
 24.27     625.00
 24.37     662.00
 24.47     630.27
 24.57     673.61
 24.67     682.10
 24.77     642.91
 24.87     635.89
 24.97     648.17
 25.07     717.00
 25.17     661.00
 25.27     668.00
 25.37     625.69
 25.47     630.00
 25.57     637.00
 25.67     591.00
 25.77     593.21
 25.87     667.12
 25.97     586.00
 26.07     628.00
 26.17     655.85
 26.27     573.33
 26.37     631.02
 26.47     619.00
 26.57     644.00
 26.67     579.00
 26.77     647.50
 26.87     649.00
 26.97     671.70
 27.07     682.00
 27.17     624.57
 27.27     663.00
 27.37     645.46
 27.47     752.00
 27.57     765.00
 27.67     813.92
 27.77     832.00
 27.87     949.00
 27.97    1236.00
 28.07    2020.98
 28.17    2872.00
 28.27    4391.15
 28.37    5708.83
 28.47    5936.00
 28.57    5036.00
 28.67    3760.00
 28.77    2839.00
 28.87    2552.72
 28.97    2966.00
 29.07    3380.00
 29.17    3383.85
 29.27    2834.00
 29.37    2187.00
 29.47    1546.00
 29.57    1211.60
 29.67     916.00
 29.77     855.00
 29.87     841.00
 29.97     743.00
 30.07     744.00
 30.17     716.72
 30.27     717.00
 30.37     653.00
 30.47     754.00
 30.57     626.18
 30.67     707.00
 30.77     687.00
 30.87     626.69
 30.97     707.79
 31.07     744.00
 31.17     789.12
 31.27     719.80
 31.37     733.00
 31.47     608.17
 31.57     603.91
 31.67     628.86
 31.77     629.00
 31.87     635.00
 31.97     644.00
 32.07     619.00
 32.17     612.00
 32.27     629.00
 32.37     583.51
 32.47     596.72
 32.57     655.00
 32.67     611.04
 32.77     603.00
 32.87     619.00
 32.97     577.00
 33.07     582.00
 33.17     637.00
 33.27     620.85
 33.37     662.00
 33.47     637.00
 33.57     709.00
 33.67     607.00
 33.77     724.00
 33.87     792.18
 33.97     867.00
 34.07    1013.00
 34.17    1055.00
 34.27    1140.61
 34.37    1142.00
 34.47    1059.08
 34.57     895.00
 34.67     808.68
 34.77     747.00
 34.87     643.00
 34.97     630.69
 35.07     620.00
 35.17     607.84
 35.27     639.58
 35.37     587.71
 35.47     586.00
 35.57     640.00
 35.67     592.46
 35.77     594.00
 35.87     557.06
 35.97     584.00
 36.07     598.04
 36.17     560.00
 36.27     635.00
 36.37     583.07
 36.47     601.00
 36.57     579.00
 36.67     549.00
 36.77     578.00
 36.87     595.00
 36.97     557.00
 37.07     539.00
 37.17     557.55
 37.27     532.55
 37.37     625.00
 37.47     611.00
 37.57     610.96
 37.67     526.00
 37.77     618.25
 37.87     659.62
 37.97     683.27
 38.07     698.88
 38.17     739.43
 38.27     746.22
 38.37     714.00
 38.47     634.00
 38.57     675.00
 38.67     653.00
 38.77     563.85
 38.87     622.41
 38.97     577.00
 39.07     597.00
 39.17     555.00
 39.27     534.00
 39.37     621.29
 39.47     582.61
 39.57     601.11
 39.67     563.00
 39.77     576.00
 39.87     604.00
 39.97     581.00
 40.07     589.00
 40.17     589.00
 40.27     588.00
 40.37     505.00
 40.47     550.00
 40.57     564.66
 40.67     555.70
 40.77     564.00
 40.87     586.00
 40.97     570.00
 41.07     553.03
 41.17     537.00
 41.27     565.72
 41.37     548.00
 41.47     572.17
 41.57     576.00
 41.67     600.78
 41.77     609.00
 41.87     561.00
 41.97     532.00
 42.07     581.00
 42.17     584.74
 42.27     548.00
 42.37     597.00
 42.47     556.07
 42.57     620.51
 42.67     620.00
 42.77     611.96
 42.87     665.00
 42.97     713.66
 43.07     698.00
 43.17     683.00
 43.27     627.42
 43.37     617.00
 43.47     628.00
 43.57     603.56
 43.67     624.00
 43.77     620.00
 43.87     555.00
 43.97     537.23
 44.07     581.00
 44.17     580.00
 44.27     613.60
 44.37     570.00
 44.47     604.00
 44.57     535.80
 44.67     558.26
 44.77     577.00
 44.87     611.59
 44.97     558.00
 45.07     559.74
 45.17     571.00
 45.27     565.96
 45.37     523.06
 45.47     582.00
 45.57     527.00
 45.67     555.62
 45.77     566.62
 45.87     585.00
 45.97     585.97
 46.07     539.00
 46.17     560.58
 46.27     594.75
 46.37     618.05
 46.47     566.00
 46.57     591.00
 46.67     615.65
 46.77     572.00
 46.87     526.98
 46.97     561.00
 47.07     571.00
 47.17     532.59
 47.27     553.00
 47.37     583.00
 47.47     619.00
 47.57     589.80
 47.67     549.32
 47.77     588.89
 47.87     637.00
 47.97     647.00
 48.07     620.46
 48.17     715.00
 48.27     666.00
 48.37     651.00
 48.47     622.00
 48.57     621.00
 48.67     594.00
 48.77     588.67
 48.87     632.00
 48.97     638.00
 49.07     555.00
 49.17     606.00
 49.27     620.00
 49.37     608.66
 49.47     642.00
 49.57     635.00
 49.67     733.88
 49.77     708.00
 49.87     829.00
 49.97    1029.00
 50.07    1402.32
 50.17    1690.00
 50.27    2257.58
 50.37    2606.81
 50.47    2707.00
 50.57    2796.00
 50.67    2503.00
 50.77    2240.00
 50.87    1850.61
 50.97    1394.00
 51.07    1115.04
 51.17     943.00
 51.27     829.98
 51.37     763.00
 51.47     728.00
 51.57     702.36
 51.67     715.00
 51.77     672.00
 51.87     643.59
 51.97     636.00
 52.07     688.00
 52.17     607.48
 52.27     654.00
 52.37     638.00
 52.47     706.00
 52.57     656.00
 52.67     653.00
 52.77     634.00
 52.87     612.00
 52.97     651.37
 53.07     679.16
 53.17     721.00
 53.27     757.43
 53.37     742.00
 53.47     886.43
 53.57    1066.00
 53.67    1084.00
 53.77    1144.00
 53.87    1248.00
 53.97    1282.00
 54.07    1287.72
 54.17    1155.14
 54.27    1046.00
 54.37     847.00
 54.47     844.00
 54.57     758.00
 54.67     713.00
 54.77     721.85
 54.87     673.00
 54.97     606.72
 55.07     652.00
 55.17     628.71
 55.27     630.00
 55.37     640.00
 55.47     664.97
 55.57     637.99
 55.67     669.66
 55.77     712.00
 55.87     630.00
 55.97     614.03
 56.07     690.00
 56.17     729.17
 56.27     688.88
 56.37     735.00
 56.47     852.20
 56.57    1012.00
 56.67    1109.00
 56.77    1390.00
 56.87    1727.00
 56.97    2019.00
 57.07    2384.00
 57.17    2667.00
 57.27    2771.46
 57.37    2643.00
 57.47    2421.00
 57.57    2075.00
 57.67    1692.00
 57.77    1434.00
 57.87    1173.00
 57.97     997.00
 58.07     888.00
 58.17     824.27
 58.27     762.00
 58.37     767.96
 58.47     789.83
 58.57     780.00
 58.67     825.00
 58.77     910.32
 58.87    1010.00
 58.97    1067.00
 59.07    1145.00
 59.17    1238.00
 59.27    1263.12
 59.37    1323.59
 59.47    1341.00
 59.57    1320.00
 59.67    1210.57
 59.77    1138.33
 59.87    1129.43
 59.97    1197.00
 60.07    1239.00
 60.17    1271.19
 60.27    1368.00
 60.37    1377.09
 60.47    1523.00
 60.57    1611.00
 60.67    1637.00
 60.77    1560.00
 60.87    1374.95
 60.97    1268.00
 61.07    1151.00
 61.17    1038.01
 61.27     960.71
 61.37     812.00
 61.47     776.00
 61.57     740.00
 61.67     778.00
 61.77     834.00
 61.87     840.52
 61.97     922.00
 62.07    1023.00
 62.17    1159.00
 62.27    1347.00
 62.37    1539.30
 62.47    1571.00
 62.57    1678.76
 62.67    1658.85
 62.77    1555.00
 62.87    1457.48
 62.97    1195.00
 63.07    1101.00
 63.17     999.63
 63.27     842.00
 63.37     811.00
 63.47     754.00
 63.57     725.00
 63.67     674.00
 63.77     682.00
 63.87     699.00
 63.97     662.00
 64.07     675.00
 64.17     677.00
 64.27     747.00
 64.37     792.00
 64.47     803.76
 64.57     913.00
 64.67     989.00
 64.77    1135.88
 64.87    1304.00
 64.97    1390.00
 65.07    1298.06
 65.17    1435.34
 65.27    1383.00
 65.37    1361.52
 65.47    1288.00
 65.57    1120.37
 65.67    1008.00
 65.77     921.12
 65.87     867.00
 65.97     812.00
 66.07     754.24
 66.17     718.00
 66.27     676.00
 66.37     697.00
 66.47     699.78
 66.57     659.78
 66.67     712.91
 66.77     640.58
 66.87     679.99
 66.97     666.00
 67.07     623.00
 67.17     648.76
 67.27     674.00
 67.37     694.00
 67.47     732.20
 67.57     777.00
 67.67     930.29
 67.77     992.00
 67.87    1086.00
 67.97    1337.00
 68.07    1503.00
 68.17    1777.00
 68.27    1981.00
 68.37    2253.00
 68.47    2483.00
 68.57    2575.00
 68.67    2437.00
 68.77    2301.86
 68.87    2086.00
 68.97    1868.00
 69.07    1554.73
 69.17    1403.00
 69.27    1255.00
 69.37    1086.41
 69.47     925.00
 69.57     809.00
 69.67     744.62
 69.77     833.00
 69.87     750.00
 69.97     636.33
 70.07     622.75
 70.17     698.00
 70.27     704.46
 70.37     691.00
 70.47     676.00
 70.57     686.00
 70.67     675.00
 70.77     659.00
 70.87     688.78
 70.97     649.00
 71.07     659.00
 71.17     667.00
 71.27     683.00
 71.37     739.00
 71.47     781.59
 71.57     821.30
 71.67     834.00
 71.77     974.00
 71.87    1145.00
 71.97    1211.00
 72.07    1344.00
 72.17    1531.00
 72.27    1701.14
 72.37    1784.60
 72.47    1930.00
 72.57    1992.00
 72.67    1896.17
 72.77    1782.77
 72.87    1766.25
 72.97    1499.20
 73.07    1322.00
 73.17    1225.00
 73.27     988.00
 73.37     995.69
 73.47     807.42
 73.57     746.00
 73.67     690.00
 73.77     717.00
 73.87     673.00
 73.97     695.00
 74.07     675.00
 74.17     687.00
 74.27     614.29
 74.37     637.00
 74.47     640.00
 74.57     604.67
 74.67     674.00
 74.77     663.00
 74.87     662.00
 74.97     654.00
 75.07     655.00
 75.17     619.72
 75.27     696.00
 75.37     715.00
 75.47     710.00
 75.57     659.52
 75.67     676.00
 75.77     677.65
 75.87     647.00
 75.97     663.00
 76.07     621.00
 76.17     649.49
 76.27     634.40
 76.37     714.28
 76.47     738.00
 76.57     759.00
 76.67     852.36
 76.77     822.00
 76.87     894.00
 76.97     915.00
 77.07     930.00
 77.17     945.00
 77.27     881.00
 77.37     829.00
 77.47     820.00
 77.57     836.23
 77.67     762.00
 77.77     748.00
 77.87     684.00
 77.97     679.00
 78.07     622.15
 78.17     649.62
 78.27     650.00
 78.37     673.00
 78.47     650.44
 78.57     640.00
 78.67     638.00
 78.77     572.49
 78.87     555.46
 78.97     564.00
 79.07     584.00
 79.17     574.00
 79.27     601.00
 79.37     641.34
 79.47     569.96
 79.57     598.43
 79.67     589.00
 79.77     558.34
 79.87     590.00
 79.97     666.00
 80.07     644.00
 80.17     566.00
 80.27     618.10
 80.37     651.00
 80.47     642.00
 80.57     672.43
 80.67     687.00
 80.77     752.71
 80.87     832.00
 80.97     855.00
 81.07     854.00
 81.17     930.00
 81.27    1059.00
 81.37    1107.00
 81.47    1147.34
 81.57    1098.08
 81.67    1142.33
 81.77    1144.89
 81.87    1137.79
 81.97    1199.79
 82.07    1171.00
 82.17    1077.00
 82.27    1021.84
 82.37     983.00
 82.47     880.23
 82.57     879.38
 82.67     838.00
 82.77     826.85
 82.87     761.00
 82.97     743.00
 83.07     760.43
 83.17     728.49
 83.27     648.00
 83.37     655.00
 83.47     637.00
 83.57     637.95
 83.67     677.10
 83.77     613.00
 83.87     598.00
 83.97     602.00
 84.07     615.00
 84.17     635.00
 84.27     620.00
 84.37     638.00
 84.47     615.12
 84.57     653.00
 84.67     562.00
 84.77     649.00
 84.87     606.00
 84.97     669.98
 85.07     601.00
 85.17     596.00
 85.27     602.00
 85.37     578.00
 85.47     584.00
 85.57     595.17
 85.67     631.50
 85.77     588.00
 85.87     627.00
 85.97     579.55
 86.07     613.00
 86.17     591.00
 86.27     620.00
 86.37     627.91
 86.47     591.00
 86.57     588.91
 86.67     616.00
 86.77     655.00
 86.87     640.00
 86.97     645.94
 87.07     608.00
 87.17     653.00
 87.27     676.11
 87.37     689.00
 87.47     677.00
 87.57     687.00
 87.67     679.38
 87.77     659.56
 87.87     722.23
 87.97     709.00
 88.07     683.44
 88.17     715.00
 88.27     720.00
 88.37     709.08
 88.47     725.00
 88.57     629.39
 88.67     665.00
 88.77     641.00
 88.87     614.00
 88.97     642.00
 89.07     614.00
 89.17     586.00
 89.27     583.00
 89.37     667.40
 89.47     607.00
 89.57     649.63
 89.67     635.00
 89.77     643.48
 89.87     664.68
 89.97     652.00
 90.07     686.93
 90.17     644.00
 90.27     612.80
 90.37     677.00
 90.47     618.00
 90.57     555.00
 90.67     604.00
 90.77     647.00
 90.87     582.81
 90.97     621.00
 91.07     594.14
 91.17     577.49
 91.27     582.00
 91.37     601.93
 91.47     573.00
 91.57     573.00
 91.67     599.00
 91.77     573.00
 91.87     590.88
 91.97     585.00
 92.07     539.72
 92.17     566.00
 92.27     594.82
 92.37     593.98
 92.47     619.00
 92.57     587.36
 92.67     602.00
 92.77     582.00
 92.87     641.88
 92.97     681.53
 93.07     651.00
 93.17     638.00
 93.27     645.77
 93.37     721.80
 93.47     712.00
 93.57     739.00
 93.67     702.75
 93.77     793.00
 93.87     851.31
 93.97     820.00
 94.07     774.43
 94.17     816.00
 94.27     848.89
 94.37     866.00
 94.47     895.00
 94.57     897.76
 94.67     935.00
 94.77     911.00
 94.87     907.00
 94.97     984.00
 95.07     960.16
 95.17     924.71
 95.27    1038.97
 95.37    1054.06
 95.47    1056.77
 95.57    1002.00
 95.67     940.00
 95.77     882.00
 95.87     948.00
 95.97     974.00
 96.07     865.76
 96.17     845.94
 96.27     912.00
 96.37     870.00
 96.47     801.00
 96.57     751.00
 96.67     818.00
 96.77     830.00
 96.87     817.00
 96.97     763.59
 97.07     916.00
 97.17     934.00
 97.27    1040.00
 97.37    1050.00
 97.47    1027.00
 97.57    1092.12
 97.67    1230.89
 97.77    1303.00
 97.87    1367.00
 97.97    1451.39
 98.07    1567.00
 98.17    1459.65
 98.27    1611.00
 98.37    1483.00
 98.47    1498.18
 98.57    1536.00
 98.67    1464.00
 98.77    1423.00
 98.87    1299.22
 98.97    1282.00
 99.07    1259.00
 99.17    1145.19
 99.27    1073.00
 99.37    1031.21
 99.47    1034.00
 99.57     969.29
 99.67     925.00
 99.77     948.00
 99.87    1013.00
 99.97    1000.00
100.07    1036.33
100.17    1075.00
100.27    1214.00
100.37    1277.00
100.47    1350.00
100.57    1389.00
100.67    1491.00
100.77    1617.00
100.87    1707.00
100.97    1784.00
101.07    1829.00
101.17    2027.00
101.27    1911.20
101.37    1952.93
101.47    2093.00
101.57    2129.00
101.67    2122.00
101.77    2087.00
101.87    2056.00
101.97    1981.00
102.07    1950.00
102.17    1772.00
102.27    1869.15
102.37    1539.00
102.47    1724.15
102.57    1516.10
102.67    1512.88
102.77    1391.00
102.87    1420.94
102.97    1332.53
103.07    1332.53
103.17    1244.00
103.27    1287.02
103.37    1179.00
103.47    1278.43
103.57    1227.09
103.67    1143.00
103.77    1124.00
103.87    1138.98
103.97    1006.45
104.07    1015.00
104.17     929.43
104.27     944.00
104.37     905.00
104.47     839.00
104.57     844.69
104.67     806.00
104.77     731.06
104.87     758.00
104.97     709.00
105.07     654.00
105.17     601.12
105.27     618.75
105.37     661.00
105.47     649.00
105.57     572.71
105.67     607.00
105.77     608.00
105.87     566.98
105.97     618.00
106.07     575.32
106.17     598.00
106.27     617.00
106.37     601.45
106.47     607.00
106.57     639.00
106.67     664.00
106.77     569.23
106.87     639.00
106.97     634.00
107.07     627.00
107.17     638.80
107.27     655.99
107.37     671.00
107.47     710.71
107.57     700.00
107.67     723.05
107.77     705.25
107.87     752.00
107.97     743.00
108.07     702.00
108.17     810.56
108.27     736.00
108.37     745.00
108.47     750.00
108.57     706.97
108.67     781.00
108.77     741.03
108.87     765.94
108.97     692.00
109.07     744.77
109.17     757.00
109.27     758.31
109.37     749.00
109.47     711.21
109.57     708.00
109.67     749.14
109.77     743.00
109.87     730.00
109.97     731.00
110.07     703.17
110.17     692.62
110.27     731.00
110.37     781.85
110.47     722.00
110.57     734.00
110.67     698.10
110.77     671.00
110.87     664.00
110.97     652.00
111.07     641.00
111.17     641.00
111.27     625.00
111.37     584.57
111.47     555.00
111.57     638.44
111.67     625.00
111.77     607.00
111.87     624.89
111.97     561.00
112.07     574.00
112.17     610.00
112.27     622.00
112.37     571.41
112.47     571.25
112.57     611.00
112.67     576.43
112.77     595.65
112.87     603.00
112.97     621.00
113.07     545.11
113.17     601.00
113.27     554.39
113.37     608.36
113.47     620.97
113.57     654.15
113.67     624.00
113.77     609.00
113.87     581.07
113.97     624.50
114.07     618.00
114.17     659.00
114.27     628.00
114.37     634.00
114.47     678.00
114.57     716.00
114.67     706.80
114.77     776.66
114.87     819.00
114.97     872.71
115.07     905.00
115.17     939.00
115.27    1017.00
115.37    1091.74
115.47    1264.00
115.57    1402.00
115.67    1572.00
115.77    1772.96
115.87    1910.00
115.97    2281.00
116.07    2542.00
116.17    2732.49
116.27    3057.13
116.37    3473.00
116.47    3641.00
116.57    4110.00
116.67    4647.33
116.77    4807.91
116.87    5288.66
116.97    5765.02
117.07    5935.94
117.17    6311.00
117.27    6631.00
117.37    6957.00
117.47    7223.27
117.57    7309.62
117.67    7328.67
117.77    7400.00
117.87    7373.00
117.97    7260.12
118.07    6978.00
118.17    6677.08
118.27    6454.00
118.37    5969.56
118.47    5548.00
118.57    5239.19
118.67    5083.00
118.77    4699.00
118.87    4325.00
118.97    3882.44
119.07    3637.00
119.17    3256.00
119.27    2870.17
119.37    2624.00
119.47    2422.77
119.57    2227.00
119.67    1991.83
119.77    1765.00
119.87    1541.51
119.97    1539.00
120.07    1358.12
120.17    1291.42
120.27    1188.00
120.37    1153.00
120.47    1002.50
120.57     963.42
120.67     871.91
120.77     886.00
120.87     822.00
120.97     842.13
121.07     812.00
121.17     720.00
121.27     700.00
121.37     721.00
121.47     639.00
121.57     686.00
121.67     699.00
121.77     658.00
121.87     625.00
121.97     646.00
122.07     679.53
122.17     631.44
122.27     690.78
122.37     667.00
122.47     659.00
122.57     609.00
122.67     694.98
122.77     663.25
122.87     678.00
122.97     713.32
123.07     648.23
123.17     701.00
123.27     736.00
123.37     767.00
123.47     727.00
123.57     723.00
123.67     713.90
123.77     728.00
123.87     720.60
123.97     726.00
124.07     692.00
124.17     790.36
124.27     776.00
124.37     765.00
124.47     783.73
124.57     790.00
124.67     742.30
124.77     734.00
124.87     739.00
124.97     744.00
