  9.97     706.00
 10.07     764.00
 10.17     780.00
 10.27     713.00
 10.37     679.00
 10.47     713.00
 10.57     713.87
 10.67     700.00
 10.77     768.00
 10.87     776.00
 10.97     761.45
 11.07     782.00
 11.17     696.73
 11.27     673.81
 11.37     722.00
 11.47     717.04
 11.57     754.00
 11.67     762.00
 11.77     786.00
 11.87     727.83
 11.97     740.49
 12.07     776.19
 12.17     765.55
 12.27     886.00
 12.37     866.00
 12.47     771.77
 12.57     727.23
 12.67     724.00
 12.77     704.00
 12.87     696.00
 12.97     693.42
 13.07     634.00
 13.17     742.00
 13.27     653.00
 13.37     654.00
 13.47     663.00
 13.57     707.41
 13.67     705.19
 13.77     675.63
 13.87     706.77
 13.97     705.00
 14.07     717.00
 14.17     710.25
 14.27     736.45
 14.37     678.56
 14.47     676.00
 14.57     653.00
 14.67     649.00
 14.77     680.00
 14.87     659.00
 14.97     675.11
 15.07     680.00
 15.17     617.00
 15.27     669.30
 15.37     676.00
 15.47     653.60
 15.57     688.18
 15.67     691.00
 15.77     641.00
 15.87     661.00
 15.97     680.00
 16.07     630.56
 16.17     618.00
 16.27     690.00
 16.37     636.88
 16.47     632.87
 16.57     662.00
 16.67     688.00
 16.77     682.03
 16.87     688.67
 16.97     696.33
 17.07     710.83
 17.17     708.66
 17.27     634.85
 17.37     672.00
 17.47     649.00
 17.57     644.00
 17.67     627.00
 17.77     641.00
 17.87     685.00
 17.97     657.00
 18.07     651.00
 18.17     608.48
 18.27     691.00
 18.37     665.00
 18.47     629.00
 18.57     676.00
 18.67     658.00
 18.77     692.41
 18.87     700.00
 18.97     622.76
 19.07     694.30
 19.17     676.78
 19.27     674.00
 19.37     643.00
 19.47     625.00
 19.57     614.00
 19.67     619.98
 19.77     614.00
 19.87     635.00
 19.97     697.19
 20.07     647.00
 20.17     691.85
 20.27     701.00
 20.37     637.00
 20.47     607.00
 20.57     621.98
 20.67     606.00
 20.77     620.00
 20.87     667.00
 20.97     606.90
 21.07     611.10
 21.17     644.00
 21.27     613.79
 21.37     596.37
 21.47     678.04
 21.57     674.00
 21.67     643.00
 21.77     631.00
 21.87     646.00
 21.97     615.00
 22.07     650.00
 22.17     622.00
 22.27     638.09
 22.37     648.00
 22.47     648.28
 22.57     594.00
 22.67     637.78
 22.77     683.69
 22.87     601.20
 22.97     622.00
 23.07     575.00
 23.17     618.00
 23.27     609.81
 23.37     621.23
 23.47     621.00
 23.57     661.87
 23.67     622.02
 23.77     596.37
 23.87     659.64
 23.97     653.00
 24.07     630.00
 24.17     681.00
 24.27     664.42
 24.37     638.00
 24.47     606.07
 24.57     685.00
 24.67     696.26
 24.77     633.17
 24.87     713.00
 24.97     671.65
 25.07     718.00
 25.17     683.00
 25.27     663.00
 25.37     687.00
 25.47     660.77
 25.57     709.00
 25.67     608.19
 25.77     696.80
 25.87     693.00
 25.97     665.00
 26.07     658.00
 26.17     610.49
 26.27     681.00
 26.37     658.50
 26.47     717.38
 26.57     635.00
 26.67     654.00
 26.77     670.28
 26.87     657.00
 26.97     690.01
 27.07     675.00
 27.17     753.29
 27.27     696.93
 27.37     789.00
 27.47     761.00
 27.57     804.00
 27.67     819.79
 27.77     942.00
 27.87    1065.00
 27.97    1397.00
 28.07    2017.00
 28.17    3259.00
 28.27    5150.00
 28.37    7856.00
 28.47    9020.00
 28.57    8534.00
 28.67    6686.00
 28.77    4714.00
 28.87    3732.32
 28.97    4061.17
 29.07    4629.00
 29.17    4855.07
 29.27    4574.00
 29.37    3549.91
 29.47    2532.00
 29.57    1883.61
 29.67    1298.00
 29.77     977.43
 29.87     982.00
 29.97     877.58
 30.07     826.00
 30.17     792.00
 30.27     760.00
 30.37     763.00
 30.47     709.00
 30.57     727.00
 30.67     672.08
 30.77     729.14
 30.87     762.00
 30.97     782.00
 31.07     801.64
 31.17     851.00
 31.27     777.00
 31.37     799.00
 31.47     735.00
 31.57     715.00
 31.67     692.00
 31.77     622.93
 31.87     645.00
 31.97     684.25
 32.07     674.00
 32.17     613.00
 32.27     682.00
 32.37     608.00
 32.47     617.00
 32.57     704.00
 32.67     642.00
 32.77     625.24
 32.87     655.38
 32.97     672.00
 33.07     663.00
 33.17     653.00
 33.27     617.80
 33.37     660.40
 33.47     684.00
 33.57     619.05
 33.67     699.00
 33.77     694.95
 33.87     765.00
 33.97     830.00
 34.07     930.76
 34.17    1112.00
 34.27    1199.57
 34.37    1276.00
 34.47    1225.73
 34.57     990.00
 34.67     965.00
 34.77     861.00
 34.87     785.10
 34.97     695.00
 35.07     709.97
 35.17     677.00
 35.27     726.00
 35.37     703.00
 35.47     653.00
 35.57     590.06
 35.67     648.14
 35.77     657.00
 35.87     621.00
 35.97     649.00
 36.07     640.00
 36.17     669.00
 36.27     660.00
 36.37     633.00
 36.47     623.42
 36.57     610.73
 36.67     678.00
 36.77     599.77
 36.87     623.32
 36.97     648.53
 37.07     663.00
 37.17     607.62
 37.27     662.00
 37.37     595.00
 37.47     620.00
 37.57     599.00
 37.67     600.00
 37.77     685.00
 37.87     707.00
 37.97     683.00
 38.07     683.00
 38.17     754.00
 38.27     750.29
 38.37     776.00
 38.47     758.00
 38.57     752.00
 38.67     692.00
 38.77     654.00
 38.87     647.88
 38.97     660.00
 39.07     577.78
 39.17     599.00
 39.27     637.00
 39.37     662.84
 39.47     663.48
 39.57     614.00
 39.67     596.00
 39.77     649.53
 39.87     645.92
 39.97     650.00
 40.07     598.00
 40.17     640.00
 40.27     611.00
 40.37     632.00
 40.47     566.23
 40.57     603.00
 40.67     593.00
 40.77     630.20
 40.87     573.00
 40.97     569.00
 41.07     582.00
 41.17     606.01
 41.27     604.00
 41.37     568.00
 41.47     647.00
 41.57     603.00
 41.67     630.00
 41.77     577.00
 41.87     607.68
 41.97     621.31
 42.07     610.22
 42.17     601.00
 42.27     575.27
 42.37     577.31
 42.47     620.91
 42.57     690.98
 42.67     637.00
 42.77     637.00
 42.87     669.17
 42.97     674.00
 43.07     719.00
 43.17     723.77
 43.27     658.00
 43.37     684.53
 43.47     607.00
 43.57     692.00
 43.67     607.00
 43.77     679.00
 43.87     625.00
 43.97     583.00
 44.07     596.04
 44.17     648.01
 44.27     618.72
 44.37     607.00
 44.47     638.00
 44.57     663.32
 44.67     661.84
 44.77     654.53
 44.87     619.00
 44.97     632.00
 45.07     627.00
 45.17     636.00
 45.27     614.00
 45.37     648.00
 45.47     624.00
 45.57     632.00
 45.67     660.15
 45.77     601.00
 45.87     653.61
 45.97     588.00
 46.07     633.00
 46.17     608.48
 46.27     611.84
 46.37     612.77
 46.47     625.00
 46.57     645.62
 46.67     617.00
 46.77     630.95
 46.87     597.00
 46.97     584.00
 47.07     597.00
 47.17     621.00
 47.27     637.00
 47.37     664.88
 47.47     672.00
 47.57     653.00
 47.67     618.00
 47.77     625.00
 47.87     649.00
 47.97     661.00
 48.07     697.00
 48.17     720.88
 48.27     681.99
 48.37     745.58
 48.47     703.00
 48.57     714.99
 48.67     653.16
 48.77     632.77
 48.87     636.00
 48.97     636.00
 49.07     638.54
 49.17     662.00
 49.27     671.77
 49.37     622.00
 49.47     669.04
 49.57     711.00
 49.67     673.13
 49.77     703.27
 49.87     770.00
 49.97     902.00
 50.07    1149.07
 50.17    1493.00
 50.27    1941.00
 50.37    2558.22
 50.47    2905.64
 50.57    3193.43
 50.67    3237.00
 50.77    2940.19
 50.87    2481.00
 50.97    1971.00
 51.07    1507.00
 51.17    1234.00
 51.27     956.52
 51.37     876.00
 51.47     854.00
 51.57     839.27
 51.67     796.00
 51.77     785.77
 51.87     722.00
 51.97     723.00
 52.07     750.32
 52.17     709.53
 52.27     727.80
 52.37     728.12
 52.47     741.00
 52.57     741.00
 52.67     688.00
 52.77     717.00
 52.87     681.98
 52.97     733.00
 53.07     711.00
 53.17     724.00
 53.27     755.00
 53.37     859.00
 53.47     838.46
 53.57     949.00
 53.67    1061.00
 53.77    1136.00
 53.87    1192.50
 53.97    1261.00
 54.07    1310.73
 54.17    1365.14
 54.27    1174.00
 54.37    1116.44
 54.47    1002.00
 54.57     927.86
 54.67     808.44
 54.77     757.00
 54.87     754.00
 54.97     681.00
 55.07     672.57
 55.17     694.57
 55.27     666.00
 55.37     672.00
 55.47     651.00
 55.57     678.29
 55.67     703.00
 55.77     696.00
 55.87     697.00
 55.97     676.40
 56.07     718.00
 56.17     749.00
 56.27     764.95
 56.37     775.00
 56.47     803.00
 56.57     959.09
 56.67     983.00
 56.77    1131.00
 56.87    1405.82
 56.97    1647.00
 57.07    2068.00
 57.17    2388.00
 57.27    2625.17
 57.37    2757.00
 57.47    2653.15
 57.57    2534.00
 57.67    2230.99
 57.77    1820.00
 57.87    1441.66
 57.97    1235.00
 58.07    1148.00
 58.17     959.00
 58.27     796.00
 58.37     841.00
 58.47     767.00
 58.57     859.00
 58.67     832.00
 58.77     943.27
 58.87     942.00
 58.97    1013.00
 59.07    1144.00
 59.17    1190.00
 59.27    1282.00
 59.37    1322.00
 59.47    1436.89
 59.57    1380.00
 59.67    1337.00
 59.77    1324.00
 59.87    1330.60
 59.97    1250.00
 60.07    1255.00
 60.17    1305.00
 60.27    1326.00
 60.37    1387.00
 60.47    1477.00
 60.57    1598.00
 60.67    1596.00
 60.77    1676.00
 60.87    1676.00
 60.97    1558.12
 61.07    1368.00
 61.17    1121.00
 61.27    1047.00
 61.37    1016.78
 61.47     903.00
 61.57     816.00
 61.67     807.00
 61.77     853.00
 61.87     899.45
 61.97     932.00
 62.07    1083.66
 62.17    1098.37
 62.27    1280.36
 62.37    1514.00
 62.47    1681.23
 62.57    1755.00
 62.67    1827.00
 62.77    1865.00
 62.87    1825.15
 62.97    1632.93
 63.07    1485.00
 63.17    1243.00
 63.27    1168.56
 63.37    1072.77
 63.47     966.91
 63.57     821.00
 63.67     808.96
 63.77     755.37
 63.87     724.41
 63.97     748.31
 64.07     800.00
 64.17     751.00
 64.27     755.00
 64.37     789.21
 64.47     879.00
 64.57     896.46
 64.67    1014.00
 64.77    1092.00
 64.87    1162.02
 64.97    1273.71
 65.07    1495.73
 65.17    1521.00
 65.27    1600.66
 65.37    1639.68
 65.47    1521.53
 65.57    1548.00
 65.67    1355.00
 65.77    1232.00
 65.87    1128.45
 65.97    1078.69
 66.07     920.00
 66.17     891.69
 66.27     864.80
 66.37     765.01
 66.47     825.35
 66.57     730.88
 66.67     745.00
 66.77     701.00
 66.87     762.59
 66.97     698.00
 67.07     653.00
 67.17     699.00
 67.27     778.10
 67.37     749.00
 67.47     718.00
 67.57     825.38
 67.67     878.79
 67.77     948.00
 67.87     958.00
 67.97    1149.00
 68.07    1262.00
 68.17    1515.00
 68.27    1825.63
 68.37    2007.00
 68.47    2190.09
 68.57    2418.00
 68.67    2642.96
 68.77    2552.00
 68.87    2538.72
 68.97    2274.34
 69.07    2090.00
 69.17    1776.00
 69.27    1606.00
 69.37    1344.00
 69.47    1192.26
 69.57    1070.00
 69.67     965.05
 69.77     852.17
 69.87     903.00
 69.97     864.00
 70.07     774.00
 70.17     778.00
 70.27     797.00
 70.37     749.00
 70.47     747.00
 70.57     720.00
 70.67     718.00
 70.77     728.00
 70.87     739.00
 70.97     740.35
 71.07     720.00
 71.17     759.00
 71.27     717.00
 71.37     825.00
 71.47     748.00
 71.57     764.00
 71.67     827.00
 71.77     857.00
 71.87     937.70
 71.97    1120.00
 72.07    1168.00
 72.17    1346.00
 72.27    1511.00
 72.37    1690.00
 72.47    1834.71
 72.57    2049.36
 72.67    2020.00
 72.77    2090.99
 72.87    1915.13
 72.97    1787.96
 73.07    1650.00
 73.17    1487.00
 73.27    1289.27
 73.37    1217.00
 73.47    1057.00
 73.57     955.00
 73.67     905.00
 73.77     817.69
 73.87     764.00
 73.97     791.00
 74.07     715.85
 74.17     802.00
 74.27     695.00
 74.37     728.22
 74.47     639.00
 74.57     665.00
 74.67     668.00
 74.77     732.00
 74.87     667.00
 74.97     715.00
 75.07     661.67
 75.17     719.00
 75.27     728.00
 75.37     764.00
 75.47     708.00
 75.57     671.97
 75.67     772.00
 75.77     668.00
 75.87     725.00
 75.97     709.00
 76.07     688.00
 76.17     687.00
 76.27     756.00
 76.37     761.00
 76.47     745.00
 76.57     806.25
 76.67     819.00
 76.77     914.13
 76.87     854.00
 76.97     941.00
 77.07    1027.00
 77.17    1064.59
 77.27     996.52
 77.37    1010.00
 77.47    1000.00
 77.57    1014.00
 77.67     970.00
 77.77     943.89
 77.87     807.61
 77.97     809.00
 78.07     802.00
 78.17     737.00
 78.27     735.47
 78.37     686.00
 78.47     687.07
 78.57     670.00
 78.67     693.00
 78.77     623.00
 78.87     666.66
 78.97     659.00
 79.07     629.00
 79.17     617.17
 79.27     675.00
 79.37     688.00
 79.47     614.57
 79.57     634.00
 79.67     646.00
 79.77     619.57
 79.87     606.93
 79.97     640.00
 80.07     614.00
 80.17     623.00
 80.27     673.00
 80.37     704.00
 80.47     664.91
 80.57     728.00
 80.67     739.00
 80.77     803.68
 80.87     888.43
 80.97     928.00
 81.07    1067.00
 81.17    1077.00
 81.27    1173.00
 81.37    1266.00
 81.47    1431.00
 81.57    1301.79
 81.67    1464.13
 81.77    1381.87
 81.87    1575.00
 81.97    1559.00
 82.07    1507.31
 82.17    1474.00
 82.27    1244.84
 82.37    1335.00
 82.47    1200.00
 82.57    1104.00
 82.67    1082.00
 82.77     931.53
 82.87     878.00
 82.97     902.34
 83.07     804.00
 83.17     728.00
 83.27     729.00
 83.37     781.41
 83.47     705.00
 83.57     640.00
 83.67     727.74
 83.77     669.00
 83.87     658.00
 83.97     652.00
 84.07     721.80
 84.17     659.00
 84.27     697.00
 84.37     657.00
 84.47     692.00
 84.57     701.09
 84.67     700.19
 84.77     701.94
 84.87     721.91
 84.97     671.00
 85.07     655.00
 85.17     706.95
 85.27     676.00
 85.37     676.00
 85.47     606.00
 85.57     617.00
 85.67     624.93
 85.77     608.46
 85.87     632.54
 85.97     686.00
 86.07     598.00
 86.17     651.64
 86.27     612.00
 86.37     652.00
 86.47     620.00
 86.57     652.00
 86.67     641.84
 86.77     613.48
 86.87     659.19
 86.97     691.00
 87.07     629.00
 87.17     706.00
 87.27     659.57
 87.37     710.00
 87.47     689.00
 87.57     711.00
 87.67     725.00
 87.77     749.00
 87.87     674.73
 87.97     750.00
 88.07     675.00
 88.17     711.83
 88.27     716.47
 88.37     698.26
 88.47     779.00
 88.57     718.00
 88.67     693.31
 88.77     739.00
 88.87     707.88
 88.97     705.00
 89.07     690.00
 89.17     690.23
 89.27     641.19
 89.37     720.00
 89.47     679.93
 89.57     677.00
 89.67     701.56
 89.77     633.49
 89.87     650.00
 89.97     720.00
 90.07     660.63
 90.17     725.00
 90.27     724.92
 90.37     657.00
 90.47     657.88
 90.57     643.52
 90.67     687.00
 90.77     647.00
 90.87     706.00
 90.97     658.00
 91.07     607.00
 91.17     650.71
 91.27     580.89
 91.37     605.00
 91.47     614.00
 91.57     618.00
 91.67     628.00
 91.77     643.45
 91.87     626.00
 91.97     628.15
 92.07     608.00
 92.17     641.00
 92.27     630.87
 92.37     606.00
 92.47     660.34
 92.57     620.00
 92.67     601.00
 92.77     633.89
 92.87     658.00
 92.97     674.00
 93.07     605.34
 93.17     668.00
 93.27     689.82
 93.37     693.00
 93.47     708.00
 93.57     719.00
 93.67     743.63
 93.77     790.00
 93.87     804.00
 93.97     821.00
 94.07     801.00
 94.17     862.00
 94.27     832.00
 94.37     921.40
 94.47     950.00
 94.57     893.00
 94.67     937.86
 94.77     943.42
 94.87     938.73
 94.97     933.72
 95.07    1019.00
 95.17    1039.00
 95.27    1089.00
 95.37    1077.00
 95.47    1062.00
 95.57    1138.00
 95.67    1068.61
 95.77    1026.12
 95.87    1038.00
 95.97    1095.00
 96.07    1006.66
 96.17     959.51
 96.27     996.00
 96.37     937.00
 96.47     900.00
 96.57     947.00
 96.67     840.91
 96.77     870.00
 96.87     848.00
 96.97     868.00
 97.07     928.00
 97.17     863.00
 97.27     969.00
 97.37     992.00
 97.47     982.65
 97.57    1012.00
 97.67    1081.00
 97.77    1209.00
 97.87    1276.00
 97.97    1386.00
 98.07    1455.00
 98.17    1488.80
 98.27    1601.00
 98.37    1606.00
 98.47    1669.00
 98.57    1640.00
 98.67    1704.75
 98.77    1571.00
 98.87    1622.00
 98.97    1583.37
 99.07    1428.55
 99.17    1392.00
 99.27    1350.15
 99.37    1338.00
 99.47    1191.00
 99.57    1149.00
 99.67    1121.82
 99.77     997.10
 99.87    1017.00
 99.97    1041.00
100.07    1016.00
100.17    1048.80
100.27    1012.00
100.37    1134.69
100.47    1214.60
100.57    1260.00
100.67    1258.54
100.77    1477.08
100.87    1569.00
100.97    1563.08
101.07    1643.62
101.17    1700.07
101.27    1959.57
101.37    2028.45
101.47    1957.00
101.57    2010.74
101.67    2090.97
101.77    2217.05
101.87    2252.00
101.97    2184.00
102.07    2252.00
102.17    2137.00
102.27    2176.06
102.37    2100.00
102.47    1969.28
102.57    1897.92
102.67    1686.00
102.77    1638.00
102.87    1634.00
102.97    1623.00
103.07    1543.00
103.17    1448.00
103.27    1461.00
103.37    1462.63
103.47    1289.06
103.57    1270.00
103.67    1252.00
103.77    1247.99
103.87    1163.00
103.97    1170.86
104.07    1141.20
104.17    1185.00
104.27    1075.00
104.37    1016.00
104.47    1031.00
104.57     893.01
104.67     895.48
104.77     847.29
104.87     886.33
104.97     774.00
105.07     828.00
105.17     680.73
105.27     742.00
105.37     722.00
105.47     688.90
105.57     709.70
105.67     686.00
105.77     658.66
105.87     663.93
105.97     649.61
106.07     668.93
106.17     637.04
106.27     597.71
106.37     639.00
106.47     656.17
106.57     643.79
106.67     635.33
106.77     639.65
106.87     667.00
106.97     656.00
107.07     605.00
107.17     667.00
107.27     701.00
107.37     709.00
107.47     721.00
107.57     718.93
107.67     721.00
107.77     731.00
107.87     747.41
107.97     725.82
108.07     732.00
108.17     781.94
108.27     781.00
108.37     739.75
108.47     807.71
108.57     805.00
108.67     777.95
108.77     799.00
108.87     788.00
108.97     784.00
109.07     805.87
109.17     854.19
109.27     752.00
109.37     804.00
109.47     799.00
109.57     811.00
109.67     831.32
109.77     855.70
109.87     785.00
109.97     776.00
110.07     730.00
110.17     776.00
110.27     776.00
110.37     778.00
110.47     857.10
110.57     795.00
110.67     800.51
110.77     715.00
110.87     755.55
110.97     772.92
111.07     713.00
111.17     726.00
111.27     705.00
111.37     645.00
111.47     703.00
111.57     668.00
111.67     708.65
111.77     687.00
111.87     648.00
111.97     695.00
112.07     688.89
112.17     623.20
112.27     607.04
112.37     665.42
112.47     628.57
112.57     600.16
112.67     638.27
112.77     670.67
112.87     580.07
112.97     698.00
113.07     683.00
113.17     623.72
113.27     656.99
113.37     647.00
113.47     642.00
113.57     647.61
113.67     595.13
113.77     610.00
113.87     630.00
113.97     638.00
114.07     703.57
114.17     706.00
114.27     701.48
114.37     700.00
114.47     645.95
114.57     716.01
114.67     767.00
114.77     686.00
114.87     744.00
114.97     832.34
115.07     829.95
115.17     854.00
115.27     900.00
115.37     979.00
115.47    1041.00
115.57    1127.00
115.67    1218.00
115.77    1369.00
115.87    1542.39
115.97    1710.97
116.07    1836.00
116.17    2093.00
116.27    2324.00
116.37    2702.00
116.47    2887.00
116.57    3086.62
116.67    3401.07
116.77    3894.00
116.87    4303.00
116.97    4713.00
117.07    4928.76
117.17    5393.00
117.27    5795.00
117.37    6142.00
117.47    6513.00
117.57    6888.00
117.67    7141.00
117.77    7338.00
117.87    7505.00
117.97    7405.00
118.07    7475.00
118.17    7535.00
118.27    7624.00
118.37    7106.00
118.47    6932.00
118.57    6890.00
118.67    6485.00
118.77    6095.00
118.87    5536.00
118.97    5263.00
119.07    4981.00
119.17    4512.11
119.27    4184.67
119.37    3904.00
119.47    3626.00
119.57    3162.00
119.67    2956.72
119.77    2617.00
119.87    2516.00
119.97    2133.00
120.07    1975.27
120.17    1841.00
120.27    1624.00
120.37    1442.91
120.47    1385.14
120.57    1311.00
120.67    1226.00
120.77    1070.71
120.87    1071.00
120.97     995.00
121.07    1008.00
121.17     845.66
121.27     824.56
121.37     832.14
121.47     851.74
121.57     797.71
121.67     812.00
121.77     745.08
121.87     774.00
121.97     775.28
122.07     705.00
122.17     685.92
122.27     725.00
122.37     695.15
122.47     743.00
122.57     756.38
122.67     739.00
122.77     683.00
122.87     722.00
122.97     701.62
123.07     673.00
123.17     748.02
123.27     690.51
123.37     726.00
123.47     693.00
123.57     776.00
123.67     759.00
123.77     777.00
123.87     767.00
123.97     791.89
124.07     795.00
124.17     786.64
124.27     806.00
124.37     852.00
124.47     857.00
124.57     851.00
124.67     795.00
124.77     843.00
124.87     857.00
124.97     864.00
