  9.97     738.43
 10.07     704.00
 10.17     762.00
 10.27     696.00
 10.37     728.00
 10.47     684.00
 10.57     684.00
 10.67     742.00
 10.77     741.00
 10.87     707.00
 10.97     744.00
 11.07     696.00
 11.17     742.00
 11.27     752.83
 11.37     729.00
 11.47     720.00
 11.57     708.00
 11.67     673.15
 11.77     658.59
 11.87     667.75
 11.97     749.79
 12.07     807.00
 12.17     845.00
 12.27     848.95
 12.37     837.76
 12.47     827.06
 12.57     719.00
 12.67     710.83
 12.77     713.00
 12.87     690.00
 12.97     690.00
 13.07     678.00
 13.17     710.67
 13.27     596.00
 13.37     671.00
 13.47     674.49
 13.57     649.00
 13.67     639.00
 13.77     704.79
 13.87     652.00
 13.97     678.00
 14.07     646.88
 14.17     713.13
 14.27     630.00
 14.37     691.36
 14.47     674.00
 14.57     663.00
 14.67     692.64
 14.77     687.28
 14.87     632.00
 14.97     613.00
 15.07     689.00
 15.17     679.00
 15.27     629.54
 15.37     625.60
 15.47     625.00
 15.57     633.70
 15.67     626.00
 15.77     680.71
 15.87     612.00
 15.97     673.00
 16.07     636.00
 16.17     680.00
 16.27     688.99
 16.37     624.74
 16.47     624.00
 16.57     661.00
 16.67     631.00
 16.77     623.00
 16.87     614.00
 16.97     662.00
 17.07     685.00
 17.17     660.59
 17.27     634.00
 17.37     681.00
 17.47     634.00
 17.57     665.00
 17.67     647.00
 17.77     661.91
 17.87     642.00
 17.97     663.00
 18.07     621.00
 18.17     653.85
 18.27     689.80
 18.37     669.00
 18.47     624.75
 18.57     685.66
 18.67     628.00
 18.77     620.00
 18.87     647.00
 18.97     628.57
 19.07     668.00
 19.17     604.00
 19.27     664.56
 19.37     612.07
 19.47     687.00
 19.57     620.00
 19.67     575.00
 19.77     652.67
 19.87     639.71
 19.97     638.19
 20.07     639.63
 20.17     589.00
 20.27     623.00
 20.37     609.00
 20.47     606.16
 20.57     593.00
 20.67     625.34
 20.77     627.00
 20.87     613.00
 20.97     608.00
 21.07     601.37
 21.17     598.00
 21.27     650.00
 21.37     617.00
 21.47     603.00
 21.57     647.00
 21.67     607.00
 21.77     613.88
 21.87     606.00
 21.97     666.56
 22.07     562.00
 22.17     624.00
 22.27     655.23
 22.37     667.00
 22.47     594.14
 22.57     603.43
 22.67     646.00
 22.77     652.00
 22.87     619.00
 22.97     591.00
 23.07     597.79
 23.17     611.00
 23.27     594.01
 23.37     633.08
 23.47     589.93
 23.57     602.00
 23.67     598.00
 23.77     610.00
 23.87     601.68
 23.97     611.00
 24.07     622.74
 24.17     624.00
 24.27     584.03
 24.37     636.00
 24.47     673.66
 24.57     668.00
 24.67     657.87
 24.77     715.66
 24.87     718.00
 24.97     730.00
 25.07     696.03
 25.17     659.71
 25.27     682.00
 25.37     615.00
 25.47     621.59
 25.57     611.00
 25.67     589.00
 25.77     611.00
 25.87     621.00
 25.97     657.47
 26.07     608.76
 26.17     642.00
 26.27     623.00
 26.37     639.54
 26.47     657.09
 26.57     629.22
 26.67     666.00
 26.77     650.00
 26.87     642.00
 26.97     645.00
 27.07     720.10
 27.17     649.28
 27.27     670.22
 27.37     684.00
 27.47     696.67
 27.57     740.68
 27.67     797.93
 27.77     807.00
 27.87    1005.00
 27.97    1269.00
 28.07    1913.00
 28.17    3354.15
 28.27    4980.00
 28.37    6540.00
 28.47    7021.74
 28.57    6403.00
 28.67    4682.97
 28.77    3514.00
 28.87    3114.33
 28.97    3462.00
 29.07    3767.98
 29.17    4014.00
 29.27    3476.00
 29.37    2776.84
 29.47    1984.00
 29.57    1366.00
 29.67    1052.00
 29.77     913.00
 29.87     861.00
 29.97     792.40
 30.07     782.00
 30.17     747.00
 30.27     681.00
 30.37     634.53
 30.47     647.18
 30.57     698.00
 30.67     680.00
 30.77     674.00
 30.87     671.00
 30.97     766.00
 31.07     754.00
 31.17     761.00
 31.27     750.00
 31.37     748.00
 31.47     659.53
 31.57     676.00
 31.67     682.83
 31.77     641.00
 31.87     641.00
 31.97     615.51
 32.07     647.00
 32.17     581.42
 32.27     602.00
 32.37     586.00
 32.47     632.00
 32.57     632.00
 32.67     563.42
 32.77     648.31
 32.87     580.00
 32.97     614.78
 33.07     577.00
 33.17     655.00
 33.27     607.00
 33.37     617.00
 33.47     653.00
 33.57     611.00
 33.67     669.00
 33.77     697.00
 33.87     797.00
 33.97     859.14
 34.07     936.00
 34.17    1049.61
 34.27    1227.00
 34.37    1267.00
 34.47    1164.00
 34.57     946.93
 34.67     820.00
 34.77     755.58
 34.87     750.00
 34.97     686.00
 35.07     697.00
 35.17     612.00
 35.27     579.44
 35.37     629.00
 35.47     638.00
 35.57     640.24
 35.67     591.00
 35.77     619.51
 35.87     618.00
 35.97     543.00
 36.07     551.34
 36.17     626.00
 36.27     573.00
 36.37     632.42
 36.47     625.00
 36.57     586.00
 36.67     624.55
 36.77     604.00
 36.87     603.80
 36.97     625.00
 37.07     554.00
 37.17     574.60
 37.27     579.16
 37.37     618.44
 37.47     561.00
 37.57     614.00
 37.67     580.79
 37.77     644.00
 37.87     678.49
 37.97     664.00
 38.07     710.99
 38.17     705.00
 38.27     747.52
 38.37     694.49
 38.47     737.00
 38.57     633.00
 38.67     645.00
 38.77     596.42
 38.87     602.00
 38.97     589.00
 39.07     621.00
 39.17     570.00
 39.27     615.00
 39.37     559.00
 39.47     554.42
 39.57     582.00
 39.67     568.00
 39.77     595.00
 39.87     609.00
 39.97     569.00
 40.07     585.00
 40.17     589.00
 40.27     576.00
 40.37     615.00
 40.47     584.00
 40.57     608.24
 40.67     570.54
 40.77     617.44
 40.87     606.00
 40.97     559.00
 41.07     595.00
 41.17     567.87
 41.27     595.64
 41.37     627.87
 41.47     557.00
 41.57     621.00
 41.67     616.20
 41.77     623.52
 41.87     587.00
 41.97     577.75
 42.07     575.00
 42.17     644.00
 42.27     561.00
 42.37     611.00
 42.47     576.00
 42.57     605.71
 42.67     655.30
 42.77     610.87
 42.87     707.00
 42.97     649.00
 43.07     689.00
 43.17     727.31
 43.27     695.54
 43.37     641.26
 43.47     594.00
 43.57     599.00
 43.67     622.65
 43.77     659.00
 43.87     600.00
 43.97     575.81
 44.07     611.22
 44.17     570.00
 44.27     574.74
 44.37     586.00
 44.47     542.38
 44.57     609.00
 44.67     599.00
 44.77     602.00
 44.87     585.00
 44.97     574.00
 45.07     571.91
 45.17     564.00
 45.27     599.00
 45.37     600.00
 45.47     543.95
 45.57     609.00
 45.67     614.00
 45.77     569.41
 45.87     630.73
 45.97     609.00
 46.07     545.00
 46.17     559.35
 46.27     621.17
 46.37     633.00
 46.47     586.00
 46.57     545.00
 46.67     626.00
 46.77     609.33
 46.87     618.00
 46.97     601.63
 47.07     561.28
 47.17     556.00
 47.27     567.00
 47.37     601.63
 47.47     566.00
 47.57     619.00
 47.67     606.72
 47.77     603.00
 47.87     646.00
 47.97     672.35
 48.07     640.00
 48.17     696.45
 48.27     680.00
 48.37     672.00
 48.47     678.00
 48.57     603.00
 48.67     616.00
 48.77     661.00
 48.87     618.00
 48.97     599.00
 49.07     595.63
 49.17     657.00
 49.27     634.00
 49.37     621.00
 49.47     682.74
 49.57     655.00
 49.67     644.00
 49.77     738.00
 49.87     798.00
 49.97     987.00
 50.07    1270.90
 50.17    1712.45
 50.27    2224.56
 50.37    2526.00
 50.47    2940.00
 50.57    2981.00
 50.67    2907.88
 50.77    2476.00
 50.87    2108.00
 50.97    1604.00
 51.07    1279.00
 51.17    1005.00
 51.27     831.00
 51.37     825.41
 51.47     778.00
 51.57     735.05
 51.67     743.00
 51.77     644.00
 51.87     675.70
 51.97     687.00
 52.07     619.00
 52.17     706.89
 52.27     687.00
 52.37     642.31
 52.47     704.00
 52.57     668.00
 52.67     688.62
 52.77     642.36
 52.87     665.00
 52.97     669.00
 53.07     709.00
 53.17     743.00
 53.27     796.00
 53.37     800.00
 53.47     943.00
 53.57    1009.00
 53.67    1137.52
 53.77    1132.29
 53.87    1315.00
 53.97    1293.00
 54.07    1317.06
 54.17    1191.00
 54.27    1084.00
 54.37     910.00
 54.47     817.00
 54.57     765.00
 54.67     692.00
 54.77     684.47
 54.87     683.00
 54.97     703.88
 55.07     640.97
 55.17     678.22
 55.27     606.00
 55.37     617.24
 55.47     677.14
 55.57     659.00
 55.67     639.00
 55.77     685.00
 55.87     636.23
 55.97     681.00
 56.07     683.03
 56.17     692.00
 56.27     742.69
 56.37     755.23
 56.47     798.00
 56.57     887.00
 56.67    1062.00
 56.77    1361.95
 56.87    1609.00
 56.97    1940.00
 57.07    2291.70
 57.17    2583.00
 57.27    2665.00
 57.37    2685.00
 57.47    2497.47
 57.57    2195.00
 57.67    1817.00
 57.77    1596.52
 57.87    1275.00
 57.97    1002.00
 58.07     915.01
 58.17     828.97
 58.27     773.00
 58.37     719.00
 58.47     805.48
 58.57     857.75
 58.67     912.44
 58.77     884.38
 58.87     990.91
 58.97    1042.00
 59.07    1173.35
 59.17    1219.00
 59.27    1354.14
 59.37    1357.95
 59.47    1293.05
 59.57    1316.00
 59.67    1294.03
 59.77    1212.62
 59.87    1149.31
 59.97    1234.00
 60.07    1250.00
 60.17    1282.74
 60.27    1358.00
 60.37    1434.00
 60.47    1499.00
 60.57    1524.00
 60.67    1636.75
 60.77    1666.00
 60.87    1486.00
 60.97    1392.90
 61.07    1198.00
 61.17    1051.00
 61.27    1000.44
 61.37     910.92
 61.47     872.60
 61.57     786.00
 61.67     759.00
 61.77     815.31
 61.87     845.81
 61.97     971.00
 62.07     993.00
 62.17    1201.68
 62.27    1312.00
 62.37    1454.56
 62.47    1493.00
 62.57    1694.26
 62.67    1743.00
 62.77    1612.00
 62.87    1582.00
 62.97    1434.09
 63.07    1216.00
 63.17    1135.99
 63.27     916.07
 63.37     842.00
 63.47     783.00
 63.57     734.00
 63.67     733.00
 63.77     725.00
 63.87     736.00
 63.97     733.00
 64.07     707.00
 64.17     749.00
 64.27     747.00
 64.37     795.48
 64.47     868.00
 64.57     982.00
 64.67    1042.00
 64.77    1191.00
 64.87    1196.00
 64.97    1409.00
 65.07    1399.00
 65.17    1484.00
 65.27    1507.95
 65.37    1422.34
 65.47    1339.13
 65.57    1260.00
 65.67    1145.00
 65.77    1054.96
 65.87     953.00
 65.97     930.80
 66.07     790.00
 66.17     764.28
 66.27     720.00
 66.37     667.00
 66.47     644.00
 66.57     689.00
 66.67     670.00
 66.77     704.14
 66.87     716.78
 66.97     662.00
 67.07     631.00
 67.17     701.00
 67.27     695.30
 67.37     771.01
 67.47     799.59
 67.57     776.00
 67.67     827.00
 67.77     919.00
 67.87    1103.00
 67.97    1305.20
 68.07    1487.00
 68.17    1612.95
 68.27    1998.56
 68.37    2175.35
 68.47    2359.00
 68.57    2503.53
 68.67    2488.00
 68.77    2324.94
 68.87    2158.68
 68.97    2023.00
 69.07    1768.51
 69.17    1563.93
 69.27    1365.00
 69.37    1098.59
 69.47    1016.00
 69.57     927.00
 69.67     895.00
 69.77     726.28
 69.87     814.00
 69.97     749.31
 70.07     649.72
 70.17     677.89
 70.27     733.00
 70.37     674.00
 70.47     679.00
 70.57     633.96
 70.67     689.00
 70.77     686.00
 70.87     653.00
 70.97     705.16
 71.07     707.08
 71.17     720.00
 71.27     755.00
 71.37     685.70
 71.47     786.00
 71.57     794.00
 71.67     851.00
 71.77     924.00
 71.87     983.00
 71.97    1179.00
 72.07    1370.00
 72.17    1461.00
 72.27    1632.00
 72.37    1733.00
 72.47    1934.00
 72.57    1990.65
 72.67    1937.09
 72.77    1891.50
 72.87    1746.72
 72.97    1681.30
 73.07    1454.49
 73.17    1338.57
 73.27    1118.00
 73.37     996.55
 73.47     877.00
 73.57     870.00
 73.67     732.00
 73.77     700.00
 73.87     695.30
 73.97     661.00
 74.07     682.00
 74.17     652.10
 74.27     665.00
 74.37     608.73
 74.47     668.15
 74.57     656.94
 74.67     669.00
 74.77     669.21
 74.87     639.00
 74.97     655.77
 75.07     702.00
 75.17     668.00
 75.27     679.17
 75.37     652.36
 75.47     745.00
 75.57     685.00
 75.67     612.90
 75.77     680.14
 75.87     656.00
 75.97     645.00
 76.07     663.00
 76.17     680.00
 76.27     689.00
 76.37     695.87
 76.47     710.00
 76.57     758.00
 76.67     841.00
 76.77     868.00
 76.87     881.00
 76.97     914.00
 77.07     906.00
 77.17     946.43
 77.27     948.00
 77.37     915.84
 77.47     865.50
 77.57     867.98
 77.67     860.00
 77.77     820.49
 77.87     768.00
 77.97     670.41
 78.07     687.00
 78.17     669.05
 78.27     623.69
 78.37     599.58
 78.47     663.80
 78.57     585.00
 78.67     568.88
 78.77     584.00
 78.87     595.00
 78.97     573.00
 79.07     619.00
 79.17     566.75
 79.27     599.00
 79.37     560.85
 79.47     580.10
 79.57     596.58
 79.67     608.00
 79.77     624.39
 79.87     620.05
 79.97     638.00
 80.07     665.62
 80.17     584.00
 80.27     657.00
 80.37     622.84
 80.47     683.00
 80.57     695.00
 80.67     725.00
 80.77     762.00
 80.87     784.00
 80.97     852.00
 81.07     957.00
 81.17    1035.00
 81.27    1097.03
 81.37    1191.00
 81.47    1293.00
 81.57    1174.86
 81.67    1245.93
 81.77    1304.85
 81.87    1349.87
 81.97    1351.00
 82.07    1256.00
 82.17    1227.00
 82.27    1125.00
 82.37    1045.64
 82.47    1049.73
 82.57     981.00
 82.67     883.00
 82.77     847.00
 82.87     759.00
 82.97     771.00
 83.07     704.56
 83.17     704.00
 83.27     639.00
 83.37     664.66
 83.47     605.00
 83.57     620.29
 83.67     632.00
 83.77     684.52
 83.87     616.00
 83.97     606.00
 84.07     612.71
 84.17     638.00
 84.27     629.00
 84.37     639.00
 84.47     657.00
 84.57     627.35
 84.67     682.00
 84.77     617.00
 84.87     707.90
 84.97     605.00
 85.07     623.00
 85.17     635.00
 85.27     591.00
 85.37     618.00
 85.47     597.00
 85.57     644.96
 85.67     571.71
 85.77     573.00
 85.87     664.00
 85.97     649.18
 86.07     624.00
 86.17     586.24
 86.27     613.00
 86.37     628.00
 86.47     563.42
 86.57     618.00
 86.67     660.96
 86.77     625.00
 86.87     620.00
 86.97     633.00
 87.07     666.00
 87.17     610.50
 87.27     643.98
 87.37     697.00
 87.47     692.00
 87.57     683.00
 87.67     687.04
 87.77     722.00
 87.87     670.00
 87.97     709.96
 88.07     653.00
 88.17     677.00
 88.27     721.00
 88.37     735.21
 88.47     715.00
 88.57     734.00
 88.67     703.00
 88.77     666.00
 88.87     644.73
 88.97     684.00
 89.07     634.00
 89.17     619.00
 89.27     606.00
 89.37     611.00
 89.47     603.00
 89.57     618.00
 89.67     654.37
 89.77     642.00
 89.87     653.59
 89.97     658.00
 90.07     697.00
 90.17     688.00
 90.27     681.00
 90.37     653.00
 90.47     635.72
 90.57     628.91
 90.67     644.00
 90.77     624.27
 90.87     577.00
 90.97     637.83
 91.07     606.00
 91.17     660.00
 91.27     620.38
 91.37     588.88
 91.47     591.00
 91.57     629.00
 91.67     552.00
 91.77     606.00
 91.87     552.00
 91.97     577.10
 92.07     592.00
 92.17     596.00
 92.27     629.04
 92.37     562.43
 92.47     623.00
 92.57     617.78
 92.67     608.00
 92.77     631.31
 92.87     600.00
 92.97     605.00
 93.07     657.00
 93.17     622.00
 93.27     676.00
 93.37     667.00
 93.47     726.43
 93.57     694.00
 93.67     731.00
 93.77     757.00
 93.87     777.00
 93.97     779.00
 94.07     818.12
 94.17     784.89
 94.27     802.48
 94.37     874.12
 94.47     850.03
 94.57     879.00
 94.67     917.00
 94.77     958.64
 94.87     953.00
 94.97     981.24
 95.07     977.00
 95.17    1009.79
 95.27    1008.00
 95.37    1080.58
 95.47    1010.00
 95.57    1067.00
 95.67     969.08
 95.77     993.00
 95.87    1029.00
 95.97     995.00
 96.07     936.00
 96.17     911.00
 96.27     962.00
 96.37     857.00
 96.47     790.13
 96.57     872.00
 96.67     848.00
 96.77     790.00
 96.87     788.00
 96.97     852.00
 97.07     875.00
 97.17     920.59
 97.27     942.00
 97.37     933.91
 97.47    1081.00
 97.57    1135.61
 97.67    1239.00
 97.77    1192.00
 97.87    1315.00
 97.97    1293.00
 98.07    1431.91
 98.17    1544.97
 98.27    1610.08
 98.37    1551.59
 98.47    1543.00
 98.57    1525.00
 98.67    1474.01
 98.77    1518.00
 98.87    1492.64
 98.97    1302.00
 99.07    1279.00
 99.17    1226.00
 99.27    1157.00
 99.37    1139.00
 99.47    1067.00
 99.57    1018.58
 99.67     983.00
 99.77    1016.43
 99.87     983.00
 99.97    1010.57
100.07    1017.00
100.17    1049.00
100.27    1119.00
100.37    1221.44
100.47    1254.30
100.57    1306.00
100.67    1437.46
100.77    1502.00
100.87    1590.91
100.97    1747.08
101.07    1839.00
101.17    1931.00
101.27    1886.78
101.37    2065.00
101.47    1969.11
101.57    2012.17
101.67    2084.00
101.77    2022.59
101.87    2133.73
101.97    2132.00
102.07    2046.00
102.17    1942.00
102.27    1924.16
102.37    1775.00
102.47    1720.03
102.57    1621.00
102.67    1607.00
102.77    1613.42
102.87    1410.00
102.97    1392.00
103.07    1425.10
103.17    1315.25
103.27    1288.27
103.37    1237.00
103.47    1224.00
103.57    1266.00
103.67    1140.00
103.77    1119.00
103.87    1078.00
103.97    1070.00
104.07     974.00
104.17     977.54
104.27     958.00
104.37     937.00
104.47     871.00
104.57     872.00
104.67     783.00
104.77     731.41
104.87     773.00
104.97     752.70
105.07     658.36
105.17     628.00
105.27     654.00
105.37     673.00
105.47     611.94
105.57     630.49
105.67     649.00
105.77     645.00
105.87     630.74
105.97     618.00
106.07     593.00
106.17     625.00
106.27     635.00
106.37     644.58
106.47     632.00
106.57     626.00
106.67     670.00
106.77     584.72
106.87     631.00
106.97     660.52
107.07     660.00
107.17     690.00
107.27     678.00
107.37     657.00
107.47     688.00
107.57     692.00
107.67     776.00
107.77     747.00
107.87     776.00
107.97     724.00
108.07     759.00
108.17     712.00
108.27     754.00
108.37     756.00
108.47     747.00
108.57     810.00
108.67     764.11
108.77     756.00
108.87     779.00
108.97     751.00
109.07     752.00
109.17     763.00
109.27     766.00
109.37     775.00
109.47     736.00
109.57     688.00
109.67     757.00
109.77     733.00
109.87     700.00
109.97     716.00
110.07     730.40
110.17     761.07
110.27     736.00
110.37     795.62
110.47     773.36
110.57     744.57
110.67     694.00
110.77     735.00
110.87     674.00
110.97     678.00
111.07     720.00
111.17     698.00
111.27     676.47
111.37     667.47
111.47     636.00
111.57     587.44
111.67     667.00
111.77     654.55
111.87     607.00
111.97     620.93
112.07     608.00
112.17     566.00
112.27     625.06
112.37     629.51
112.47     576.61
112.57     599.00
112.67     605.63
112.77     636.75
112.87     625.91
112.97     605.00
113.07     616.00
113.17     580.90
113.27     636.55
113.37     577.00
113.47     598.00
113.57     654.60
113.67     629.28
113.77     589.00
113.87     682.87
113.97     620.87
114.07     641.00
114.17     654.00
114.27     693.97
114.37     630.92
114.47     683.31
114.57     701.00
114.67     685.22
114.77     755.77
114.87     747.00
114.97     829.00
115.07     836.91
115.17     945.00
115.27     983.00
115.37    1064.00
115.47    1115.23
115.57    1323.00
115.67    1498.78
115.77    1595.00
115.87    1685.00
115.97    1925.00
116.07    2278.00
116.17    2436.00
116.27    2727.00
116.37    3005.41
116.47    3528.47
116.57    3660.23
116.67    4098.00
116.77    4308.00
116.87    4825.00
116.97    5206.00
117.07    5851.80
117.17    6050.00
117.27    6313.00
117.37    6669.00
117.47    7030.00
117.57    7184.00
117.67    7455.00
117.77    7454.88
117.87    7464.00
117.97    7501.28
118.07    7410.00
118.17    7177.00
118.27    7014.06
118.37    6467.19
118.47    6131.00
118.57    5882.00
118.67    5609.00
118.77    5171.00
118.87    4930.98
118.97    4417.39
119.07    4136.00
119.17    3727.07
119.27    3294.04
119.37    2993.83
119.47    2839.00
119.57    2503.00
119.67    2288.00
119.77    2097.08
119.87    1801.06
119.97    1725.00
120.07    1515.57
120.17    1444.00
120.27    1311.90
120.37    1234.00
120.47    1070.74
120.57    1061.00
120.67     962.81
120.77     962.00
120.87     881.00
120.97     821.16
121.07     761.74
121.17     831.00
121.27     754.00
121.37     761.00
121.47     733.00
121.57     677.43
121.67     705.68
121.77     739.55
121.87     688.85
121.97     638.00
122.07     712.89
122.17     666.00
122.27     650.81
122.37     689.00
122.47     645.00
122.57     654.51
122.67     667.00
122.77     745.59
122.87     691.00
122.97     690.00
123.07     720.00
123.17     695.00
123.27     709.00
123.37     664.00
123.47     678.00
123.57     769.32
123.67     736.00
123.77     694.04
123.87     751.00
123.97     759.00
124.07     735.00
124.17     783.36
124.27     705.11
124.37     761.56
124.47     742.00
124.57     773.41
124.67     802.00
124.77     813.00
124.87     731.01
124.97     806.00
