  9.97     694.00
 10.07     729.71
 10.17     698.57
 10.27     695.00
 10.37     710.00
 10.47     684.00
 10.57     744.00
 10.67     714.00
 10.77     682.00
 10.87     661.27
 10.97     674.00
 11.07     628.19
 11.17     670.63
 11.27     651.27
 11.37     652.68
 11.47     684.00
 11.57     702.96
 11.67     700.08
 11.77     635.55
 11.87     784.00
 11.97     770.00
 12.07     833.00
 12.17     793.00
 12.27     765.45
 12.37     766.65
 12.47     797.00
 12.57     786.64
 12.67     703.00
 12.77     662.00
 12.87     608.00
 12.97     699.77
 13.07     647.00
 13.17     645.00
 13.27     627.96
 13.37     634.00
 13.47     592.00
 13.57     641.43
 13.67     642.00
 13.77     606.64
 13.87     652.00
 13.97     636.00
 14.07     655.00
 14.17     673.00
 14.27     659.47
 14.37     695.55
 14.47     667.79
 14.57     671.17
 14.67     660.18
 14.77     610.29
 14.87     628.00
 14.97     615.00
 15.07     685.19
 15.17     624.60
 15.27     687.61
 15.37     684.89
 15.47     623.69
 15.57     669.93
 15.67     641.76
 15.77     657.00
 15.87     656.86
 15.97     644.00
 16.07     620.00
 16.17     666.63
 16.27     634.00
 16.37     609.00
 16.47     679.39
 16.57     603.82
 16.67     614.00
 16.77     645.35
 16.87     638.70
 16.97     616.05
 17.07     596.00
 17.17     639.46
 17.27     608.00
 17.37     655.00
 17.47     649.00
 17.57     609.60
 17.67     630.00
 17.77     592.80
 17.87     613.00
 17.97     627.00
 18.07     577.00
 18.17     651.17
 18.27     591.42
 18.37     584.00
 18.47     637.61
 18.57     640.00
 18.67     609.00
 18.77     591.00
 18.87     623.00
 18.97     579.00
 19.07     674.63
 19.17     638.00
 19.27     591.46
 19.37     642.00
 19.47     610.24
 19.57     631.00
 19.67     560.00
 19.77     597.00
 19.87     610.00
 19.97     586.00
 20.07     574.25
 20.17     601.90
 20.27     665.22
 20.37     596.00
 20.47     585.00
 20.57     650.88
 20.67     634.00
 20.77     581.00
 20.87     605.00
 20.97     609.00
 21.07     628.00
 21.17     587.39
 21.27     658.00
 21.37     606.00
 21.47     644.00
 21.57     584.00
 21.67     629.00
 21.77     591.00
 21.87     643.89
 21.97     623.00
 22.07     602.00
 22.17     588.00
 22.27     647.78
 22.37     633.00
 22.47     596.00
 22.57     640.00
 22.67     603.00
 22.77     634.50
 22.87     578.00
 22.97     590.00
 23.07     644.22
 23.17     635.00
 23.27     608.00
 23.37     629.13
 23.47     599.00
 23.57     616.46
 23.67     626.00
 23.77     650.00
 23.87     603.00
 23.97     585.00
 24.07     652.96
 24.17     564.83
 24.27     598.00
 24.37     663.00
 24.47     626.00
 24.57     655.00
 24.67     621.03
 24.77     672.00
 24.87     755.00
 24.97     703.00
 25.07     686.00
 25.17     715.00
 25.27     687.40
 25.37     628.00
 25.47     666.00
 25.57     608.20
 25.67     599.00
 25.77     617.90
 25.87     637.58
 25.97     632.00
 26.07     635.00
 26.17     601.86
 26.27     626.81
 26.37     645.00
 26.47     648.09
 26.57     661.00
 26.67     602.79
 26.77     680.00
 26.87     587.44
 26.97     625.00
 27.07     676.00
 27.17     692.00
 27.27     673.00
 27.37     659.00
 27.47     762.00
 27.57     742.00
 27.67     802.00
 27.77     830.48
 27.87     970.26
 27.97    1323.13
 28.07    1779.00
 28.17    2700.00
 28.27    4164.00
 28.37    5061.00
 28.47    5398.00
 28.57    4485.00
 28.67    3341.00
 28.77    2563.00
 28.87    2503.16
 28.97    2809.99
 29.07    3105.32
 29.17    3181.00
 29.27    2652.00
 29.37    2085.05
 29.47    1452.00
 29.57    1137.69
 29.67     929.50
 29.77     838.81
 29.87     760.00
 29.97     750.00
 30.07     732.00
 30.17     713.00
 30.27     666.10
 30.37     668.41
 30.47     667.00
 30.57     629.97
 30.67     655.61
 30.77     617.71
 30.87     658.43
 30.97     745.00
 31.07     746.00
 31.17     694.00
 31.27     737.37
 31.37     701.03
 31.47     655.00
 31.57     668.76
 31.67     629.00
 31.77     618.34
 31.87     624.61
 31.97     589.00
 32.07     615.00
 32.17     562.99
 32.27     643.00
 32.37     547.72
 32.47     597.00
 32.57     563.00
 32.67     635.00
 32.77     554.00
 32.87     601.00
 32.97     604.00
 33.07     613.54
 33.17     695.00
 33.27     603.00
 33.37     594.00
 33.47     658.00
 33.57     581.00
 33.67     613.00
 33.77     648.27
 33.87     800.00
 33.97     833.00
 34.07     971.52
 34.17    1108.00
 34.27    1159.00
 34.37    1150.00
 34.47    1066.00
 34.57     889.00
 34.67     725.00
 34.77     748.00
 34.87     645.00
 34.97     638.48
 35.07     584.80
 35.17     674.00
 35.27     590.00
 35.37     601.77
 35.47     633.15
 35.57     552.34
 35.67     591.00
 35.77     591.00
 35.87     558.00
 35.97     613.00
 36.07     526.00
 36.17     592.00
 36.27     564.00
 36.37     593.69
 36.47     582.00
 36.57     571.00
 36.67     543.27
 36.77     574.00
 36.87     548.00
 36.97     574.00
 37.07     558.00
 37.17     559.00
 37.27     544.00
 37.37     617.72
 37.47     599.00
 37.57     618.02
 37.67     638.00
 37.77     576.00
 37.87     573.78
 37.97     640.52
 38.07     712.75
 38.17     628.00
 38.27     675.00
 38.37     693.68
 38.47     620.00
 38.57     600.49
 38.67     575.00
 38.77     586.00
 38.87     571.00
 38.97     596.00
 39.07     568.00
 39.17     571.00
 39.27     567.00
 39.37     586.00
 39.47     618.00
 39.57     585.00
 39.67     572.00
 39.77     588.00
 39.87     526.41
 39.97     561.00
 40.07     565.00
 40.17     562.00
 40.27     583.00
 40.37     550.00
 40.47     567.00
 40.57     606.87
 40.67     528.00
 40.77     530.00
 40.87     594.58
 40.97     525.03
 41.07     535.00
 41.17     532.32
 41.27     538.08
 41.37     565.00
 41.47     551.56
 41.57     577.00
 41.67     566.44
 41.77     547.51
 41.87     551.70
 41.97     577.95
 42.07     596.74
 42.17     580.00
 42.27     573.00
 42.37     544.00
 42.47     578.00
 42.57     543.00
 42.67     645.74
 42.77     599.00
 42.87     639.00
 42.97     708.42
 43.07     693.23
 43.17     649.00
 43.27     611.00
 43.37     581.00
 43.47     563.28
 43.57     596.00
 43.67     583.79
 43.77     595.00
 43.87     526.82
 43.97     528.00
 44.07     573.00
 44.17     536.18
 44.27     614.00
 44.37     521.58
 44.47     539.00
 44.57     588.98
 44.67     556.00
 44.77     522.02
 44.87     550.00
 44.97     554.43
 45.07     520.02
 45.17     559.00
 45.27     537.25
 45.37     596.78
 45.47     586.52
 45.57     581.11
 45.67     549.00
 45.77     543.00
 45.87     619.00
 45.97     521.50
 46.07     501.00
 46.17     565.70
 46.27     559.00
 46.37     584.00
 46.47     534.00
 46.57     603.92
 46.67     557.00
 46.77     539.78
 46.87     548.82
 46.97     547.00
 47.07     557.00
 47.17     576.80
 47.27     553.53
 47.37     562.00
 47.47     542.00
 47.57     551.00
 47.67     619.00
 47.77     622.00
 47.87     661.70
 47.97     605.16
 48.07     655.33
 48.17     658.00
 48.27     662.00
 48.37     641.50
 48.47     624.72
 48.57     589.00
 48.67     597.00
 48.77     579.42
 48.87     564.00
 48.97     638.00
 49.07     563.00
 49.17     567.00
 49.27     583.00
 49.37     594.00
 49.47     629.00
 49.57     698.16
 49.67     651.00
 49.77     707.07
 49.87     927.50
 49.97    1041.00
 50.07    1324.45
 50.17    1740.00
 50.27    2259.68
 50.37    2634.39
 50.47    2852.00
 50.57    2820.42
 50.67    2669.00
 50.77    2208.00
 50.87    1681.76
 50.97    1343.00
 51.07    1110.86
 51.17     861.00
 51.27     806.55
 51.37     756.44
 51.47     767.00
 51.57     708.00
 51.67     655.13
 51.77     690.00
 51.87     667.00
 51.97     670.11
 52.07     618.00
 52.17     671.00
 52.27     693.00
 52.37     710.00
 52.47     661.00
 52.57     667.00
 52.67     608.39
 52.77     658.00
 52.87     593.12
 52.97     641.00
 53.07     692.55
 53.17     711.00
 53.27     785.00
 53.37     809.00
 53.47     953.43
 53.57    1065.00
 53.67    1084.00
 53.77    1287.00
 53.87    1286.00
 53.97    1263.00
 54.07    1159.00
 54.17    1098.00
 54.27    1016.00
 54.37     881.22
 54.47     758.00
 54.57     703.00
 54.67     697.00
 54.77     717.00
 54.87     629.65
 54.97     640.00
 55.07     641.00
 55.17     632.00
 55.27     627.00
 55.37     647.00
 55.47     594.47
 55.57     681.83
 55.67     661.75
 55.77     595.79
 55.87     623.14
 55.97     612.00
 56.07     667.00
 56.17     650.41
 56.27     782.58
 56.37     790.00
 56.47     905.00
 56.57    1046.03
 56.67    1248.02
 56.77    1445.00
 56.87    1815.00
 56.97    2075.89
 57.07    2362.56
 57.17    2595.37
 57.27    2667.00
 57.37    2519.00
 57.47    2265.00
 57.57    1926.74
 57.67    1603.00
 57.77    1218.00
 57.87    1131.00
 57.97     912.00
 58.07     879.00
 58.17     851.37
 58.27     801.00
 58.37     771.63
 58.47     700.00
 58.57     761.00
 58.67     876.17
 58.77     919.00
 58.87     964.00
 58.97    1079.00
 59.07    1171.00
 59.17    1293.52
 59.27    1307.85
 59.37    1377.00
 59.47    1350.42
 59.57    1217.04
 59.67    1208.00
 59.77    1132.58
 59.87    1147.49
 59.97    1186.00
 60.07    1262.00
 60.17    1267.00
 60.27    1317.00
 60.37    1397.27
 60.47    1546.00
 60.57    1647.00
 60.67    1510.66
 60.77    1524.00
 60.87    1370.66
 60.97    1264.00
 61.07    1124.69
 61.17     939.96
 61.27     830.34
 61.37     781.00
 61.47     792.00
 61.57     756.87
 61.67     727.01
 61.77     802.00
 61.87     874.00
 61.97     941.00
 62.07    1080.54
 62.17    1164.00
 62.27    1350.00
 62.37    1465.00
 62.47    1618.76
 62.57    1608.00
 62.67    1629.28
 62.77    1433.00
 62.87    1313.97
 62.97    1259.69
 63.07    1014.00
 63.17    1001.38
 63.27     836.00
 63.37     754.00
 63.47     731.00
 63.57     732.00
 63.67     670.00
 63.77     623.84
 63.87     711.00
 63.97     696.00
 64.07     681.00
 64.17     728.59
 64.27     755.00
 64.37     739.87
 64.47     881.00
 64.57     977.00
 64.67    1057.00
 64.77    1136.00
 64.87    1229.00
 64.97    1223.30
 65.07    1423.00
 65.17    1361.00
 65.27    1340.00
 65.37    1279.00
 65.47    1222.00
 65.57    1054.88
 65.67    1020.00
 65.77     858.24
 65.87     798.00
 65.97     812.00
 66.07     745.00
 66.17     706.00
 66.27     665.00
 66.37     652.00
 66.47     647.63
 66.57     613.00
 66.67     672.25
 66.77     618.00
 66.87     611.00
 66.97     627.00
 67.07     654.00
 67.17     650.18
 67.27     696.00
 67.37     755.53
 67.47     740.28
 67.57     786.00
 67.67     888.00
 67.77    1064.21
 67.87    1095.00
 67.97    1445.00
 68.07    1565.07
 68.17    1765.98
 68.27    2084.44
 68.37    2368.34
 68.47    2446.02
 68.57    2521.03
 68.67    2404.00
 68.77    2284.33
 68.87    2097.00
 68.97    1771.00
 69.07    1575.00
 69.17    1377.54
 69.27    1098.00
 69.37     942.51
 69.47     993.00
 69.57     843.00
 69.67     744.00
 69.77     791.00
 69.87     727.00
 69.97     718.00
 70.07     682.76
 70.17     651.00
 70.27     664.00
 70.37     680.00
 70.47     619.63
 70.57     637.00
 70.67     692.00
 70.77     689.60
 70.87     614.00
 70.97     683.00
 71.07     651.00
 71.17     672.66
 71.27     700.88
 71.37     732.00
 71.47     761.62
 71.57     766.88
 71.67     904.81
 71.77     967.00
 71.87    1137.69
 71.97    1192.00
 72.07    1473.00
 72.17    1530.00
 72.27    1687.00
 72.37    1817.00
 72.47    1926.26
 72.57    1974.00
 72.67    1870.00
 72.77    1833.00
 72.87    1706.38
 72.97    1419.00
 73.07    1330.00
 73.17    1072.00
 73.27    1000.00
 73.37     948.00
 73.47     831.72
 73.57     726.59
 73.67     747.00
 73.77     760.00
 73.87     704.99
 73.97     609.95
 74.07     641.00
 74.17     599.00
 74.27     597.58
 74.37     584.96
 74.47     619.00
 74.57     665.91
 74.67     650.00
 74.77     683.00
 74.87     652.00
 74.97     652.00
 75.07     706.00
 75.17     592.50
 75.27     683.00
 75.37     655.00
 75.47     688.00
 75.57     673.00
 75.67     702.00
 75.77     676.00
 75.87     660.26
 75.97     627.59
 76.07     636.00
 76.17     659.18
 76.27     681.66
 76.37     686.00
 76.47     683.48
 76.57     693.00
 76.67     754.00
 76.77     841.00
 76.87     884.89
 76.97     879.67
 77.07     880.00
 77.17     867.00
 77.27     837.00
 77.37     870.00
 77.47     786.24
 77.57     771.00
 77.67     771.79
 77.77     672.30
 77.87     658.00
 77.97     621.00
 78.07     679.53
 78.17     589.16
 78.27     633.00
 78.37     614.00
 78.47     584.00
 78.57     607.00
 78.67     590.43
 78.77     621.00
 78.87     610.00
 78.97     565.36
 79.07     571.00
 79.17     631.77
 79.27     584.90
 79.37     544.00
 79.47     554.00
 79.57     610.00
 79.67     597.00
 79.77     588.00
 79.87     551.23
 79.97     649.98
 80.07     602.00
 80.17     626.00
 80.27     635.00
 80.37     670.71
 80.47     659.00
 80.57     660.50
 80.67     687.00
 80.77     765.00
 80.87     829.50
 80.97     789.00
 81.07     868.46
 81.17     882.00
 81.27    1031.00
 81.37    1043.00
 81.47    1150.00
 81.57    1141.00
 81.67    1150.40
 81.77    1194.00
 81.87    1149.00
 81.97    1146.27
 82.07    1083.00
 82.17    1063.54
 82.27     983.00
 82.37     960.00
 82.47     932.00
 82.57     901.91
 82.67     782.93
 82.77     761.86
 82.87     722.00
 82.97     693.00
 83.07     694.00
 83.17     641.00
 83.27     672.41
 83.37     636.00
 83.47     633.00
 83.57     659.15
 83.67     597.00
 83.77     585.00
 83.87     583.00
 83.97     622.00
 84.07     651.36
 84.17     604.19
 84.27     655.79
 84.37     609.00
 84.47     659.93
 84.57     666.00
 84.67     613.83
 84.77     674.96
 84.87     607.00
 84.97     604.00
 85.07     589.71
 85.17     602.00
 85.27     608.00
 85.37     575.00
 85.47     576.00
 85.57     574.12
 85.67     556.00
 85.77     596.00
 85.87     574.00
 85.97     563.00
 86.07     564.15
 86.17     599.70
 86.27     584.00
 86.37     552.89
 86.47     602.00
 86.57     610.00
 86.67     570.00
 86.77     571.06
 86.87     648.00
 86.97     615.00
 87.07     616.32
 87.17     667.66
 87.27     623.00
 87.37     634.00
 87.47     661.00
 87.57     664.00
 87.67     655.00
 87.77     752.00
 87.87     785.00
 87.97     706.00
 88.07     683.00
 88.17     670.41
 88.27     675.00
 88.37     688.43
 88.47     669.88
 88.57     683.00
 88.67     663.00
 88.77     643.00
 88.87     665.98
 88.97     623.00
 89.07     671.00
 89.17     614.00
 89.27     648.00
 89.37     643.43
 89.47     669.46
 89.57     628.91
 89.67     662.00
 89.77     695.09
 89.87     662.52
 89.97     634.00
 90.07     690.29
 90.17     678.00
 90.27     632.00
 90.37     640.97
 90.47     625.00
 90.57     586.62
 90.67     572.00
 90.77     612.00
 90.87     576.00
 90.97     578.00
 91.07     598.06
 91.17     586.00
 91.27     598.09
 91.37     616.71
 91.47     569.00
 91.57     593.00
 91.67     563.00
 91.77     559.95
 91.87     587.00
 91.97     546.00
 92.07     543.71
 92.17     594.00
 92.27     581.47
 92.37     589.00
 92.47     613.00
 92.57     579.00
 92.67     646.00
 92.77     601.00
 92.87     666.72
 92.97     616.00
 93.07     633.88
 93.17     673.00
 93.27     729.68
 93.37     674.90
 93.47     738.00
 93.57     713.76
 93.67     768.00
 93.77     774.65
 93.87     847.13
 93.97     804.00
 94.07     775.00
 94.17     830.00
 94.27     823.57
 94.37     848.02
 94.47     894.49
 94.57     935.00
 94.67     875.00
 94.77     963.18
 94.87     897.00
 94.97     965.00
 95.07     941.00
 95.17    1028.58
 95.27    1001.00
 95.37    1038.57
 95.47    1012.44
 95.57    1022.00
 95.67    1009.85
 95.77     987.00
 95.87     886.80
 95.97     892.00
 96.07     895.34
 96.17     841.06
 96.27     829.30
 96.37     830.00
 96.47     797.00
 96.57     829.00
 96.67     816.00
 96.77     726.76
 96.87     826.37
 96.97     867.00
 97.07     897.48
 97.17     857.00
 97.27     900.37
 97.37    1043.38
 97.47    1100.00
 97.57    1176.00
 97.67    1178.00
 97.77    1360.00
 97.87    1348.00
 97.97    1424.00
 98.07    1494.00
 98.17    1521.17
 98.27    1546.00
 98.37    1503.00
 98.47    1522.62
 98.57    1470.83
 98.67    1446.55
 98.77    1377.00
 98.87    1322.00
 98.97    1261.00
 99.07    1225.41
 99.17    1170.12
 99.27    1079.45
 99.37    1066.00
 99.47     976.68
 99.57     962.00
 99.67     946.00
 99.77    1007.00
 99.87     988.00
 99.97    1038.00
100.07    1101.00
100.17    1149.78
100.27    1211.00
100.37    1257.00
100.47    1332.00
100.57    1357.69
100.67    1574.44
100.77    1689.00
100.87    1806.00
100.97    1810.90
101.07    1836.32
101.17    1876.76
101.27    2085.00
101.37    2072.40
101.47    2031.49
101.57    2104.00
101.67    2085.00
101.77    1970.00
101.87    1954.67
101.97    2094.00
102.07    1888.00
102.17    1850.00
102.27    1607.00
102.37    1678.77
102.47    1589.00
102.57    1515.19
102.67    1465.00
102.77    1459.00
102.87    1328.00
102.97    1280.00
103.07    1235.00
103.17    1307.10
103.27    1199.00
103.37    1185.00
103.47    1153.00
103.57    1099.00
103.67    1048.00
103.77    1040.37
103.87    1054.99
103.97    1038.00
104.07     991.34
104.17     979.00
104.27     904.00
104.37     829.00
104.47     835.00
104.57     756.00
104.67     719.68
104.77     727.79
104.87     653.73
104.97     612.09
105.07     667.46
105.17     667.59
105.27     646.00
105.37     614.00
105.47     623.44
105.57     651.00
105.67     626.00
105.77     608.00
105.87     599.00
105.97     599.00
106.07     625.00
106.17     595.00
106.27     597.00
106.37     580.00
106.47     588.00
106.57     639.00
106.67     567.26
106.77     653.00
106.87     590.00
106.97     604.31
107.07     661.00
107.17     691.08
107.27     663.00
107.37     635.88
107.47     731.00
107.57     721.00
107.67     695.59
107.77     709.95
107.87     711.00
107.97     782.00
108.07     704.00
108.17     794.00
108.27     767.00
108.37     733.00
108.47     809.00
108.57     757.49
108.67     735.00
108.77     717.66
108.87     736.00
108.97     777.51
109.07     753.00
109.17     717.29
109.27     725.60
109.37     753.16
109.47     698.58
109.57     757.00
109.67     753.00
109.77     751.00
109.87     701.00
109.97     757.00
110.07     727.95
110.17     694.00
110.27     746.00
110.37     697.00
110.47     708.00
110.57     709.00
110.67     678.00
110.77     640.10
110.87     653.00
110.97     685.00
111.07     593.00
111.17     670.00
111.27     623.00
111.37     663.58
111.47     591.00
111.57     585.00
111.67     624.00
111.77     619.00
111.87     580.00
111.97     592.00
112.07     563.00
112.17     610.75
112.27     625.35
112.37     566.00
112.47     587.00
112.57     606.00
112.67     568.00
112.77     612.39
112.87     571.00
112.97     633.00
113.07     603.67
113.17     602.00
113.27     560.00
113.37     599.00
113.47     570.48
113.57     584.00
113.67     616.37
113.77     630.00
113.87     585.00
113.97     651.00
114.07     625.00
114.17     684.80
114.27     646.00
114.37     693.00
114.47     676.93
114.57     735.00
114.67     778.23
114.77     823.00
114.87     821.00
114.97     866.00
115.07     859.00
115.17     945.00
115.27    1073.00
115.37    1125.00
115.47    1342.00
115.57    1391.65
115.67    1692.27
115.77    1865.00
115.87    1994.00
115.97    2360.20
116.07    2439.99
116.17    2932.19
116.27    3071.23
116.37    3515.00
116.47    3757.00
116.57    4156.00
116.67    4608.00
116.77    4907.00
116.87    5273.00
116.97    5753.31
117.07    6073.00
117.17    6502.00
117.27    6809.00
117.37    7027.72
117.47    7232.00
117.57    7325.00
117.67    7491.00
117.77    7532.00
117.87    7305.00
117.97    7129.37
118.07    6850.00
118.17    6467.00
118.27    6458.59
118.37    6061.66
118.47    5578.11
118.57    5304.18
118.67    4887.85
118.77    4369.19
118.87    4048.00
118.97    3756.00
119.07    3331.52
119.17    3224.00
119.27    2816.00
119.37    2484.00
119.47    2161.86
119.57    2106.00
119.67    1824.00
119.77    1679.00
119.87    1604.00
119.97    1443.00
120.07    1218.64
120.17    1181.00
120.27    1063.00
120.37    1057.00
120.47    1011.00
120.57     946.12
120.67     861.00
120.77     817.00
120.87     810.13
120.97     789.00
121.07     780.00
121.17     774.00
121.27     722.00
121.37     717.04
121.47     652.00
121.57     680.42
121.67     678.86
121.77     718.46
121.87     703.00
121.97     656.00
122.07     680.00
122.17     672.57
122.27     645.00
122.37     649.00
122.47     670.00
122.57     675.97
122.67     633.98
122.77     651.00
122.87     650.00
122.97     729.36
123.07     694.00
123.17     717.24
123.27     697.00
123.37     673.38
123.47     751.93
123.57     783.00
123.67     745.41
123.77     688.00
123.87     727.00
123.97     759.00
124.07     761.87
124.17     753.56
124.27     732.00
124.37     754.00
124.47     769.24
124.57     733.26
124.67     762.00
124.77     766.00
124.87     698.00
124.97     767.00
