  9.97     698.00
 10.07     700.00
 10.17     722.06
 10.27     697.00
 10.37     723.00
 10.47     717.00
 10.57     638.78
 10.67     634.29
 10.77     644.16
 10.87     666.00
 10.97     722.00
 11.07     714.00
 11.17     700.24
 11.27     745.00
 11.37     667.00
 11.47     700.30
 11.57     656.46
 11.67     731.00
 11.77     724.37
 11.87     757.00
 11.97     728.30
 12.07     823.00
 12.17     786.59
 12.27     807.00
 12.37     773.00
 12.47     772.95
 12.57     755.63
 12.67     740.00
 12.77     648.00
 12.87     675.00
 12.97     701.56
 13.07     626.00
 13.17     649.00
 13.27     594.00
 13.37     656.00
 13.47     653.00
 13.57     643.00
 13.67     622.00
 13.77     614.68
 13.87     654.67
 13.97     662.00
 14.07     693.00
 14.17     682.00
 14.27     625.64
 14.37     655.00
 14.47     659.00
 14.57     677.00
 14.67     660.00
 14.77     607.00
 14.87     648.00
 14.97     607.00
 15.07     585.00
 15.17     646.00
 15.27     610.00
 15.37     606.00
 15.47     613.40
 15.57     692.54
 15.67     679.51
 15.77     602.59
 15.87     674.19
 15.97     638.74
 16.07     669.49
 16.17     622.00
 16.27     653.00
 16.37     607.00
 16.47     658.61
 16.57     680.16
 16.67     629.00
 16.77     669.00
 16.87     639.00
 16.97     667.45
 17.07     606.00
 17.17     613.65
 17.27     629.00
 17.37     605.00
 17.47     644.99
 17.57     587.14
 17.67     620.00
 17.77     594.92
 17.87     625.00
 17.97     610.00
 18.07     633.00
 18.17     614.09
 18.27     581.00
 18.37     596.00
 18.47     602.00
 18.57     596.00
 18.67     649.01
 18.77     648.90
 18.87     608.00
 18.97     665.23
 19.07     614.00
 19.17     640.00
 19.27     662.89
 19.37     633.00
 19.47     647.10
 19.57     667.02
 19.67     658.65
 19.77     585.82
 19.87     588.27
 19.97     636.00
 20.07     613.00
 20.17     630.00
 20.27     626.00
 20.37     618.00
 20.47     588.39
 20.57     613.00
 20.67     640.12
 20.77     634.19
 20.87     614.00
 20.97     608.39
 21.07     585.57
 21.17     623.28
 21.27     624.00
 21.37     597.00
 21.47     620.35
 21.57     627.00
 21.67     638.99
 21.77     648.82
 21.87     613.00
 21.97     649.00
 22.07     611.65
 22.17     583.30
 22.27     604.00
 22.37     638.00
 22.47     614.00
 22.57     641.00
 22.67     653.00
 22.77     625.00
 22.87     643.57
 22.97     565.97
 23.07     641.05
 23.17     570.35
 23.27     586.00
 23.37     630.00
 23.47     583.28
 23.57     572.00
 23.67     630.86
 23.77     605.19
 23.87     652.64
 23.97     623.00
 24.07     606.00
 24.17     621.00
 24.27     645.00
 24.37     615.86
 24.47     709.00
 24.57     597.88
 24.67     663.52
 24.77     662.00
 24.87     680.00
 24.97     713.00
 25.07     714.38
 25.17     727.00
 25.27     636.00
 25.37     620.30
 25.47     655.00
 25.57     615.00
 25.67     663.00
 25.77     668.00
 25.87     662.57
 25.97     654.00
 26.07     632.00
 26.17     587.01
 26.27     659.00
 26.37     554.00
 26.47     601.00
 26.57     654.00
 26.67     685.00
 26.77     622.30
 26.87     644.00
 26.97     633.32
 27.07     656.44
 27.17     669.00
 27.27     668.00
 27.37     715.14
 27.47     762.14
 27.57     714.90
 27.67     776.00
 27.77     823.00
 27.87     922.90
 27.97    1260.00
 28.07    1925.00
 28.17    3043.00
 28.27    4533.00
 28.37    5767.54
 28.47    6137.00
 28.57    5435.00
 28.67    3993.00
 28.77    2985.66
 28.87    2661.00
 28.97    2932.00
 29.07    3341.69
 29.17    3582.00
 29.27    2998.00
 29.37    2236.00
 29.47    1639.15
 29.57    1138.00
 29.67     994.00
 29.77     820.58
 29.87     794.00
 29.97     680.01
 30.07     758.00
 30.17     680.00
 30.27     680.00
 30.37     702.00
 30.47     633.71
 30.57     678.00
 30.67     641.50
 30.77     614.94
 30.87     662.00
 30.97     679.76
 31.07     713.00
 31.17     741.00
 31.27     743.43
 31.37     700.00
 31.47     638.83
 31.57     640.00
 31.67     603.35
 31.77     662.00
 31.87     646.00
 31.97     584.00
 32.07     645.00
 32.17     593.47
 32.27     626.00
 32.37     587.00
 32.47     573.82
 32.57     600.85
 32.67     601.00
 32.77     558.39
 32.87     632.30
 32.97     575.04
 33.07     568.86
 33.17     615.00
 33.27     601.00
 33.37     609.00
 33.47     620.00
 33.57     691.00
 33.67     638.00
 33.77     679.00
 33.87     799.82
 33.97     817.00
 34.07     987.00
 34.17    1047.35
 34.27    1126.73
 34.37    1146.00
 34.47    1022.18
 34.57     869.00
 34.67     754.57
 34.77     692.27
 34.87     719.00
 34.97     651.30
 35.07     646.00
 35.17     563.63
 35.27     669.00
 35.37     615.73
 35.47     598.00
 35.57     565.74
 35.67     579.00
 35.77     540.00
 35.87     577.00
 35.97     595.00
 36.07     585.00
 36.17     584.31
 36.27     623.86
 36.37     608.39
 36.47     563.00
 36.57     608.00
 36.67     593.24
 36.77     574.00
 36.87     580.00
 36.97     503.00
 37.07     595.00
 37.17     613.38
 37.27     598.00
 37.37     605.00
 37.47     605.00
 37.57     594.36
 37.67     613.00
 37.77     584.00
 37.87     610.00
 37.97     614.00
 38.07     704.05
 38.17     687.00
 38.27     702.39
 38.37     713.39
 38.47     638.00
 38.57     657.00
 38.67     638.00
 38.77     573.00
 38.87     580.00
 38.97     560.00
 39.07     542.00
 39.17     565.41
 39.27     580.00
 39.37     543.79
 39.47     574.36
 39.57     594.86
 39.67     534.71
 39.77     559.81
 39.87     580.82
 39.97     541.00
 40.07     537.00
 40.17     578.00
 40.27     550.72
 40.37     564.00
 40.47     531.00
 40.57     542.31
 40.67     572.46
 40.77     604.95
 40.87     548.47
 40.97     550.53
 41.07     588.00
 41.17     540.00
 41.27     606.89
 41.37     585.00
 41.47     542.25
 41.57     542.94
 41.67     556.00
 41.77     549.00
 41.87     545.00
 41.97     532.42
 42.07     515.00
 42.17     574.34
 42.27     615.55
 42.37     611.44
 42.47     597.93
 42.57     595.00
 42.67     673.42
 42.77     659.64
 42.87     719.70
 42.97     699.70
 43.07     664.56
 43.17     603.00
 43.27     676.00
 43.37     643.00
 43.47     623.93
 43.57     595.00
 43.67     543.62
 43.77     613.28
 43.87     590.24
 43.97     585.00
 44.07     591.00
 44.17     589.52
 44.27     557.62
 44.37     597.00
 44.47     601.14
 44.57     583.00
 44.67     579.00
 44.77     565.00
 44.87     565.00
 44.97     607.99
 45.07     618.00
 45.17     548.55
 45.27     582.57
 45.37     574.57
 45.47     560.00
 45.57     598.65
 45.67     585.00
 45.77     563.00
 45.87     589.00
 45.97     603.05
 46.07     614.00
 46.17     597.00
 46.27     594.00
 46.37     594.00
 46.47     565.00
 46.57     572.00
 46.67     587.29
 46.77     574.00
 46.87     603.00
 46.97     589.00
 47.07     578.20
 47.17     544.82
 47.27     538.59
 47.37     584.00
 47.47     586.76
 47.57     611.02
 47.67     639.00
 47.77     598.00
 47.87     669.11
 47.97     663.87
 48.07     642.00
 48.17     669.00
 48.27     703.00
 48.37     659.00
 48.47     639.00
 48.57     620.00
 48.67     618.00
 48.77     614.00
 48.87     567.00
 48.97     587.44
 49.07     577.00
 49.17     526.00
 49.27     595.00
 49.37     608.79
 49.47     598.79
 49.57     703.98
 49.67     675.00
 49.77     717.00
 49.87     831.00
 49.97    1005.00
 50.07    1287.00
 50.17    1692.00
 50.27    2195.00
 50.37    2588.00
 50.47    2937.54
 50.57    2907.00
 50.67    2635.00
 50.77    2336.00
 50.87    1851.00
 50.97    1388.00
 51.07    1077.00
 51.17     967.00
 51.27     818.46
 51.37     790.00
 51.47     769.00
 51.57     717.00
 51.67     716.00
 51.77     721.08
 51.87     734.00
 51.97     693.00
 52.07     664.00
 52.17     612.11
 52.27     692.00
 52.37     686.00
 52.47     653.97
 52.57     669.00
 52.67     650.00
 52.77     677.00
 52.87     628.70
 52.97     677.00
 53.07     642.24
 53.17     741.00
 53.27     766.00
 53.37     837.52
 53.47     876.00
 53.57     938.00
 53.67    1168.00
 53.77    1244.00
 53.87    1234.00
 53.97    1262.65
 54.07    1232.00
 54.17    1137.17
 54.27    1014.00
 54.37     913.41
 54.47     865.69
 54.57     767.00
 54.67     688.00
 54.77     703.00
 54.87     696.96
 54.97     687.38
 55.07     603.50
 55.17     646.00
 55.27     607.21
 55.37     667.00
 55.47     634.00
 55.57     627.00
 55.67     632.00
 55.77     633.00
 55.87     665.00
 55.97     639.00
 56.07     653.29
 56.17     686.00
 56.27     721.00
 56.37     795.00
 56.47     841.00
 56.57    1024.10
 56.67    1141.00
 56.77    1393.00
 56.87    1682.00
 56.97    2040.75
 57.07    2346.00
 57.17    2492.00
 57.27    2718.00
 57.37    2555.00
 57.47    2311.00
 57.57    2114.64
 57.67    1740.01
 57.77    1423.00
 57.87    1117.00
 57.97     960.00
 58.07     864.00
 58.17     801.00
 58.27     745.00
 58.37     821.00
 58.47     763.00
 58.57     864.00
 58.67     876.00
 58.77     949.95
 58.87     986.00
 58.97    1035.03
 59.07    1100.00
 59.17    1269.00
 59.27    1275.00
 59.37    1367.00
 59.47    1350.30
 59.57    1310.00
 59.67    1263.20
 59.77    1254.00
 59.87    1112.11
 59.97    1234.00
 60.07    1218.00
 60.17    1316.00
 60.27    1332.74
 60.37    1357.00
 60.47    1491.27
 60.57    1560.33
 60.67    1559.94
 60.77    1567.15
 60.87    1382.12
 60.97    1315.93
 61.07    1154.77
 61.17     994.00
 61.27     894.00
 61.37     798.62
 61.47     800.00
 61.57     778.00
 61.67     796.00
 61.77     839.00
 61.87     900.59
 61.97     925.00
 62.07    1039.00
 62.17    1081.00
 62.27    1347.00
 62.37    1403.00
 62.47    1576.00
 62.57    1688.00
 62.67    1586.69
 62.77    1463.00
 62.87    1402.00
 62.97    1265.61
 63.07    1095.78
 63.17     943.00
 63.27     833.97
 63.37     775.87
 63.47     726.09
 63.57     683.00
 63.67     715.76
 63.77     714.00
 63.87     708.21
 63.97     677.00
 64.07     649.61
 64.17     753.00
 64.27     796.00
 64.37     760.00
 64.47     927.00
 64.57     952.68
 64.67     967.11
 64.77    1073.22
 64.87    1227.00
 64.97    1323.00
 65.07    1363.00
 65.17    1326.04
 65.27    1353.00
 65.37    1289.19
 65.47    1190.00
 65.57    1167.87
 65.67    1032.00
 65.77     958.00
 65.87     887.00
 65.97     812.00
 66.07     744.00
 66.17     748.00
 66.27     720.00
 66.37     689.96
 66.47     696.26
 66.57     651.00
 66.67     631.81
 66.77     659.00
 66.87     629.00
 66.97     623.00
 67.07     716.52
 67.17     677.00
 67.27     705.20
 67.37     770.21
 67.47     737.00
 67.57     797.00
 67.67     944.55
 67.77    1010.46
 67.87    1117.13
 67.97    1359.00
 68.07    1495.00
 68.17    1808.00
 68.27    2040.00
 68.37    2239.37
 68.47    2427.72
 68.57    2554.00
 68.67    2421.93
 68.77    2239.00
 68.87    2086.58
 68.97    1852.37
 69.07    1735.00
 69.17    1463.00
 69.27    1237.00
 69.37    1079.00
 69.47     956.00
 69.57     898.00
 69.67     873.00
 69.77     769.56
 69.87     747.00
 69.97     754.00
 70.07     745.00
 70.17     724.00
 70.27     695.00
 70.37     714.00
 70.47     686.00
 70.57     623.34
 70.67     722.00
 70.77     627.19
 70.87     702.00
 70.97     697.73
 71.07     657.77
 71.17     702.00
 71.27     647.20
 71.37     687.84
 71.47     755.00
 71.57     844.00
 71.67     928.00
 71.77     994.00
 71.87    1072.00
 71.97    1275.98
 72.07    1436.40
 72.17    1451.00
 72.27    1634.00
 72.37    1834.00
 72.47    1850.79
 72.57    1960.79
 72.67    1943.37
 72.77    1850.24
 72.87    1663.00
 72.97    1544.00
 73.07    1382.00
 73.17    1147.00
 73.27    1090.80
 73.37     924.13
 73.47     859.00
 73.57     747.00
 73.67     725.00
 73.77     747.01
 73.87     657.37
 73.97     639.00
 74.07     680.00
 74.17     668.00
 74.27     662.00
 74.37     657.00
 74.47     625.00
 74.57     677.88
 74.67     690.60
 74.77     627.00
 74.87     611.00
 74.97     690.16
 75.07     682.00
 75.17     714.00
 75.27     652.85
 75.37     705.00
 75.47     711.00
 75.57     685.52
 75.67     637.00
 75.77     643.00
 75.87     634.50
 75.97     667.00
 76.07     690.00
 76.17     696.18
 76.27     702.55
 76.37     655.00
 76.47     702.00
 76.57     723.00
 76.67     841.53
 76.77     818.48
 76.87     855.00
 76.97     898.58
 77.07     854.05
 77.17     879.00
 77.27    1002.00
 77.37     859.00
 77.47     840.00
 77.57     836.00
 77.67     735.64
 77.77     731.76
 77.87     683.00
 77.97     650.00
 78.07     694.57
 78.17     651.00
 78.27     605.00
 78.37     618.00
 78.47     583.62
 78.57     670.00
 78.67     601.86
 78.77     626.00
 78.87     591.00
 78.97     574.00
 79.07     577.00
 79.17     557.00
 79.27     577.81
 79.37     583.69
 79.47     609.00
 79.57     601.41
 79.67     598.00
 79.77     606.00
 79.87     584.00
 79.97     655.00
 80.07     583.00
 80.17     626.27
 80.27     652.75
 80.37     692.00
 80.47     676.00
 80.57     635.24
 80.67     715.00
 80.77     753.00
 80.87     809.00
 80.97     830.03
 81.07     926.29
 81.17    1010.00
 81.27    1028.00
 81.37    1101.00
 81.47    1236.00
 81.57    1194.00
 81.67    1226.00
 81.77    1250.03
 81.87    1232.64
 81.97    1148.35
 82.07    1178.00
 82.17    1111.00
 82.27    1006.01
 82.37     964.55
 82.47     959.00
 82.57     857.48
 82.67     874.00
 82.77     796.00
 82.87     674.00
 82.97     688.00
 83.07     680.00
 83.17     719.42
 83.27     654.00
 83.37     638.00
 83.47     607.00
 83.57     619.03
 83.67     670.56
 83.77     622.15
 83.87     601.00
 83.97     621.10
 84.07     594.01
 84.17     644.00
 84.27     643.00
 84.37     613.00
 84.47     640.62
 84.57     671.45
 84.67     678.90
 84.77     614.58
 84.87     605.00
 84.97     602.00
 85.07     599.72
 85.17     617.00
 85.27     607.42
 85.37     569.00
 85.47     565.00
 85.57     616.00
 85.67     592.00
 85.77     626.29
 85.87     586.00
 85.97     583.00
 86.07     609.51
 86.17     628.00
 86.27     584.00
 86.37     652.00
 86.47     588.00
 86.57     569.00
 86.67     594.00
 86.77     604.00
 86.87     577.38
 86.97     598.00
 87.07     672.00
 87.17     616.00
 87.27     678.00
 87.37     694.41
 87.47     696.00
 87.57     687.00
 87.67     693.00
 87.77     652.00
 87.87     709.00
 87.97     740.00
 88.07     720.00
 88.17     755.00
 88.27     725.00
 88.37     710.00
 88.47     741.00
 88.57     680.00
 88.67     683.00
 88.77     658.64
 88.87     643.00
 88.97     627.00
 89.07     623.00
 89.17     619.00
 89.27     652.35
 89.37     685.00
 89.47     633.07
 89.57     623.00
 89.67     601.00
 89.77     667.00
 89.87     681.00
 89.97     659.09
 90.07     658.00
 90.17     619.72
 90.27     649.00
 90.37     674.62
 90.47     618.02
 90.57     645.00
 90.67     600.14
 90.77     600.00
 90.87     617.36
 90.97     566.00
 91.07     618.03
 91.17     598.35
 91.27     632.53
 91.37     569.00
 91.47     590.00
 91.57     600.84
 91.67     525.00
 91.77     605.00
 91.87     564.00
 91.97     609.00
 92.07     554.23
 92.17     549.00
 92.27     650.00
 92.37     577.00
 92.47     623.03
 92.57     587.00
 92.67     580.00
 92.77     651.00
 92.87     633.00
 92.97     630.00
 93.07     628.00
 93.17     667.00
 93.27     650.00
 93.37     682.00
 93.47     712.00
 93.57     690.00
 93.67     746.26
 93.77     825.58
 93.87     785.00
 93.97     780.85
 94.07     859.00
 94.17     851.00
 94.27     798.00
 94.37     853.00
 94.47     878.00
 94.57     927.60
 94.67     910.00
 94.77     910.67
 94.87     921.00
 94.97     955.00
 95.07     944.00
 95.17     989.00
 95.27    1036.00
 95.37    1051.00
 95.47     985.99
 95.57     965.00
 95.67    1014.98
 95.77     992.00
 95.87     988.00
 95.97     967.00
 96.07     860.00
 96.17     815.64
 96.27     810.44
 96.37     830.00
 96.47     849.23
 96.57     732.53
 96.67     808.00
 96.77     786.00
 96.87     841.53
 96.97     788.00
 97.07     875.00
 97.17     881.55
 97.27     995.00
 97.37     991.32
 97.47    1001.74
 97.57    1151.00
 97.67    1152.66
 97.77    1343.00
 97.87    1380.00
 97.97    1453.34
 98.07    1576.00
 98.17    1572.00
 98.27    1484.74
 98.37    1507.00
 98.47    1618.00
 98.57    1443.24
 98.67    1484.00
 98.77    1407.00
 98.87    1311.00
 98.97    1323.00
 99.07    1196.00
 99.17    1138.06
 99.27    1117.00
 99.37    1066.00
 99.47    1037.21
 99.57     998.00
 99.67     916.00
 99.77     947.00
 99.87     948.00
 99.97     986.00
100.07     977.90
100.17    1054.72
100.27    1184.20
100.37    1173.80
100.47    1327.00
100.57    1415.00
100.67    1463.00
100.77    1578.44
100.87    1637.00
100.97    1722.00
101.07    1798.87
101.17    1817.11
101.27    1964.00
101.37    2064.00
101.47    2072.00
101.57    2107.00
101.67    2089.00
101.77    2130.00
101.87    2063.12
101.97    1955.48
102.07    1936.00
102.17    1731.00
102.27    1773.00
102.37    1709.00
102.47    1635.17
102.57    1591.50
102.67    1474.65
102.77    1426.00
102.87    1392.44
102.97    1321.00
103.07    1267.00
103.17    1261.00
103.27    1221.35
103.37    1228.83
103.47    1168.00
103.57    1164.00
103.67    1129.00
103.77    1174.67
103.87    1099.00
103.97     985.06
104.07     994.22
104.17     924.15
104.27     960.05
104.37     917.00
104.47     848.01
104.57     827.46
104.67     795.00
104.77     733.00
104.87     727.89
104.97     715.00
105.07     698.00
105.17     649.00
105.27     655.62
105.37     617.00
105.47     667.00
105.57     677.00
105.67     598.00
105.77     627.00
105.87     577.39
105.97     619.00
106.07     630.00
106.17     553.00
106.27     555.93
106.37     632.90
106.47     646.00
106.57     600.85
106.67     579.87
106.77     614.85
106.87     608.44
106.97     659.95
107.07     649.00
107.17     671.00
107.27     658.63
107.37     678.98
107.47     712.56
107.57     722.00
107.67     672.30
107.77     746.00
107.87     694.31
107.97     762.00
108.07     729.00
108.17     731.00
108.27     800.00
108.37     760.72
108.47     799.00
108.57     771.00
108.67     759.00
108.77     713.00
108.87     741.00
108.97     770.56
109.07     768.00
109.17     672.00
109.27     772.46
109.37     713.06
109.47     737.00
109.57     715.00
109.67     750.15
109.77     788.00
109.87     735.61
109.97     708.39
110.07     765.91
110.17     714.00
110.27     692.00
110.37     712.00
110.47     705.00
110.57     678.57
110.67     736.00
110.77     669.00
110.87     662.00
110.97     684.00
111.07     642.00
111.17     666.85
111.27     663.00
111.37     672.94
111.47     580.32
111.57     626.57
111.67     590.00
111.77     606.00
111.87     600.00
111.97     599.00
112.07     613.79
112.17     632.00
112.27     543.07
112.37     604.00
112.47     629.00
112.57     551.43
112.67     617.03
112.77     593.00
112.87     561.00
112.97     632.00
113.07     600.00
113.17     603.49
113.27     605.00
113.37     599.12
113.47     558.00
113.57     578.08
113.67     618.00
113.77     603.00
113.87     603.60
113.97     618.00
114.07     637.00
114.17     658.00
114.27     663.00
114.37     652.00
114.47     677.00
114.57     720.48
114.67     663.00
114.77     758.00
114.87     751.00
114.97     800.14
115.07     835.00
115.17     946.00
115.27    1096.27
115.37    1072.00
115.47    1188.00
115.57    1401.00
115.67    1593.86
115.77    1658.69
115.87    1883.00
115.97    2187.22
116.07    2444.00
116.17    2639.00
116.27    3022.31
116.37    3253.27
116.47    3748.62
116.57    3969.00
116.67    4368.00
116.77    4846.07
116.87    5054.00
116.97    5518.00
117.07    5859.00
117.17    6380.00
117.27    6575.00
117.37    6989.00
117.47    7233.00
117.57    7399.00
117.67    7481.00
117.77    7421.70
117.87    7444.00
117.97    7271.00
118.07    6994.00
118.17    6886.00
118.27    6675.38
118.37    6216.31
118.47    5830.00
118.57    5329.00
118.67    5228.00
118.77    4831.00
118.87    4437.00
118.97    4055.51
119.07    3554.84
119.17    3492.00
119.27    3011.00
119.37    2751.00
119.47    2367.07
119.57    2187.06
119.67    1961.64
119.77    1762.81
119.87    1706.00
119.97    1523.00
120.07    1397.07
120.17    1274.00
120.27    1195.00
120.37    1074.31
120.47    1014.06
120.57    1029.00
120.67     958.00
120.77     867.00
120.87     825.00
120.97     765.23
121.07     819.00
121.17     749.65
121.27     760.00
121.37     720.00
121.47     691.00
121.57     670.00
121.67     709.00
121.77     663.00
121.87     663.00
121.97     660.00
122.07     651.00
122.17     651.57
122.27     646.00
122.37     690.26
122.47     684.00
122.57     665.00
122.67     710.00
122.77     656.50
122.87     696.10
122.97     656.00
123.07     652.00
123.17     741.00
123.27     667.00
123.37     671.00
123.47     792.00
123.57     744.00
123.67     711.00
123.77     727.00
123.87     790.56
123.97     768.29
124.07     797.80
124.17     764.00
124.27     723.79
124.37     751.00
124.47     742.92
124.57     772.37
124.67     761.00
124.77     769.00
124.87     703.90
124.97     750.00
