  9.97     615.00
 10.07     600.55
 10.17     594.00
 10.27     582.00
 10.37     602.00
 10.47     608.08
 10.57     578.00
 10.67     555.83
 10.77     621.94
 10.87     569.00
 10.97     578.00
 11.07     610.00
 11.17     572.98
 11.27     586.00
 11.37     545.88
 11.47     629.00
 11.57     600.00
 11.67     620.41
 11.77     654.00
 11.87     657.00
 11.97     664.00
 12.07     718.00
 12.17     752.80
 12.27     728.00
 12.37     697.00
 12.47     639.90
 12.57     576.11
 12.67     608.00
 12.77     555.00
 12.87     560.00
 12.97     559.29
 13.07     564.60
 13.17     581.79
 13.27     571.00
 13.37     540.74
 13.47     585.98
 13.57     658.00
 13.67     554.24
 13.77     560.00
 13.87     585.24
 13.97     552.62
 14.07     540.02
 14.17     561.00
 14.27     609.36
 14.37     584.00
 14.47     558.96
 14.57     555.00
 14.67     561.00
 14.77     559.76
 14.87     603.00
 14.97     558.00
 15.07     580.00
 15.17     541.59
 15.27     528.00
 15.37     572.00
 15.47     560.00
 15.57     562.95
 15.67     580.03
 15.77     557.00
 15.87     594.05
 15.97     535.12
 16.07     561.00
 16.17     543.00
 16.27     589.00
 16.37     588.00
 16.47     595.00
 16.57     551.10
 16.67     551.00
 16.77     545.00
 16.87     566.22
 16.97     550.47
 17.07     590.00
 17.17     542.58
 17.27     537.56
 17.37     545.13
 17.47     588.28
 17.57     579.00
 17.67     569.00
 17.77     507.00
 17.87     559.46
 17.97     542.00
 18.07     565.00
 18.17     521.00
 18.27     558.00
 18.37     527.00
 18.47     550.38
 18.57     538.23
 18.67     555.00
 18.77     584.13
 18.87     557.00
 18.97     533.46
 19.07     568.00
 19.17     535.39
 19.27     509.00
 19.37     540.00
 19.47     526.00
 19.57     518.74
 19.67     573.00
 19.77     523.51
 19.87     557.00
 19.97     524.89
 20.07     529.00
 20.17     598.16
 20.27     565.00
 20.37     612.00
 20.47     523.00
 20.57     541.00
 20.67     590.30
 20.77     558.01
 20.87     570.00
 20.97     552.00
 21.07     596.00
 21.17     587.90
 21.27     557.00
 21.37     570.84
 21.47     582.00
 21.57     553.00
 21.67     523.00
 21.77     592.00
 21.87     585.00
 21.97     573.00
 22.07     559.00
 22.17     536.00
 22.27     570.00
 22.37     512.00
 22.47     543.00
 22.57     587.00
 22.67     578.25
 22.77     501.00
 22.87     541.00
 22.97     581.63
 23.07     572.00
 23.17     565.00
 23.27     567.00
 23.37     563.00
 23.47     589.48
 23.57     545.00
 23.67     558.00
 23.77     567.00
 23.87     558.00
 23.97     538.00
 24.07     565.62
 24.17     539.00
 24.27     550.00
 24.37     558.00
 24.47     577.00
 24.57     559.28
 24.67     640.00
 24.77     681.27
 24.87     598.00
 24.97     612.00
 25.07     625.00
 25.17     583.00
 25.27     544.77
 25.37     531.60
 25.47     600.00
 25.57     565.00
 25.67     535.00
 25.77     554.62
 25.87     562.00
 25.97     571.00
 26.07     516.57
 26.17     564.00
 26.27     582.00
 26.37     556.00
 26.47     540.00
 26.57     565.00
 26.67     541.00
 26.77     510.81
 26.87     514.00
 26.97     570.57
 27.07     523.32
 27.17     590.00
 27.27     580.00
 27.37     548.00
 27.47     502.22
 27.57     536.00
 27.67     561.00
 27.77     555.00
 27.87     650.00
 27.97     686.00
 28.07     803.00
 28.17     849.07
 28.27     980.00
 28.37     883.78
 28.47     848.00
 28.57     697.98
 28.67     696.41
 28.77     712.13
 28.87     811.00
 28.97     898.41
 29.07     794.44
 29.17     703.00
 29.27     624.00
 29.37     625.00
 29.47     589.00
 29.57     613.00
 29.67     574.54
 29.77     614.00
 29.87     594.85
 29.97     569.00
 30.07     554.00
 30.17     539.87
 30.27     573.00
 30.37     529.08
 30.47     506.75
 30.57     576.00
 30.67     542.00
 30.77     590.00
 30.87     584.00
 30.97     614.00
 31.07     558.60
 31.17     590.74
 31.27     565.00
 31.37     534.00
 31.47     511.00
 31.57     534.00
 31.67     551.94
 31.77     558.00
 31.87     523.00
 31.97     550.00
 32.07     554.00
 32.17     578.00
 32.27     523.00
 32.37     516.00
 32.47     546.00
 32.57     491.95
 32.67     598.00
 32.77     548.94
 32.87     545.20
 32.97     499.84
 33.07     572.00
 33.17     567.89
 33.27     500.98
 33.37     553.00
 33.47     545.00
 33.57     576.29
 33.67     577.00
 33.77     794.00
 33.87     886.78
 33.97     985.00
 34.07    1116.05
 34.17     975.37
 34.27     931.00
 34.37     718.12
 34.47     612.00
 34.57     575.00
 34.67     572.00
 34.77     566.25
 34.87     538.86
 34.97     522.00
 35.07     515.65
 35.17     524.00
 35.27     538.00
 35.37     572.00
 35.47     526.65
 35.57     530.00
 35.67     477.00
 35.77     516.40
 35.87     518.51
 35.97     558.00
 36.07     499.00
 36.17     553.16
 36.27     521.00
 36.37     504.00
 36.47     517.00
 36.57     497.18
 36.67     463.00
 36.77     498.00
 36.87     518.00
 36.97     473.33
 37.07     531.82
 37.17     527.00
 37.27     492.00
 37.37     507.90
 37.47     485.89
 37.57     527.61
 37.67     525.00
 37.77     523.00
 37.87     493.87
 37.97     523.00
 38.07     558.93
 38.17     504.00
 38.27     485.00
 38.37     475.00
 38.47     442.00
 38.57     483.00
 38.67     485.00
 38.77     500.00
 38.87     523.00
 38.97     503.00
 39.07     504.00
 39.17     520.00
 39.27     520.00
 39.37     534.26
 39.47     527.00
 39.57     510.00
 39.67     498.33
 39.77     501.00
 39.87     520.47
 39.97     470.49
 40.07     497.29
 40.17     487.00
 40.27     471.00
 40.37     496.00
 40.47     501.00
 40.57     475.12
 40.67     487.12
 40.77     528.00
 40.87     486.00
 40.97     534.00
 41.07     519.08
 41.17     514.00
 41.27     477.00
 41.37     495.00
 41.47     482.70
 41.57     469.24
 41.67     522.00
 41.77     483.00
 41.87     548.16
 41.97     484.00
 42.07     504.00
 42.17     567.00
 42.27     512.00
 42.37     577.00
 42.47     570.00
 42.57     585.12
 42.67     608.00
 42.77     592.00
 42.87     580.00
 42.97     578.37
 43.07     586.38
 43.17     562.67
 43.27     511.89
 43.37     550.90
 43.47     514.00
 43.57     505.57
 43.67     508.00
 43.77     509.61
 43.87     464.00
 43.97     470.61
 44.07     487.00
 44.17     515.00
 44.27     514.00
 44.37     521.00
 44.47     488.58
 44.57     520.00
 44.67     462.00
 44.77     506.00
 44.87     509.00
 44.97     502.00
 45.07     532.55
 45.17     490.27
 45.27     523.00
 45.37     516.00
 45.47     520.42
 45.57     513.56
 45.67     523.00
 45.77     463.94
 45.87     491.00
 45.97     525.00
 46.07     520.38
 46.17     538.93
 46.27     502.48
 46.37     509.84
 46.47     514.00
 46.57     476.00
 46.67     517.00
 46.77     517.82
 46.87     478.00
 46.97     553.00
 47.07     461.00
 47.17     544.00
 47.27     565.00
 47.37     487.00
 47.47     498.11
 47.57     509.33
 47.67     614.21
 47.77     610.52
 47.87     612.00
 47.97     599.00
 48.07     592.00
 48.17     557.00
 48.27     552.00
 48.37     534.00
 48.47     497.00
 48.57     514.00
 48.67     501.00
 48.77     535.08
 48.87     520.00
 48.97     577.32
 49.07     609.00
 49.17     583.00
 49.27     661.53
 49.37     667.95
 49.47     701.00
 49.57     749.76
 49.67     920.00
 49.77    1162.00
 49.87    1515.99
 49.97    1912.62
 50.07    2296.00
 50.17    2554.00
 50.27    2459.00
 50.37    2308.00
 50.47    1854.00
 50.57    1435.84
 50.67    1078.05
 50.77     733.00
 50.87     711.00
 50.97     674.68
 51.07     608.00
 51.17     671.00
 51.27     560.76
 51.37     612.00
 51.47     565.00
 51.57     599.00
 51.67     526.19
 51.77     534.00
 51.87     529.12
 51.97     520.90
 52.07     545.00
 52.17     514.00
 52.27     576.00
 52.37     553.00
 52.47     506.56
 52.57     577.12
 52.67     622.00
 52.77     620.00
 52.87     653.00
 52.97     638.60
 53.07     782.00
 53.17     851.72
 53.27    1043.00
 53.37    1188.29
 53.47    1190.00
 53.57    1196.11
 53.67    1152.23
 53.77    1015.00
 53.87     889.00
 53.97     772.00
 54.07     634.77
 54.17     626.00
 54.27     588.00
 54.37     558.00
 54.47     556.00
 54.57     539.93
 54.67     588.39
 54.77     607.00
 54.87     589.00
 54.97     529.09
 55.07     557.00
 55.17     538.30
 55.27     586.00
 55.37     547.61
 55.47     560.00
 55.57     568.00
 55.67     564.00
 55.77     564.86
 55.87     622.00
 55.97     640.00
 56.07     681.00
 56.17     766.00
 56.27     963.88
 56.37    1194.30
 56.47    1478.40
 56.57    1698.00
 56.67    2064.00
 56.77    2530.00
 56.87    2751.21
 56.97    2613.00
 57.07    2396.00
 57.17    2045.20
 57.27    1611.00
 57.37    1294.44
 57.47    1075.86
 57.57     796.67
 57.67     748.40
 57.77     666.99
 57.87     681.00
 57.97     681.46
 58.07     692.00
 58.17     757.95
 58.27     760.00
 58.37     903.87
 58.47     947.00
 58.57    1159.76
 58.67    1275.94
 58.77    1340.98
 58.87    1513.08
 58.97    1553.00
 59.07    1541.67
 59.17    1521.00
 59.27    1403.00
 59.37    1280.00
 59.47    1287.00
 59.57    1221.00
 59.67    1080.00
 59.77    1148.14
 59.87    1236.00
 59.97    1354.00
 60.07    1440.00
 60.17    1454.21
 60.27    1495.14
 60.37    1579.00
 60.47    1459.00
 60.57    1329.00
 60.67    1189.00
 60.77     944.00
 60.87     786.00
 60.97     736.70
 61.07     675.00
 61.17     675.81
 61.27     577.19
 61.37     704.00
 61.47     654.66
 61.57     767.00
 61.67     799.90
 61.77    1013.47
 61.87    1074.00
 61.97    1238.00
 62.07    1343.98
 62.17    1443.00
 62.27    1423.00
 62.37    1322.00
 62.47    1200.95
 62.57     987.00
 62.67     943.59
 62.77     712.00
 62.87     659.00
 62.97     668.40
 63.07     614.82
 63.17     584.11
 63.27     550.00
 63.37     602.14
 63.47     531.83
 63.57     567.00
 63.67     541.33
 63.77     650.00
 63.87     602.00
 63.97     684.00
 64.07     655.72
 64.17     744.00
 64.27     830.72
 64.37     879.85
 64.47     966.89
 64.57     952.56
 64.67    1003.00
 64.77    1058.00
 64.87     955.00
 64.97     962.00
 65.07     829.00
 65.17     815.00
 65.27     763.00
 65.37     661.00
 65.47     678.33
 65.57     614.00
 65.67     622.00
 65.77     542.00
 65.87     579.71
 65.97     605.63
 66.07     544.00
 66.17     546.27
 66.27     533.00
 66.37     546.00
 66.47     543.60
 66.57     595.00
 66.67     574.00
 66.77     540.00
 66.87     568.00
 66.97     559.00
 67.07     605.00
 67.17     701.62
 67.27     770.00
 67.37     872.44
 67.47     930.00
 67.57    1307.00
 67.67    1515.00
 67.77    1806.49
 67.87    2178.00
 67.97    2359.11
 68.07    2502.00
 68.17    2350.88
 68.27    2256.00
 68.37    2060.00
 68.47    1883.00
 68.57    1456.30
 68.67    1312.00
 68.77    1078.89
 68.87     859.00
 68.97     743.92
 69.07     705.00
 69.17     654.85
 69.27     626.00
 69.37     634.98
 69.47     563.67
 69.57     593.00
 69.67     596.28
 69.77     530.19
 69.87     567.00
 69.97     528.00
 70.07     549.71
 70.17     600.00
 70.27     618.00
 70.37     592.00
 70.47     568.00
 70.57     591.16
 70.67     579.00
 70.77     542.00
 70.87     632.00
 70.97     624.62
 71.07     619.00
 71.17     682.00
 71.27     766.06
 71.37     929.10
 71.47    1066.00
 71.57    1201.56
 71.67    1481.64
 71.77    1597.00
 71.87    1758.23
 71.97    1909.40
 72.07    1999.00
 72.17    1925.00
 72.27    1754.00
 72.37    1642.19
 72.47    1572.00
 72.57    1323.03
 72.67    1202.00
 72.77    1070.00
 72.87     957.00
 72.97     936.00
 73.07     783.00
 73.17     764.12
 73.27     759.64
 73.37     746.79
 73.47     649.02
 73.57     629.01
 73.67     591.00
 73.77     576.54
 73.87     564.00
 73.97     552.05
 74.07     590.00
 74.17     609.00
 74.27     601.48
 74.37     585.40
 74.47     659.00
 74.57     628.00
 74.67     638.00
 74.77     629.00
 74.87     586.28
 74.97     619.00
 75.07     616.00
 75.17     582.00
 75.27     591.00
 75.37     553.67
 75.47     570.00
 75.57     558.02
 75.67     539.28
 75.77     548.00
 75.87     625.47
 75.97     622.00
 76.07     625.00
 76.17     623.00
 76.27     681.00
 76.37     724.00
 76.47     711.23
 76.57     705.00
 76.67     727.00
 76.77     662.00
 76.87     674.97
 76.97     667.14
 77.07     644.00
 77.17     588.00
 77.27     561.43
 77.37     532.40
 77.47     545.00
 77.57     534.00
 77.67     547.92
 77.77     575.64
 77.87     508.00
 77.97     532.00
 78.07     509.00
 78.17     541.00
 78.27     487.35
 78.37     488.93
 78.47     487.00
 78.57     528.00
 78.67     517.00
 78.77     506.00
 78.87     535.00
 78.97     540.00
 79.07     519.12
 79.17     560.00
 79.27     523.00
 79.37     543.00
 79.47     529.71
 79.57     525.79
 79.67     526.30
 79.77     519.00
 79.87     513.00
 79.97     565.00
 80.07     505.00
 80.17     525.00
 80.27     565.13
 80.37     621.60
 80.47     582.38
 80.57     614.76
 80.67     599.00
 80.77     641.00
 80.87     686.73
 80.97     683.00
 81.07     743.13
 81.17     756.00
 81.27     776.48
 81.37     762.00
 81.47     839.00
 81.57     706.63
 81.67     714.00
 81.77     683.27
 81.87     720.23
 81.97     658.51
 82.07     738.00
 82.17     694.00
 82.27     650.00
 82.37     642.00
 82.47     597.00
 82.57     574.00
 82.67     531.00
 82.77     568.00
 82.87     549.33
 82.97     479.00
 83.07     577.92
 83.17     541.00
 83.27     576.00
 83.37     551.00
 83.47     562.00
 83.57     587.34
 83.67     528.42
 83.77     555.00
 83.87     555.00
 83.97     531.00
 84.07     598.70
 84.17     529.00
 84.27     561.00
 84.37     512.00
 84.47     548.00
 84.57     567.00
 84.67     564.00
 84.77     541.00
 84.87     520.00
 84.97     533.00
 85.07     561.16
 85.17     525.00
 85.27     487.00
 85.37     537.20
 85.47     533.00
 85.57     565.00
 85.67     513.00
 85.77     508.00
 85.87     515.09
 85.97     531.00
 86.07     507.24
 86.17     519.11
 86.27     530.42
 86.37     529.58
 86.47     564.62
 86.57     546.00
 86.67     560.66
 86.77     537.55
 86.87     607.00
 86.97     610.00
 87.07     631.00
 87.17     635.00
 87.27     640.00
 87.37     579.00
 87.47     608.00
 87.57     678.00
 87.67     624.00
 87.77     620.87
 87.87     637.00
 87.97     614.00
 88.07     622.00
 88.17     537.80
 88.27     576.43
 88.37     582.00
 88.47     566.00
 88.57     548.68
 88.67     579.08
 88.77     580.00
 88.87     595.00
 88.97     538.35
 89.07     631.00
 89.17     558.37
 89.27     624.54
 89.37     594.04
 89.47     563.60
 89.57     583.28
 89.67     594.00
 89.77     581.00
 89.87     569.68
 89.97     576.82
 90.07     530.00
 90.17     575.00
 90.27     523.07
 90.37     561.06
 90.47     548.00
 90.57     512.57
 90.67     497.00
 90.77     553.46
 90.87     536.00
 90.97     508.00
 91.07     527.00
 91.17     516.00
 91.27     479.00
 91.37     541.16
 91.47     512.00
 91.57     533.00
 91.67     520.00
 91.77     554.16
 91.87     582.08
 91.97     559.00
 92.07     552.78
 92.17     614.00
 92.27     585.93
 92.37     596.29
 92.47     655.00
 92.57     660.00
 92.67     648.00
 92.77     679.00
 92.87     734.54
 92.97     712.00
 93.07     767.00
 93.17     820.00
 93.27     777.99
 93.37     794.30
 93.47     846.00
 93.57     815.00
 93.67     870.40
 93.77     850.83
 93.87     775.36
 93.97     852.00
 94.07     806.62
 94.17     800.00
 94.27     906.00
 94.37     921.00
 94.47     933.00
 94.57     893.90
 94.67     940.54
 94.77     946.00
 94.87     918.00
 94.97     892.00
 95.07     842.31
 95.17     810.04
 95.27     866.00
 95.37     806.00
 95.47     793.00
 95.57     788.00
 95.67     728.00
 95.77     737.00
 95.87     688.52
 95.97     719.94
 96.07     713.05
 96.17     702.00
 96.27     710.00
 96.37     748.00
 96.47     748.00
 96.57     887.00
 96.67     866.00
 96.77     935.00
 96.87    1070.13
 96.97    1080.55
 97.07    1180.00
 97.17    1314.33
 97.27    1289.13
 97.37    1387.47
 97.47    1354.25
 97.57    1475.00
 97.67    1438.68
 97.77    1340.66
 97.87    1334.69
 97.97    1221.00
 98.07    1269.84
 98.17    1221.00
 98.27    1123.00
 98.37     993.00
 98.47     875.00
 98.57     923.37
 98.67     853.80
 98.77     806.00
 98.87     775.00
 98.97     800.00
 99.07     849.31
 99.17     847.00
 99.27     825.33
 99.37     959.00
 99.47    1049.00
 99.57    1107.81
 99.67    1189.00
 99.77    1316.00
 99.87    1358.03
 99.97    1428.26
100.07    1577.00
100.17    1747.00
100.27    1859.76
100.37    1908.00
100.47    2036.00
100.57    2114.00
100.67    2045.00
100.77    2097.78
100.87    2082.00
100.97    2075.00
101.07    2044.00
101.17    1865.00
101.27    1860.04
101.37    1675.00
101.47    1686.00
101.57    1527.00
101.67    1406.00
101.77    1382.00
101.87    1361.70
101.97    1276.56
102.07    1243.00
102.17    1166.00
102.27    1096.00
102.37    1078.00
102.47    1094.00
102.57    1023.00
102.67     993.00
102.77    1036.00
102.87     971.00
102.97     988.00
103.07     939.00
103.17     866.00
103.27     851.67
103.37     808.00
103.47     778.00
103.57     677.75
103.67     675.00
103.77     629.85
103.87     642.51
103.97     653.00
104.07     565.58
104.17     603.00
104.27     603.52
104.37     566.00
104.47     573.00
104.57     558.00
104.67     550.00
104.77     566.00
104.87     497.21
104.97     517.49
105.07     614.00
105.17     542.00
105.27     543.00
105.37     564.00
105.47     522.92
105.57     537.00
105.67     507.86
105.77     557.00
105.87     589.00
105.97     586.00
106.07     574.54
106.17     590.20
106.27     554.96
106.37     618.00
106.47     605.00
106.57     669.23
106.67     648.37
106.77     629.32
106.87     646.00
106.97     637.00
107.07     637.00
107.17     739.23
107.27     715.00
107.37     713.00
107.47     649.00
107.57     677.00
107.67     663.06
107.77     633.00
107.87     710.09
107.97     694.00
108.07     709.26
108.17     666.04
108.27     677.00
108.37     710.00
108.47     671.00
108.57     683.00
108.67     685.00
108.77     673.00
108.87     680.05
108.97     696.00
109.07     726.00
109.17     709.00
109.27     679.00
109.37     656.00
109.47     640.57
109.57     666.00
109.67     627.00
109.77     611.00
109.87     584.00
109.97     568.71
110.07     555.67
110.17     579.00
110.27     530.00
110.37     595.69
110.47     531.00
110.57     562.66
110.67     543.00
110.77     571.00
110.87     517.00
110.97     552.00
111.07     529.05
111.17     543.00
111.27     564.00
111.37     511.00
111.47     546.11
111.57     579.72
111.67     536.00
111.77     575.00
111.87     543.00
111.97     550.00
112.07     627.00
112.17     564.00
112.27     604.66
112.37     599.00
112.47     604.00
112.57     610.00
112.67     592.00
112.77     628.03
112.87     662.35
112.97     610.00
113.07     731.27
113.17     754.00
113.27     697.10
113.37     793.00
113.47     758.00
113.57     767.50
113.67     903.00
113.77     948.00
113.87    1016.00
113.97     965.00
114.07    1027.00
114.17    1050.00
114.27    1163.00
114.37    1233.00
114.47    1294.00
114.57    1419.00
114.67    1546.33
114.77    1765.20
114.87    1845.00
114.97    2125.00
115.07    2342.07
115.17    2670.00
115.27    2761.66
115.37    3001.00
115.47    3413.00
115.57    3861.74
115.67    4204.00
115.77    4426.00
115.87    4844.98
115.97    5241.00
116.07    5628.00
116.17    5951.00
116.27    6226.00
116.37    6597.00
116.47    6836.66
116.57    6855.00
116.67    7002.28
116.77    6859.00
116.87    6686.98
116.97    6709.00
117.07    6471.00
117.17    6120.00
117.27    5827.00
117.37    5481.92
117.47    4986.00
117.57    4615.00
117.67    4265.32
117.77    4032.00
117.87    3453.81
117.97    3219.00
118.07    2884.00
118.17    2583.00
118.27    2262.00
118.37    1989.35
118.47    1826.00
118.57    1482.00
118.67    1394.98
118.77    1276.00
118.87    1115.00
118.97    1081.13
119.07     957.00
119.17     893.00
119.27     834.00
119.37     738.00
119.47     756.29
119.57     666.00
119.67     622.00
119.77     670.00
119.87     680.40
119.97     595.00
120.07     586.00
120.17     604.00
120.27     630.76
120.37     605.00
120.47     568.00
120.57     558.00
120.67     620.98
120.77     577.00
120.87     592.00
120.97     570.00
121.07     558.02
121.17     582.64
121.27     582.00
121.37     569.00
121.47     568.52
121.57     557.11
121.67     623.00
121.77     557.33
121.87     573.44
121.97     616.56
122.07     603.00
122.17     677.00
122.27     605.00
122.37     618.00
122.47     625.00
122.57     656.00
122.67     665.89
122.77     673.96
122.87     644.66
122.97     591.12
123.07     597.74
123.17     656.82
123.27     620.00
123.37     695.00
123.47     613.00
123.57     668.38
123.67     589.00
123.77     623.00
123.87     622.00
123.97     610.00
124.07     592.00
124.17     589.85
124.27     575.00
124.37     609.00
124.47     590.20
124.57     597.59
124.67     590.03
124.77     552.79
124.87     599.00
124.97     588.02
