  9.97     636.00
 10.07     681.00
 10.17     630.00
 10.27     633.00
 10.37     596.14
 10.47     667.00
 10.57     666.00
 10.67     672.00
 10.77     670.00
 10.87     678.00
 10.97     660.00
 11.07     694.00
 11.17     666.00
 11.27     652.75
 11.37     689.00
 11.47     659.00
 11.57     674.00
 11.67     632.12
 11.77     712.00
 11.87     782.00
 11.97     750.00
 12.07     733.00
 12.17     799.01
 12.27     801.00
 12.37     719.14
 12.47     688.36
 12.57     646.00
 12.67     655.34
 12.77     636.96
 12.87     641.00
 12.97     619.00
 13.07     706.00
 13.17     669.00
 13.27     636.00
 13.37     605.00
 13.47     616.00
 13.57     598.00
 13.67     585.00
 13.77     634.00
 13.87     596.00
 13.97     633.12
 14.07     636.00
 14.17     686.42
 14.27     620.00
 14.37     583.00
 14.47     610.00
 14.57     599.00
 14.67     631.00
 14.77     681.34
 14.87     670.96
 14.97     587.63
 15.07     621.95
 15.17     598.00
 15.27     674.89
 15.37     638.00
 15.47     591.00
 15.57     606.00
 15.67     620.22
 15.77     611.73
 15.87     632.00
 15.97     632.00
 16.07     632.00
 16.17     609.00
 16.27     656.63
 16.37     621.84
 16.47     614.00
 16.57     632.00
 16.67     590.00
 16.77     650.28
 16.87     676.49
 16.97     602.84
 17.07     611.00
 17.17     639.00
 17.27     633.05
 17.37     544.00
 17.47     622.88
 17.57     615.30
 17.67     637.00
 17.77     629.30
 17.87     631.00
 17.97     654.14
 18.07     637.70
 18.17     664.76
 18.27     624.45
 18.37     570.00
 18.47     620.00
 18.57     643.61
 18.67     611.00
 18.77     612.00
 18.87     626.00
 18.97     597.60
 19.07     670.46
 19.17     592.00
 19.27     596.12
 19.37     588.00
 19.47     666.31
 19.57     583.00
 19.67     611.00
 19.77     588.00
 19.87     606.19
 19.97     586.14
 20.07     663.46
 20.17     613.00
 20.27     614.00
 20.37     606.18
 20.47     544.00
 20.57     581.35
 20.67     627.20
 20.77     581.00
 20.87     657.94
 20.97     641.95
 21.07     636.00
 21.17     613.00
 21.27     607.00
 21.37     643.00
 21.47     584.33
 21.57     636.00
 21.67     618.00
 21.77     608.95
 21.87     617.00
 21.97     665.00
 22.07     650.51
 22.17     578.00
 22.27     631.95
 22.37     606.41
 22.47     608.00
 22.57     588.00
 22.67     564.00
 22.77     642.32
 22.87     648.00
 22.97     652.96
 23.07     610.00
 23.17     626.12
 23.27     627.00
 23.37     578.00
 23.47     613.00
 23.57     611.00
 23.67     612.00
 23.77     646.00
 23.87     588.85
 23.97     618.90
 24.07     634.00
 24.17     626.00
 24.27     646.00
 24.37     620.00
 24.47     648.00
 24.57     663.17
 24.67     651.47
 24.77     685.00
 24.87     693.00
 24.97     718.00
 25.07     653.00
 25.17     661.00
 25.27     698.59
 25.37     669.00
 25.47     689.00
 25.57     641.00
 25.67     663.00
 25.77     687.00
 25.87     624.00
 25.97     598.32
 26.07     637.00
 26.17     609.00
 26.27     621.00
 26.37     677.00
 26.47     623.00
 26.57     662.00
 26.67     673.00
 26.77     687.00
 26.87     597.71
 26.97     672.00
 27.07     616.60
 27.17     614.82
 27.27     612.99
 27.37     698.00
 27.47     747.00
 27.57     673.58
 27.67     677.49
 27.77     827.00
 27.87     849.00
 27.97     976.27
 28.07    1229.00
 28.17    1597.00
 28.27    2060.00
 28.37    2298.00
 28.47    2296.73
 28.57    1888.87
 28.67    1684.80
 28.77    1356.00
 28.87    1540.02
 28.97    1542.00
 29.07    1662.00
 29.17    1607.00
 29.27    1463.00
 29.37    1088.00
 29.47     898.10
 29.57     863.25
 29.67     761.87
 29.77     804.00
 29.87     629.53
 29.97     728.00
 30.07     726.00
 30.17     646.39
 30.27     740.00
 30.37     665.00
 30.47     716.00
 30.57     651.00
 30.67     591.72
 30.77     716.00
 30.87     704.00
 30.97     731.00
 31.07     728.76
 31.17     702.10
 31.27     611.61
 31.37     670.00
 31.47     701.00
 31.57     626.24
 31.67     622.00
 31.77     634.00
 31.87     573.69
 31.97     610.00
 32.07     607.00
 32.17     558.76
 32.27     597.00
 32.37     594.81
 32.47     639.86
 32.57     612.20
 32.67     622.50
 32.77     620.46
 32.87     640.40
 32.97     619.00
 33.07     592.00
 33.17     620.00
 33.27     584.00
 33.37     591.00
 33.47     579.17
 33.57     648.00
 33.67     640.10
 33.77     761.00
 33.87     806.16
 33.97     897.00
 34.07    1028.00
 34.17    1094.00
 34.27    1059.20
 34.37    1043.00
 34.47     857.00
 34.57     776.00
 34.67     707.00
 34.77     615.00
 34.87     671.00
 34.97     629.00
 35.07     646.00
 35.17     576.00
 35.27     618.91
 35.37     544.62
 35.47     576.00
 35.57     548.00
 35.67     567.00
 35.77     573.97
 35.87     585.00
 35.97     611.25
 36.07     536.87
 36.17     606.13
 36.27     560.00
 36.37     539.00
 36.47     546.00
 36.57     549.06
 36.67     492.00
 36.77     563.23
 36.87     557.00
 36.97     580.54
 37.07     564.00
 37.17     603.88
 37.27     597.72
 37.37     509.00
 37.47     542.81
 37.57     531.00
 37.67     539.00
 37.77     557.75
 37.87     618.78
 37.97     624.00
 38.07     553.00
 38.17     591.00
 38.27     561.56
 38.37     578.00
 38.47     568.00
 38.57     577.00
 38.67     572.00
 38.77     565.00
 38.87     554.00
 38.97     519.70
 39.07     507.00
 39.17     559.00
 39.27     526.50
 39.37     555.00
 39.47     552.64
 39.57     596.56
 39.67     572.00
 39.77     539.55
 39.87     562.00
 39.97     542.69
 40.07     544.00
 40.17     550.00
 40.27     557.15
 40.37     553.54
 40.47     520.90
 40.57     568.54
 40.67     515.89
 40.77     522.00
 40.87     537.00
 40.97     553.00
 41.07     524.00
 41.17     582.59
 41.27     534.37
 41.37     547.00
 41.47     504.94
 41.57     532.88
 41.67     571.86
 41.77     504.00
 41.87     541.00
 41.97     575.54
 42.07     517.11
 42.17     546.00
 42.27     538.00
 42.37     573.52
 42.47     620.87
 42.57     618.76
 42.67     643.47
 42.77     608.00
 42.87     626.76
 42.97     641.00
 43.07     634.00
 43.17     668.22
 43.27     564.00
 43.37     559.00
 43.47     563.19
 43.57     511.00
 43.67     605.31
 43.77     555.00
 43.87     548.95
 43.97     533.00
 44.07     555.00
 44.17     561.00
 44.27     557.00
 44.37     543.00
 44.47     531.90
 44.57     534.00
 44.67     590.00
 44.77     508.84
 44.87     546.00
 44.97     572.10
 45.07     517.57
 45.17     554.00
 45.27     547.62
 45.37     572.00
 45.47     562.65
 45.57     520.49
 45.67     545.13
 45.77     585.00
 45.87     542.00
 45.97     568.00
 46.07     536.11
 46.17     531.00
 46.27     593.90
 46.37     569.00
 46.47     573.00
 46.57     542.00
 46.67     578.00
 46.77     521.00
 46.87     521.00
 46.97     563.00
 47.07     560.00
 47.17     569.17
 47.27     571.00
 47.37     558.00
 47.47     525.27
 47.57     515.00
 47.67     610.02
 47.77     573.00
 47.87     661.00
 47.97     689.00
 48.07     631.00
 48.17     637.00
 48.27     658.00
 48.37     588.39
 48.47     615.00
 48.57     574.00
 48.67     613.53
 48.77     589.00
 48.87     600.00
 48.97     590.00
 49.07     601.14
 49.17     620.00
 49.27     615.27
 49.37     606.00
 49.47     623.00
 49.57     622.00
 49.67     685.00
 49.77     757.00
 49.87     981.88
 49.97    1148.38
 50.07    1423.81
 50.17    1839.00
 50.27    2135.00
 50.37    2571.00
 50.47    2634.00
 50.57    2414.03
 50.67    1974.52
 50.77    1718.00
 50.87    1326.00
 50.97    1015.00
 51.07     940.22
 51.17     829.53
 51.27     706.00
 51.37     672.64
 51.47     701.00
 51.57     659.00
 51.67     645.00
 51.77     668.00
 51.87     619.00
 51.97     578.88
 52.07     591.00
 52.17     644.00
 52.27     560.41
 52.37     552.48
 52.47     614.00
 52.57     584.39
 52.67     599.44
 52.77     648.00
 52.87     659.17
 52.97     689.00
 53.07     709.00
 53.17     688.02
 53.27     800.00
 53.37     863.00
 53.47    1033.77
 53.57    1120.00
 53.67    1198.00
 53.77    1279.00
 53.87    1214.00
 53.97    1181.00
 54.07    1083.00
 54.17     947.62
 54.27     918.19
 54.37     745.57
 54.47     689.00
 54.57     647.00
 54.67     632.00
 54.77     609.29
 54.87     638.00
 54.97     642.58
 55.07     582.88
 55.17     587.00
 55.27     646.00
 55.37     560.00
 55.47     654.88
 55.57     585.00
 55.67     607.00
 55.77     659.00
 55.87     635.00
 55.97     709.00
 56.07     676.13
 56.17     700.00
 56.27     713.62
 56.37     841.00
 56.47     963.61
 56.57    1176.96
 56.67    1262.00
 56.77    1644.00
 56.87    1949.49
 56.97    2300.00
 57.07    2530.00
 57.17    2612.00
 57.27    2444.21
 57.37    2189.45
 57.47    1950.61
 57.57    1596.00
 57.67    1344.00
 57.77    1080.00
 57.87     973.04
 57.97     924.54
 58.07     833.10
 58.17     736.00
 58.27     730.79
 58.37     787.00
 58.47     722.30
 58.57     829.00
 58.67     822.74
 58.77     960.00
 58.87    1005.00
 58.97    1136.00
 59.07    1211.00
 59.17    1263.00
 59.27    1277.00
 59.37    1365.00
 59.47    1260.00
 59.57    1267.00
 59.67    1250.00
 59.77    1193.83
 59.87    1135.00
 59.97    1204.00
 60.07    1240.44
 60.17    1336.00
 60.27    1501.00
 60.37    1493.76
 60.47    1489.23
 60.57    1594.00
 60.67    1487.76
 60.77    1433.66
 60.87    1223.00
 60.97    1102.00
 61.07    1008.00
 61.17     884.00
 61.27     844.97
 61.37     806.00
 61.47     772.00
 61.57     765.00
 61.67     770.00
 61.77     857.00
 61.87     896.00
 61.97     987.54
 62.07    1072.00
 62.17    1171.00
 62.27    1273.30
 62.37    1348.00
 62.47    1390.00
 62.57    1380.51
 62.67    1275.00
 62.77    1261.00
 62.87    1071.00
 62.97     970.00
 63.07     846.00
 63.17     775.00
 63.27     763.46
 63.37     684.00
 63.47     716.46
 63.57     676.00
 63.67     613.03
 63.77     623.00
 63.87     623.91
 63.97     668.33
 64.07     686.00
 64.17     634.89
 64.27     730.13
 64.37     843.00
 64.47     855.00
 64.57     948.00
 64.67    1014.00
 64.77    1005.53
 64.87    1101.00
 64.97    1221.00
 65.07    1152.00
 65.17    1139.20
 65.27    1003.06
 65.37     981.49
 65.47     912.00
 65.57     856.77
 65.67     772.00
 65.77     760.00
 65.87     734.00
 65.97     739.00
 66.07     655.00
 66.17     661.00
 66.27     677.17
 66.37     614.59
 66.47     590.29
 66.57     585.00
 66.67     600.00
 66.77     591.01
 66.87     641.00
 66.97     619.00
 67.07     596.00
 67.17     702.00
 67.27     696.00
 67.37     714.00
 67.47     853.09
 67.57     810.00
 67.67     965.44
 67.77    1101.00
 67.87    1263.63
 67.97    1488.00
 68.07    1758.00
 68.17    1978.00
 68.27    2172.39
 68.37    2399.00
 68.47    2406.00
 68.57    2358.00
 68.67    2174.00
 68.77    2033.00
 68.87    1720.00
 68.97    1495.56
 69.07    1240.00
 69.17    1063.00
 69.27    1027.46
 69.37     862.87
 69.47     799.00
 69.57     683.23
 69.67     642.86
 69.77     685.00
 69.87     670.00
 69.97     653.00
 70.07     643.79
 70.17     586.00
 70.27     635.00
 70.37     666.31
 70.47     635.00
 70.57     640.00
 70.67     633.36
 70.77     621.00
 70.87     616.60
 70.97     630.00
 71.07     626.97
 71.17     692.00
 71.27     724.00
 71.37     765.00
 71.47     762.00
 71.57     888.13
 71.67     989.00
 71.77    1106.00
 71.87    1204.00
 71.97    1455.93
 72.07    1531.25
 72.17    1719.79
 72.27    1803.00
 72.37    1970.00
 72.47    1901.00
 72.57    1785.00
 72.67    1769.00
 72.77    1600.00
 72.87    1330.00
 72.97    1210.63
 73.07    1142.00
 73.17     985.74
 73.27     890.42
 73.37     843.00
 73.47     743.55
 73.57     736.00
 73.67     757.00
 73.77     696.00
 73.87     669.00
 73.97     607.00
 74.07     653.09
 74.17     641.00
 74.27     582.00
 74.37     563.83
 74.47     639.00
 74.57     638.64
 74.67     652.23
 74.77     652.00
 74.87     665.75
 74.97     701.00
 75.07     655.00
 75.17     653.00
 75.27     651.00
 75.37     578.79
 75.47     662.00
 75.57     618.88
 75.67     676.00
 75.77     650.00
 75.87     607.00
 75.97     624.00
 76.07     627.93
 76.17     633.00
 76.27     669.00
 76.37     694.94
 76.47     697.00
 76.57     741.00
 76.67     763.00
 76.77     753.00
 76.87     753.03
 76.97     737.97
 77.07     761.00
 77.17     745.00
 77.27     745.00
 77.37     777.18
 77.47     661.27
 77.57     667.00
 77.67     625.15
 77.77     652.00
 77.87     596.00
 77.97     637.48
 78.07     580.00
 78.17     521.00
 78.27     615.81
 78.37     554.68
 78.47     533.00
 78.57     545.70
 78.67     573.00
 78.77     552.00
 78.87     546.00
 78.97     589.00
 79.07     578.42
 79.17     542.00
 79.27     581.50
 79.37     542.00
 79.47     581.48
 79.57     575.00
 79.67     566.00
 79.77     545.49
 79.87     536.00
 79.97     568.00
 80.07     570.00
 80.17     542.38
 80.27     618.00
 80.37     548.62
 80.47     616.00
 80.57     613.26
 80.67     638.00
 80.77     630.00
 80.87     723.00
 80.97     679.00
 81.07     744.00
 81.17     740.00
 81.27     830.00
 81.37     831.00
 81.47     809.00
 81.57     926.93
 81.67     888.00
 81.77     943.03
 81.87     832.76
 81.97     851.07
 82.07     846.00
 82.17     793.00
 82.27     807.00
 82.37     797.00
 82.47     706.12
 82.57     746.00
 82.67     688.00
 82.77     681.00
 82.87     650.00
 82.97     652.00
 83.07     632.22
 83.17     598.03
 83.27     578.00
 83.37     577.00
 83.47     611.00
 83.57     610.64
 83.67     540.00
 83.77     608.06
 83.87     560.25
 83.97     620.00
 84.07     568.00
 84.17     597.24
 84.27     603.35
 84.37     604.00
 84.47     638.75
 84.57     616.00
 84.67     659.68
 84.77     589.00
 84.87     588.66
 84.97     582.96
 85.07     544.41
 85.17     619.91
 85.27     588.00
 85.37     507.00
 85.47     559.00
 85.57     511.64
 85.67     532.00
 85.77     489.00
 85.87     569.00
 85.97     532.94
 86.07     523.78
 86.17     565.00
 86.27     513.00
 86.37     562.00
 86.47     530.52
 86.57     543.26
 86.67     557.00
 86.77     597.68
 86.87     634.00
 86.97     589.00
 87.07     589.00
 87.17     621.00
 87.27     594.67
 87.37     623.00
 87.47     622.00
 87.57     616.51
 87.67     685.37
 87.77     710.00
 87.87     709.57
 87.97     698.00
 88.07     673.00
 88.17     670.00
 88.27     620.74
 88.37     624.00
 88.47     584.37
 88.57     604.82
 88.67     644.00
 88.77     612.00
 88.87     611.00
 88.97     621.00
 89.07     568.00
 89.17     599.00
 89.27     597.00
 89.37     586.89
 89.47     703.00
 89.57     637.00
 89.67     645.78
 89.77     606.58
 89.87     644.00
 89.97     616.00
 90.07     596.00
 90.17     578.33
 90.27     581.00
 90.37     596.00
 90.47     613.06
 90.57     592.00
 90.67     583.62
 90.77     577.00
 90.87     558.54
 90.97     575.00
 91.07     587.00
 91.17     599.26
 91.27     563.00
 91.37     526.00
 91.47     559.00
 91.57     539.00
 91.67     557.00
 91.77     506.67
 91.87     577.00
 91.97     530.00
 92.07     585.85
 92.17     586.00
 92.27     578.94
 92.37     583.69
 92.47     579.15
 92.57     637.31
 92.67     623.00
 92.77     602.74
 92.87     621.00
 92.97     658.00
 93.07     643.00
 93.17     705.59
 93.27     679.67
 93.37     715.34
 93.47     716.71
 93.57     788.00
 93.67     734.00
 93.77     786.00
 93.87     812.21
 93.97     798.79
 94.07     799.00
 94.17     878.00
 94.27     882.00
 94.37     912.00
 94.47     805.00
 94.57     915.00
 94.67     863.00
 94.77     940.00
 94.87     886.00
 94.97     974.00
 95.07     991.00
 95.17     928.00
 95.27     965.00
 95.37     932.00
 95.47     883.08
 95.57     944.00
 95.67     930.46
 95.77     878.00
 95.87     886.44
 95.97     837.00
 96.07     843.00
 96.17     807.00
 96.27     775.62
 96.37     788.00
 96.47     735.00
 96.57     738.00
 96.67     730.81
 96.77     795.66
 96.87     875.44
 96.97     835.00
 97.07     886.00
 97.17    1003.34
 97.27    1073.00
 97.37    1155.00
 97.47    1121.80
 97.57    1221.97
 97.67    1356.00
 97.77    1344.00
 97.87    1459.71
 97.97    1479.00
 98.07    1602.00
 98.17    1561.00
 98.27    1430.00
 98.37    1423.00
 98.47    1405.00
 98.57    1353.00
 98.67    1230.54
 98.77    1227.00
 98.87    1186.00
 98.97    1102.69
 99.07    1046.00
 99.17    1046.48
 99.27    1044.76
 99.37     946.00
 99.47     888.00
 99.57     923.00
 99.67     981.77
 99.77    1001.00
 99.87    1000.00
 99.97    1099.00
100.07    1138.00
100.17    1162.17
100.27    1237.25
100.37    1440.00
100.47    1358.25
100.57    1499.00
100.67    1671.00
100.77    1727.48
100.87    1804.00
100.97    1867.99
101.07    1949.35
101.17    1995.00
101.27    1986.00
101.37    2054.00
101.47    1938.64
101.57    1992.00
101.67    1991.00
101.77    1851.37
101.87    1930.95
101.97    1734.00
102.07    1713.00
102.17    1596.80
102.27    1480.00
102.37    1433.00
102.47    1427.58
102.57    1356.00
102.67    1290.00
102.77    1283.72
102.87    1225.99
102.97    1254.83
103.07    1206.00
103.17    1229.00
103.27    1123.00
103.37    1089.00
103.47    1055.00
103.57    1024.00
103.67    1007.31
103.77     923.84
103.87     940.33
103.97     811.00
104.07     816.69
104.17     814.00
104.27     796.00
104.37     727.00
104.47     758.00
104.57     703.00
104.67     683.00
104.77     679.00
104.87     670.00
104.97     583.29
105.07     643.00
105.17     534.60
105.27     629.00
105.37     587.00
105.47     607.62
105.57     549.00
105.67     544.00
105.77     565.00
105.87     583.00
105.97     566.00
106.07     516.11
106.17     567.47
106.27     575.00
106.37     558.00
106.47     583.00
106.57     620.74
106.67     604.61
106.77     602.88
106.87     612.00
106.97     634.00
107.07     648.00
107.17     691.30
107.27     641.00
107.37     630.14
107.47     636.36
107.57     698.00
107.67     715.00
107.77     679.29
107.87     690.00
107.97     702.28
108.07     685.28
108.17     714.00
108.27     686.00
108.37     678.81
108.47     777.00
108.57     708.00
108.67     705.00
108.77     778.13
108.87     708.00
108.97     697.92
109.07     701.47
109.17     737.00
109.27     742.00
109.37     697.00
109.47     740.49
109.57     763.00
109.67     718.71
109.77     698.00
109.87     706.00
109.97     731.00
110.07     706.00
110.17     747.14
110.27     713.00
110.37     693.00
110.47     656.60
110.57     602.84
110.67     629.55
110.77     648.66
110.87     607.04
110.97     576.06
111.07     639.00
111.17     604.00
111.27     621.00
111.37     610.00
111.47     521.32
111.57     534.14
111.67     537.00
111.77     528.74
111.87     526.56
111.97     529.01
112.07     607.18
112.17     557.33
112.27     589.00
112.37     588.00
112.47     583.00
112.57     582.26
112.67     579.00
112.77     594.00
112.87     554.00
112.97     560.00
113.07     552.53
113.17     618.35
113.27     583.08
113.37     611.13
113.47     582.00
113.57     645.30
113.67     582.98
113.77     639.00
113.87     627.37
113.97     595.00
114.07     671.00
114.17     648.00
114.27     677.00
114.37     730.86
114.47     709.00
114.57     757.00
114.67     785.00
114.77     832.17
114.87     865.91
114.97     981.00
115.07    1134.00
115.17    1225.37
115.27    1303.00
115.37    1416.08
115.47    1679.14
115.57    1855.73
115.67    2160.00
115.77    2328.00
115.87    2535.00
115.97    2961.00
116.07    3143.00
116.17    3525.00
116.27    3905.00
116.37    4285.00
116.47    4526.76
116.57    4951.00
116.67    5521.73
116.77    5701.00
116.87    6144.00
116.97    6524.43
117.07    6680.00
117.17    7014.00
117.27    7051.00
117.37    7029.00
117.47    7180.00
117.57    7157.00
117.67    6937.74
117.77    6772.00
117.87    6399.00
117.97    6176.83
118.07    5859.00
118.17    5524.00
118.27    5176.38
118.37    4786.00
118.47    4406.30
118.57    4277.55
118.67    3955.00
118.77    3571.00
118.87    3056.88
118.97    2929.00
119.07    2564.00
119.17    2330.00
119.27    2010.00
119.37    1852.00
119.47    1623.95
119.57    1470.05
119.67    1382.00
119.77    1351.97
119.87    1200.00
119.97    1156.00
120.07    1014.00
120.17    1029.00
120.27     929.00
120.37     876.20
120.47     791.76
120.57     812.17
120.67     712.83
120.77     743.00
120.87     772.88
120.97     717.00
121.07     651.75
121.17     681.00
121.27     675.00
121.37     693.00
121.47     649.74
121.57     631.05
121.67     667.22
121.77     633.69
121.87     682.00
121.97     618.00
122.07     675.61
122.17     589.58
122.27     612.00
122.37     613.31
122.47     628.00
122.57     653.00
122.67     652.00
122.77     708.00
122.87     666.00
122.97     636.00
123.07     648.00
123.17     671.27
123.27     702.00
123.37     731.59
123.47     664.00
123.57     727.69
123.67     734.53
123.77     657.00
123.87     725.51
123.97     622.00
124.07     648.00
124.17     720.00
124.27     675.00
124.37     670.00
124.47     687.00
124.57     693.00
124.67     707.00
124.77     674.00
124.87     690.00
124.97     632.00
