  9.97     763.00
 10.07     774.00
 10.17     767.00
 10.27     788.26
 10.37     789.42
 10.47     762.00
 10.57     719.93
 10.67     789.00
 10.77     748.22
 10.87     749.00
 10.97     765.00
 11.07     747.00
 11.17     715.31
 11.27     743.00
 11.37     742.46
 11.47     725.63
 11.57     726.00
 11.67     719.05
 11.77     783.00
 11.87     794.00
 11.97     777.32
 12.07     861.00
 12.17     770.05
 12.27     906.00
 12.37     862.00
 12.47     802.00
 12.57     837.54
 12.67     770.71
 12.77     741.00
 12.87     768.33
 12.97     670.00
 13.07     687.00
 13.17     701.00
 13.27     694.00
 13.37     717.00
 13.47     686.77
 13.57     746.22
 13.67     742.00
 13.77     722.00
 13.87     714.00
 13.97     666.10
 14.07     667.28
 14.17     663.16
 14.27     724.00
 14.37     749.08
 14.47     699.00
 14.57     752.72
 14.67     671.83
 14.77     647.00
 14.87     674.00
 14.97     665.00
 15.07     693.00
 15.17     680.00
 15.27     691.00
 15.37     731.49
 15.47     660.00
 15.57     638.00
 15.67     745.00
 15.77     689.95
 15.87     671.00
 15.97     733.00
 16.07     720.43
 16.17     681.54
 16.27     658.61
 16.37     689.40
 16.47     687.00
 16.57     694.00
 16.67     672.00
 16.77     693.00
 16.87     654.00
 16.97     661.00
 17.07     641.00
 17.17     696.00
 17.27     713.87
 17.37     686.00
 17.47     671.00
 17.57     681.00
 17.67     722.00
 17.77     654.00
 17.87     673.00
 17.97     633.00
 18.07     654.00
 18.17     644.00
 18.27     657.00
 18.37     686.00
 18.47     720.00
 18.57     712.00
 18.67     665.00
 18.77     685.00
 18.87     665.00
 18.97     647.00
 19.07     710.81
 19.17     622.00
 19.27     639.75
 19.37     689.49
 19.47     631.00
 19.57     708.00
 19.67     659.00
 19.77     623.00
 19.87     640.05
 19.97     623.85
 20.07     704.92
 20.17     692.00
 20.27     660.00
 20.37     693.00
 20.47     648.00
 20.57     690.55
 20.67     631.00
 20.77     645.00
 20.87     643.13
 20.97     637.00
 21.07     684.36
 21.17     651.00
 21.27     618.00
 21.37     623.00
 21.47     694.00
 21.57     659.00
 21.67     673.75
 21.77     645.00
 21.87     651.00
 21.97     697.33
 22.07     660.00
 22.17     655.00
 22.27     664.00
 22.37     651.00
 22.47     622.00
 22.57     656.73
 22.67     640.00
 22.77     633.14
 22.87     643.00
 22.97     655.89
 23.07     671.24
 23.17     616.93
 23.27     618.43
 23.37     624.70
 23.47     694.00
 23.57     646.00
 23.67     628.00
 23.77     622.00
 23.87     615.18
 23.97     629.00
 24.07     650.34
 24.17     622.00
 24.27     650.41
 24.37     695.41
 24.47     671.00
 24.57     638.00
 24.67     657.00
 24.77     666.00
 24.87     712.00
 24.97     727.00
 25.07     694.91
 25.17     725.00
 25.27     785.00
 25.37     706.00
 25.47     710.00
 25.57     658.00
 25.67     640.82
 25.77     692.00
 25.87     696.00
 25.97     675.00
 26.07     678.60
 26.17     718.00
 26.27     680.00
 26.37     641.00
 26.47     695.26
 26.57     710.00
 26.67     731.43
 26.77     696.00
 26.87     745.94
 26.97     716.72
 27.07     711.00
 27.17     708.07
 27.27     709.00
 27.37     813.76
 27.47     774.00
 27.57     852.00
 27.67     910.77
 27.77     903.00
 27.87    1120.00
 27.97    1399.41
 28.07    2147.91
 28.17    3230.00
 28.27    5350.00
 28.37    7958.00
 28.47    9356.00
 28.57    8972.00
 28.67    7004.72
 28.77    5042.00
 28.87    3989.34
 28.97    4018.00
 29.07    4841.00
 29.17    5249.00
 29.27    4960.00
 29.37    3954.43
 29.47    2721.00
 29.57    1824.00
 29.67    1390.00
 29.77    1116.00
 29.87     986.25
 29.97     828.94
 30.07     893.00
 30.17     785.54
 30.27     782.00
 30.37     783.00
 30.47     745.82
 30.57     715.05
 30.67     761.02
 30.77     713.00
 30.87     753.23
 30.97     791.90
 31.07     747.73
 31.17     806.00
 31.27     799.00
 31.37     775.78
 31.47     745.00
 31.57     734.00
 31.67     729.00
 31.77     725.00
 31.87     672.53
 31.97     736.00
 32.07     691.35
 32.17     702.00
 32.27     686.00
 32.37     667.00
 32.47     674.24
 32.57     686.00
 32.67     698.00
 32.77     612.92
 32.87     668.51
 32.97     658.03
 33.07     697.00
 33.17     707.00
 33.27     672.00
 33.37     647.45
 33.47     716.00
 33.57     707.00
 33.67     703.06
 33.77     686.02
 33.87     780.00
 33.97     870.52
 34.07     997.06
 34.17    1131.00
 34.27    1247.00
 34.37    1355.00
 34.47    1332.00
 34.57    1150.00
 34.67     983.27
 34.77     878.00
 34.87     791.00
 34.97     760.00
 35.07     731.18
 35.17     729.00
 35.27     681.00
 35.37     646.00
 35.47     636.00
 35.57     684.00
 35.67     640.18
 35.77     686.36
 35.87     693.00
 35.97     633.00
 36.07     653.00
 36.17     628.62
 36.27     629.00
 36.37     627.05
 36.47     661.47
 36.57     605.00
 36.67     580.00
 36.77     627.00
 36.87     623.00
 36.97     598.00
 37.07     622.80
 37.17     623.67
 37.27     654.69
 37.37     653.00
 37.47     590.10
 37.57     646.06
 37.67     632.00
 37.77     609.97
 37.87     662.00
 37.97     709.00
 38.07     685.14
 38.17     747.24
 38.27     738.00
 38.37     820.14
 38.47     801.00
 38.57     789.00
 38.67     717.00
 38.77     742.73
 38.87     658.49
 38.97     661.36
 39.07     583.00
 39.17     614.00
 39.27     656.00
 39.37     604.00
 39.47     635.85
 39.57     584.00
 39.67     620.00
 39.77     599.00
 39.87     643.00
 39.97     647.00
 40.07     649.00
 40.17     652.00
 40.27     599.00
 40.37     581.00
 40.47     656.00
 40.57     619.00
 40.67     634.00
 40.77     655.23
 40.87     598.00
 40.97     603.00
 41.07     624.88
 41.17     582.01
 41.27     668.64
 41.37     639.00
 41.47     610.18
 41.57     613.00
 41.67     610.61
 41.77     631.00
 41.87     601.00
 41.97     615.95
 42.07     619.00
 42.17     594.00
 42.27     651.99
 42.37     643.36
 42.47     636.00
 42.57     624.93
 42.67     675.00
 42.77     684.00
 42.87     707.00
 42.97     732.08
 43.07     729.00
 43.17     715.00
 43.27     682.00
 43.37     643.00
 43.47     666.00
 43.57     633.00
 43.67     632.53
 43.77     648.39
 43.87     631.00
 43.97     664.00
 44.07     587.41
 44.17     663.00
 44.27     659.00
 44.37     647.00
 44.47     587.00
 44.57     630.00
 44.67     640.00
 44.77     650.00
 44.87     583.97
 44.97     635.68
 45.07     626.00
 45.17     581.12
 45.27     620.00
 45.37     636.00
 45.47     587.01
 45.57     616.78
 45.67     649.00
 45.77     620.00
 45.87     616.63
 45.97     667.22
 46.07     639.55
 46.17     596.00
 46.27     626.39
 46.37     651.00
 46.47     594.00
 46.57     612.00
 46.67     638.00
 46.77     627.00
 46.87     665.00
 46.97     648.00
 47.07     714.00
 47.17     646.13
 47.27     631.66
 47.37     625.46
 47.47     641.00
 47.57     678.18
 47.67     650.51
 47.77     663.00
 47.87     625.00
 47.97     669.00
 48.07     678.00
 48.17     686.00
 48.27     750.00
 48.37     777.20
 48.47     730.00
 48.57     702.13
 48.67     693.00
 48.77     660.00
 48.87     710.73
 48.97     665.00
 49.07     660.00
 49.17     688.00
 49.27     673.63
 49.37     680.00
 49.47     695.00
 49.57     663.00
 49.67     707.00
 49.77     744.85
 49.87     816.00
 49.97     964.85
 50.07    1231.04
 50.17    1461.00
 50.27    1806.00
 50.37    2455.00
 50.47    2881.13
 50.57    3260.00
 50.67    3218.00
 50.77    3122.45
 50.87    2656.00
 50.97    2088.63
 51.07    1607.00
 51.17    1256.00
 51.27    1024.39
 51.37     906.00
 51.47     808.00
 51.57     837.00
 51.67     778.00
 51.77     787.00
 51.87     780.00
 51.97     693.34
 52.07     713.00
 52.17     731.00
 52.27     780.00
 52.37     699.00
 52.47     706.00
 52.57     706.85
 52.67     716.00
 52.77     709.34
 52.87     693.00
 52.97     681.22
 53.07     683.41
 53.17     745.00
 53.27     762.00
 53.37     824.00
 53.47     810.60
 53.57     896.00
 53.67    1002.00
 53.77    1153.00
 53.87    1276.00
 53.97    1387.08
 54.07    1395.41
 54.17    1291.03
 54.27    1287.11
 54.37    1166.00
 54.47    1072.00
 54.57     854.78
 54.67     814.03
 54.77     760.00
 54.87     792.52
 54.97     729.00
 55.07     744.89
 55.17     678.00
 55.27     668.00
 55.37     732.46
 55.47     723.00
 55.57     700.00
 55.67     679.46
 55.77     703.00
 55.87     732.63
 55.97     710.00
 56.07     710.51
 56.17     725.00
 56.27     728.63
 56.37     802.75
 56.47     779.00
 56.57     852.00
 56.67     935.00
 56.77    1150.00
 56.87    1378.00
 56.97    1724.43
 57.07    1949.45
 57.17    2402.00
 57.27    2747.00
 57.37    2818.24
 57.47    2735.95
 57.57    2558.00
 57.67    2170.59
 57.77    1856.96
 57.87    1556.00
 57.97    1357.00
 58.07    1143.66
 58.17     956.00
 58.27     978.00
 58.37     863.00
 58.47     813.00
 58.57     832.00
 58.67     820.00
 58.77     905.83
 58.87     977.48
 58.97    1009.00
 59.07    1154.89
 59.17    1236.00
 59.27    1200.00
 59.37    1376.57
 59.47    1339.00
 59.57    1392.00
 59.67    1363.00
 59.77    1303.00
 59.87    1321.95
 59.97    1296.00
 60.07    1262.00
 60.17    1233.00
 60.27    1352.00
 60.37    1370.00
 60.47    1596.00
 60.57    1579.00
 60.67    1669.00
 60.77    1701.55
 60.87    1660.00
 60.97    1564.00
 61.07    1463.00
 61.17    1301.91
 61.27    1106.00
 61.37    1000.00
 61.47     952.00
 61.57     911.83
 61.67     803.90
 61.77     892.00
 61.87     874.00
 61.97     937.18
 62.07     976.00
 62.17    1129.00
 62.27    1286.00
 62.37    1458.00
 62.47    1618.00
 62.57    1719.00
 62.67    1983.57
 62.77    1871.18
 62.87    1862.00
 62.97    1721.00
 63.07    1571.00
 63.17    1369.00
 63.27    1181.00
 63.37    1069.00
 63.47     936.00
 63.57     900.62
 63.67     804.00
 63.77     817.00
 63.87     813.24
 63.97     749.00
 64.07     763.00
 64.17     716.00
 64.27     819.00
 64.37     862.01
 64.47     830.53
 64.57     925.48
 64.67    1041.00
 64.77    1117.90
 64.87    1241.00
 64.97    1429.00
 65.07    1497.00
 65.17    1648.00
 65.27    1778.00
 65.37    1724.00
 65.47    1622.00
 65.57    1526.00
 65.67    1467.00
 65.77    1319.00
 65.87    1097.00
 65.97    1022.50
 66.07     973.16
 66.17     974.74
 66.27     869.31
 66.37     774.00
 66.47     794.00
 66.57     771.30
 66.67     741.09
 66.77     662.00
 66.87     711.00
 66.97     785.81
 67.07     679.00
 67.17     760.17
 67.27     748.00
 67.37     730.00
 67.47     704.00
 67.57     758.00
 67.67     868.00
 67.77     873.00
 67.87    1039.07
 67.97    1052.00
 68.07    1294.99
 68.17    1475.00
 68.27    1708.00
 68.37    1930.00
 68.47    2112.00
 68.57    2365.36
 68.67    2551.19
 68.77    2650.47
 68.87    2587.00
 68.97    2333.00
 69.07    2156.22
 69.17    1939.00
 69.27    1659.00
 69.37    1444.00
 69.47    1202.09
 69.57    1039.74
 69.67    1065.00
 69.77     991.00
 69.87     860.53
 69.97     928.00
 70.07     808.00
 70.17     754.82
 70.27     735.56
 70.37     777.00
 70.47     774.00
 70.57     718.00
 70.67     762.65
 70.77     753.64
 70.87     713.00
 70.97     742.00
 71.07     755.01
 71.17     707.51
 71.27     763.57
 71.37     735.00
 71.47     741.00
 71.57     775.00
 71.67     852.00
 71.77     934.00
 71.87     951.00
 71.97    1018.00
 72.07    1119.00
 72.17    1330.00
 72.27    1528.91
 72.37    1648.00
 72.47    1865.00
 72.57    2031.70
 72.67    1962.95
 72.77    2044.00
 72.87    2007.00
 72.97    1842.00
 73.07    1795.00
 73.17    1642.00
 73.27    1409.00
 73.37    1209.00
 73.47    1055.00
 73.57    1023.00
 73.67     925.00
 73.77     846.00
 73.87     807.00
 73.97     782.84
 74.07     821.00
 74.17     711.41
 74.27     697.11
 74.37     686.00
 74.47     726.00
 74.57     717.00
 74.67     666.42
 74.77     684.00
 74.87     667.32
 74.97     699.00
 75.07     682.00
 75.17     677.16
 75.27     764.00
 75.37     753.50
 75.47     747.00
 75.57     734.77
 75.67     734.00
 75.77     737.00
 75.87     720.00
 75.97     758.77
 76.07     714.00
 76.17     674.08
 76.27     702.45
 76.37     724.40
 76.47     782.00
 76.57     830.79
 76.67     832.00
 76.77     870.00
 76.87     907.00
 76.97     935.22
 77.07    1004.00
 77.17    1074.09
 77.27    1092.00
 77.37    1151.23
 77.47    1043.82
 77.57    1009.76
 77.67     945.00
 77.77    1003.00
 77.87     882.00
 77.97     832.41
 78.07     763.00
 78.17     714.00
 78.27     764.09
 78.37     733.00
 78.47     716.00
 78.57     733.21
 78.67     657.00
 78.77     714.62
 78.87     654.00
 78.97     630.00
 79.07     621.00
 79.17     626.09
 79.27     636.00
 79.37     678.00
 79.47     690.74
 79.57     618.00
 79.67     620.01
 79.77     662.00
 79.87     635.00
 79.97     638.00
 80.07     676.00
 80.17     708.95
 80.27     698.00
 80.37     696.00
 80.47     685.00
 80.57     675.00
 80.67     751.00
 80.77     753.38
 80.87     790.05
 80.97     867.00
 81.07     966.73
 81.17    1093.78
 81.27    1195.00
 81.37    1239.00
 81.47    1347.00
 81.57    1381.19
 81.67    1446.97
 81.77    1580.00
 81.87    1594.00
 81.97    1542.11
 82.07    1530.65
 82.17    1556.00
 82.27    1448.00
 82.37    1317.00
 82.47    1299.29
 82.57    1193.00
 82.67    1119.00
 82.77    1018.00
 82.87     908.88
 82.97     887.00
 83.07     832.12
 83.17     785.73
 83.27     768.00
 83.37     753.00
 83.47     758.00
 83.57     710.99
 83.67     685.45
 83.77     628.00
 83.87     674.48
 83.97     686.00
 84.07     649.00
 84.17     733.26
 84.27     664.00
 84.37     728.72
 84.47     722.07
 84.57     672.00
 84.67     730.64
 84.77     767.38
 84.87     750.00
 84.97     722.57
 85.07     733.01
 85.17     701.00
 85.27     696.00
 85.37     702.00
 85.47     687.00
 85.57     677.00
 85.67     680.00
 85.77     634.00
 85.87     643.00
 85.97     654.00
 86.07     641.45
 86.17     613.00
 86.27     615.31
 86.37     657.00
 86.47     673.37
 86.57     658.00
 86.67     675.18
 86.77     635.00
 86.87     641.00
 86.97     695.72
 87.07     768.00
 87.17     676.49
 87.27     709.00
 87.37     689.00
 87.47     670.82
 87.57     716.00
 87.67     747.00
 87.77     747.00
 87.87     771.26
 87.97     731.00
 88.07     766.00
 88.17     754.00
 88.27     708.94
 88.37     834.00
 88.47     742.00
 88.57     762.00
 88.67     762.00
 88.77     728.00
 88.87     775.00
 88.97     756.29
 89.07     706.00
 89.17     690.00
 89.27     694.00
 89.37     725.14
 89.47     723.50
 89.57     692.00
 89.67     690.00
 89.77     693.00
 89.87     718.00
 89.97     683.96
 90.07     767.00
 90.17     653.39
 90.27     695.00
 90.37     752.00
 90.47     661.62
 90.57     712.94
 90.67     716.63
 90.77     721.05
 90.87     709.51
 90.97     658.00
 91.07     669.12
 91.17     655.00
 91.27     657.00
 91.37     638.62
 91.47     650.00
 91.57     620.24
 91.67     590.00
 91.77     567.00
 91.87     605.00
 91.97     626.24
 92.07     644.00
 92.17     607.27
 92.27     667.00
 92.37     612.55
 92.47     644.32
 92.57     606.00
 92.67     612.00
 92.77     670.00
 92.87     636.00
 92.97     695.70
 93.07     703.00
 93.17     693.71
 93.27     683.00
 93.37     705.19
 93.47     739.00
 93.57     726.44
 93.67     734.00
 93.77     788.00
 93.87     771.79
 93.97     872.16
 94.07     858.79
 94.17     856.64
 94.27     904.00
 94.37     936.00
 94.47     954.06
 94.57     892.16
 94.67     913.00
 94.77     905.00
 94.87     940.00
 94.97     984.00
 95.07    1025.00
 95.17    1010.00
 95.27    1060.03
 95.37    1086.00
 95.47    1090.00
 95.57    1140.00
 95.67    1082.00
 95.77    1116.00
 95.87    1085.00
 95.97    1066.00
 96.07    1095.41
 96.17    1010.00
 96.27    1015.00
 96.37    1037.00
 96.47     969.00
 96.57     889.00
 96.67     897.07
 96.77     802.68
 96.87     821.00
 96.97     836.02
 97.07     864.23
 97.17     920.15
 97.27     935.00
 97.37     922.00
 97.47     994.00
 97.57    1031.00
 97.67    1105.00
 97.77    1191.00
 97.87    1279.29
 97.97    1233.39
 98.07    1424.00
 98.17    1508.72
 98.27    1632.00
 98.37    1565.00
 98.47    1637.00
 98.57    1581.00
 98.67    1646.00
 98.77    1621.00
 98.87    1593.52
 98.97    1529.00
 99.07    1414.16
 99.17    1299.00
 99.27    1394.00
 99.37    1312.00
 99.47    1211.54
 99.57    1160.00
 99.67    1134.62
 99.77    1144.20
 99.87    1090.00
 99.97     999.00
100.07    1070.00
100.17    1081.43
100.27    1094.00
100.37    1168.00
100.47    1121.79
100.57    1216.00
100.67    1326.00
100.77    1422.00
100.87    1455.72
100.97    1597.49
101.07    1711.00
101.17    1733.94
101.27    1815.24
101.37    1939.50
101.47    2055.00
101.57    2101.00
101.67    2105.00
101.77    2111.00
101.87    2097.77
101.97    2152.00
102.07    2104.00
102.17    2115.00
102.27    2088.81
102.37    1983.00
102.47    1971.00
102.57    1917.00
102.67    1848.00
102.77    1730.00
102.87    1738.00
102.97    1604.00
103.07    1622.40
103.17    1455.00
103.27    1532.77
103.37    1440.88
103.47    1452.00
103.57    1352.00
103.67    1266.00
103.77    1350.87
103.87    1274.18
103.97    1296.23
104.07    1205.00
104.17    1115.87
104.27    1086.18
104.37    1035.79
104.47     998.00
104.57    1015.68
104.67     960.00
104.77     851.23
104.87     881.00
104.97     787.10
105.07     781.74
105.17     722.00
105.27     713.43
105.37     769.00
105.47     685.71
105.57     659.00
105.67     695.00
105.77     705.18
105.87     673.25
105.97     686.00
106.07     634.00
106.17     665.00
106.27     682.13
106.37     664.23
106.47     691.00
106.57     594.04
106.67     602.73
106.77     604.31
106.87     679.00
106.97     666.00
107.07     662.42
107.17     633.38
107.27     661.00
107.37     715.00
107.47     690.34
107.57     671.60
107.67     724.81
107.77     767.00
107.87     729.00
107.97     812.19
108.07     794.00
108.17     819.00
108.27     728.00
108.37     858.40
108.47     828.00
108.57     813.00
108.67     808.01
108.77     857.14
108.87     801.00
108.97     849.31
109.07     835.00
109.17     867.59
109.27     808.00
109.37     784.00
109.47     789.00
109.57     812.88
109.67     764.32
109.77     760.00
109.87     864.39
109.97     774.02
110.07     845.79
110.17     763.00
110.27     774.00
110.37     817.00
110.47     845.77
110.57     810.00
110.67     747.00
110.77     749.41
110.87     812.00
110.97     821.21
111.07     819.00
111.17     724.60
111.27     748.00
111.37     679.56
111.47     711.39
111.57     733.00
111.67     646.24
111.77     713.37
111.87     680.00
111.97     667.00
112.07     637.84
112.17     680.21
112.27     656.00
112.37     697.97
112.47     633.60
112.57     650.00
112.67     675.00
112.77     661.59
112.87     654.00
112.97     704.00
113.07     667.00
113.17     699.00
113.27     654.00
113.37     643.00
113.47     686.00
113.57     684.00
113.67     632.00
113.77     651.00
113.87     691.00
113.97     635.00
114.07     677.48
114.17     722.00
114.27     642.85
114.37     742.08
114.47     722.00
114.57     674.00
114.67     718.00
114.77     706.78
114.87     718.79
114.97     770.00
115.07     813.00
115.17     875.78
115.27     856.00
115.37     948.00
115.47     978.00
115.57    1058.00
115.67    1195.53
115.77    1293.00
115.87    1440.00
115.97    1650.00
116.07    1747.00
116.17    1942.99
116.27    2264.00
116.37    2522.00
116.47    2808.00
116.57    3076.00
116.67    3271.89
116.77    3672.48
116.87    3983.00
116.97    4398.00
117.07    4992.82
117.17    5136.00
117.27    5787.45
117.37    6003.00
117.47    6322.53
117.57    6745.00
117.67    7275.00
117.77    7120.18
117.87    7466.00
117.97    7516.00
118.07    7495.00
118.17    7541.00
118.27    7593.00
118.37    7520.00
118.47    7363.56
118.57    6879.00
118.67    6621.00
118.77    6111.00
118.87    5884.22
118.97    5502.00
119.07    5196.67
119.17    4709.30
119.27    4475.00
119.37    4181.68
119.47    3790.00
119.57    3314.33
119.67    3028.01
119.77    2749.50
119.87    2563.89
119.97    2402.00
120.07    2079.00
120.17    1831.00
120.27    1731.85
120.37    1582.00
120.47    1480.00
120.57    1421.00
120.67    1200.19
120.77    1194.00
120.87    1129.37
120.97    1061.20
121.07     975.97
121.17     969.40
121.27     918.00
121.37     874.00
121.47     830.00
121.57     857.62
121.67     783.00
121.77     743.17
121.87     747.00
121.97     801.00
122.07     714.00
122.17     776.04
122.27     761.78
122.37     699.00
122.47     711.00
122.57     699.00
122.67     776.00
122.77     772.92
122.87     727.00
122.97     717.00
123.07     770.20
123.17     704.74
123.27     717.48
123.37     811.74
123.47     699.00
123.57     753.43
123.67     801.00
123.77     786.69
123.87     826.42
123.97     771.00
124.07     846.01
124.17     811.00
124.27     867.00
124.37     816.84
124.47     869.00
124.57     817.79
124.67     855.00
124.77     785.00
124.87     766.88
124.97     813.78
