  9.97     571.26
 10.07     535.31
 10.17     596.00
 10.27     591.00
 10.37     563.06
 10.47     585.00
 10.57     568.50
 10.67     597.00
 10.77     568.00
 10.87     551.00
 10.97     577.00
 11.07     615.00
 11.17     583.18
 11.27     600.00
 11.37     601.00
 11.47     615.00
 11.57     578.41
 11.67     650.00
 11.77     617.00
 11.87     654.00
 11.97     631.00
 12.07     713.00
 12.17     682.00
 12.27     695.00
 12.37     605.00
 12.47     676.98
 12.57     595.00
 12.67     575.00
 12.77     596.00
 12.87     572.00
 12.97     581.00
 13.07     565.00
 13.17     538.15
 13.27     598.00
 13.37     600.00
 13.47     557.00
 13.57     550.71
 13.67     553.00
 13.77     556.00
 13.87     585.00
 13.97     553.00
 14.07     522.00
 14.17     517.00
 14.27     566.15
 14.37     578.00
 14.47     538.00
 14.57     546.00
 14.67     603.02
 14.77     595.00
 14.87     563.00
 14.97     592.00
 15.07     548.34
 15.17     554.00
 15.27     542.00
 15.37     566.00
 15.47     555.62
 15.57     600.97
 15.67     567.00
 15.77     591.00
 15.87     513.00
 15.97     622.00
 16.07     606.37
 16.17     527.00
 16.27     519.15
 16.37     574.00
 16.47     565.54
 16.57     537.00
 16.67     509.00
 16.77     539.00
 16.87     504.00
 16.97     587.44
 17.07     608.72
 17.17     573.00
 17.27     556.16
 17.37     583.00
 17.47     578.00
 17.57     549.33
 17.67     579.00
 17.77     558.00
 17.87     591.00
 17.97     542.00
 18.07     546.00
 18.17     577.00
 18.27     515.00
 18.37     538.97
 18.47     549.00
 18.57     557.00
 18.67     586.49
 18.77     543.00
 18.87     585.11
 18.97     588.00
 19.07     570.00
 19.17     595.69
 19.27     549.00
 19.37     561.00
 19.47     573.42
 19.57     588.00
 19.67     554.55
 19.77     531.06
 19.87     528.00
 19.97     531.00
 20.07     528.37
 20.17     594.44
 20.27     551.00
 20.37     519.11
 20.47     569.00
 20.57     587.73
 20.67     541.81
 20.77     553.00
 20.87     520.00
 20.97     547.00
 21.07     573.90
 21.17     544.59
 21.27     580.00
 21.37     550.00
 21.47     525.10
 21.57     585.00
 21.67     542.00
 21.77     574.63
 21.87     576.45
 21.97     543.00
 22.07     592.00
 22.17     578.00
 22.27     584.28
 22.37     512.81
 22.47     582.00
 22.57     544.05
 22.67     509.00
 22.77     598.00
 22.87     571.00
 22.97     521.00
 23.07     538.00
 23.17     573.00
 23.27     529.00
 23.37     542.00
 23.47     537.00
 23.57     510.00
 23.67     507.81
 23.77     568.00
 23.87     541.00
 23.97     591.49
 24.07     565.00
 24.17     558.00
 24.27     505.10
 24.37     580.00
 24.47     534.37
 24.57     615.00
 24.67     629.00
 24.77     680.29
 24.87     626.00
 24.97     563.64
 25.07     564.34
 25.17     591.35
 25.27     569.00
 25.37     568.00
 25.47     535.31
 25.57     543.00
 25.67     536.00
 25.77     511.13
 25.87     537.00
 25.97     537.00
 26.07     550.00
 26.17     537.00
 26.27     539.00
 26.37     527.00
 26.47     492.42
 26.57     522.00
 26.67     537.00
 26.77     557.00
 26.87     529.72
 26.97     603.00
 27.07     550.74
 27.17     504.35
 27.27     561.00
 27.37     546.00
 27.47     546.00
 27.57     547.74
 27.67     553.05
 27.77     527.56
 27.87     612.51
 27.97     672.00
 28.07     746.57
 28.17     885.00
 28.27     998.20
 28.37     888.19
 28.47     840.90
 28.57     716.00
 28.67     707.00
 28.77     686.49
 28.87     760.00
 28.97     824.55
 29.07     747.27
 29.17     756.61
 29.27     603.65
 29.37     643.85
 29.47     604.00
 29.57     554.14
 29.67     635.00
 29.77     597.00
 29.87     569.71
 29.97     603.00
 30.07     557.00
 30.17     522.00
 30.27     497.15
 30.37     561.00
 30.47     542.00
 30.57     551.00
 30.67     613.00
 30.77     589.00
 30.87     583.00
 30.97     636.00
 31.07     590.00
 31.17     560.77
 31.27     609.00
 31.37     488.00
 31.47     605.00
 31.57     532.00
 31.67     546.97
 31.77     544.00
 31.87     551.06
 31.97     510.66
 32.07     497.56
 32.17     549.63
 32.27     535.00
 32.37     551.00
 32.47     539.00
 32.57     574.00
 32.67     525.00
 32.77     535.00
 32.87     574.00
 32.97     504.00
 33.07     533.00
 33.17     494.91
 33.27     520.00
 33.37     600.00
 33.47     553.25
 33.57     586.00
 33.67     599.36
 33.77     679.80
 33.87     848.00
 33.97    1055.28
 34.07    1124.00
 34.17    1000.00
 34.27     925.00
 34.37     764.00
 34.47     621.47
 34.57     562.78
 34.67     582.16
 34.77     548.00
 34.87     544.21
 34.97     574.59
 35.07     497.00
 35.17     535.36
 35.27     542.26
 35.37     543.00
 35.47     523.00
 35.57     524.00
 35.67     485.00
 35.77     546.00
 35.87     511.00
 35.97     514.13
 36.07     551.47
 36.17     548.74
 36.27     479.04
 36.37     496.00
 36.47     504.06
 36.57     548.05
 36.67     488.00
 36.77     483.00
 36.87     481.00
 36.97     489.00
 37.07     488.56
 37.17     536.00
 37.27     514.00
 37.37     469.82
 37.47     493.00
 37.57     549.79
 37.67     501.00
 37.77     517.00
 37.87     502.61
 37.97     522.00
 38.07     525.00
 38.17     551.45
 38.27     514.60
 38.37     501.00
 38.47     526.00
 38.57     480.85
 38.67     503.00
 38.77     542.86
 38.87     497.00
 38.97     483.00
 39.07     484.00
 39.17     499.00
 39.27     524.00
 39.37     489.41
 39.47     501.46
 39.57     497.00
 39.67     511.00
 39.77     516.00
 39.87     480.00
 39.97     478.23
 40.07     529.60
 40.17     507.00
 40.27     518.38
 40.37     504.53
 40.47     500.00
 40.57     530.00
 40.67     477.00
 40.77     549.74
 40.87     479.74
 40.97     542.66
 41.07     460.00
 41.17     509.50
 41.27     479.63
 41.37     524.62
 41.47     535.06
 41.57     542.40
 41.67     510.00
 41.77     522.83
 41.87     463.68
 41.97     498.00
 42.07     514.00
 42.17     482.70
 42.27     516.00
 42.37     546.32
 42.47     576.25
 42.57     597.90
 42.67     644.84
 42.77     575.00
 42.87     595.00
 42.97     564.00
 43.07     571.70
 43.17     535.00
 43.27     513.00
 43.37     467.76
 43.47     540.78
 43.57     494.00
 43.67     505.00
 43.77     478.66
 43.87     473.24
 43.97     534.13
 44.07     497.85
 44.17     494.29
 44.27     467.00
 44.37     495.68
 44.47     466.00
 44.57     496.64
 44.67     463.00
 44.77     524.00
 44.87     501.00
 44.97     504.12
 45.07     532.00
 45.17     524.00
 45.27     502.65
 45.37     543.51
 45.47     537.00
 45.57     479.00
 45.67     506.00
 45.77     531.01
 45.87     517.80
 45.97     447.00
 46.07     465.17
 46.17     489.17
 46.27     490.00
 46.37     516.00
 46.47     516.00
 46.57     505.85
 46.67     518.00
 46.77     490.29
 46.87     533.08
 46.97     505.12
 47.07     509.00
 47.17     516.75
 47.27     575.00
 47.37     526.00
 47.47     568.26
 47.57     573.00
 47.67     613.23
 47.77     615.76
 47.87     621.00
 47.97     658.00
 48.07     596.00
 48.17     594.45
 48.27     537.00
 48.37     562.44
 48.47     507.00
 48.57     515.99
 48.67     533.82
 48.77     563.59
 48.87     558.00
 48.97     564.00
 49.07     585.00
 49.17     608.00
 49.27     617.00
 49.37     674.00
 49.47     708.00
 49.57     799.00
 49.67     878.20
 49.77    1136.26
 49.87    1457.00
 49.97    1890.77
 50.07    2284.00
 50.17    2470.00
 50.27    2580.78
 50.37    2336.65
 50.47    1935.00
 50.57    1429.00
 50.67    1114.00
 50.77     838.00
 50.87     702.00
 50.97     710.28
 51.07     678.33
 51.17     596.04
 51.27     606.00
 51.37     563.00
 51.47     538.72
 51.57     544.61
 51.67     622.00
 51.77     577.00
 51.87     502.00
 51.97     549.16
 52.07     559.61
 52.17     593.00
 52.27     509.62
 52.37     508.58
 52.47     554.82
 52.57     530.40
 52.67     549.00
 52.77     628.00
 52.87     628.55
 52.97     711.00
 53.07     744.00
 53.17     924.00
 53.27    1010.00
 53.37    1145.00
 53.47    1128.00
 53.57    1161.23
 53.67    1075.00
 53.77     981.00
 53.87     890.82
 53.97     831.00
 54.07     670.00
 54.17     628.00
 54.27     557.00
 54.37     534.00
 54.47     564.00
 54.57     497.23
 54.67     557.00
 54.77     537.00
 54.87     596.00
 54.97     569.00
 55.07     543.86
 55.17     549.00
 55.27     537.00
 55.37     571.00
 55.47     586.36
 55.57     554.42
 55.67     568.00
 55.77     621.84
 55.87     572.57
 55.97     585.29
 56.07     657.00
 56.17     729.08
 56.27     864.00
 56.37    1144.54
 56.47    1478.18
 56.57    1860.13
 56.67    2264.44
 56.77    2570.57
 56.87    2653.03
 56.97    2631.00
 57.07    2366.67
 57.17    2182.00
 57.27    1653.00
 57.37    1290.00
 57.47    1049.00
 57.57     883.41
 57.67     744.87
 57.77     718.00
 57.87     673.58
 57.97     668.00
 58.07     692.00
 58.17     757.00
 58.27     766.00
 58.37     895.00
 58.47     979.00
 58.57    1116.00
 58.67    1205.00
 58.77    1366.00
 58.87    1501.00
 58.97    1538.00
 59.07    1624.00
 59.17    1516.00
 59.27    1414.00
 59.37    1322.79
 59.47    1310.00
 59.57    1165.09
 59.67    1075.37
 59.77    1167.00
 59.87    1232.00
 59.97    1286.00
 60.07    1420.00
 60.17    1495.03
 60.27    1664.00
 60.37    1571.00
 60.47    1364.35
 60.57    1249.00
 60.67    1101.00
 60.77     900.00
 60.87     772.73
 60.97     765.58
 61.07     644.00
 61.17     643.31
 61.27     624.00
 61.37     619.00
 61.47     659.17
 61.57     759.00
 61.67     829.00
 61.77     991.00
 61.87    1093.00
 61.97    1293.00
 62.07    1460.44
 62.17    1438.00
 62.27    1368.00
 62.37    1313.59
 62.47    1245.99
 62.57    1072.00
 62.67     904.00
 62.77     810.00
 62.87     697.00
 62.97     617.36
 63.07     641.00
 63.17     571.67
 63.27     530.19
 63.37     606.67
 63.47     619.00
 63.57     545.00
 63.67     619.00
 63.77     615.00
 63.87     644.00
 63.97     625.79
 64.07     727.83
 64.17     783.00
 64.27     832.00
 64.37     882.00
 64.47     936.00
 64.57    1034.00
 64.67    1016.08
 64.77    1056.16
 64.87    1018.00
 64.97     928.00
 65.07     866.12
 65.17     756.00
 65.27     754.00
 65.37     693.21
 65.47     623.00
 65.57     572.00
 65.67     589.00
 65.77     601.00
 65.87     559.00
 65.97     537.80
 66.07     559.15
 66.17     559.00
 66.27     569.00
 66.37     502.00
 66.47     528.29
 66.57     537.80
 66.67     567.00
 66.77     586.49
 66.87     618.00
 66.97     592.00
 67.07     608.00
 67.17     682.00
 67.27     819.64
 67.37     869.55
 67.47    1068.00
 67.57    1273.00
 67.67    1498.00
 67.77    1858.00
 67.87    2090.00
 67.97    2196.00
 68.07    2476.84
 68.17    2499.00
 68.27    2296.00
 68.37    2095.00
 68.47    1769.00
 68.57    1522.00
 68.67    1297.00
 68.77    1083.00
 68.87     885.00
 68.97     722.00
 69.07     649.00
 69.17     609.00
 69.27     650.00
 69.37     651.00
 69.47     601.00
 69.57     594.86
 69.67     531.00
 69.77     545.69
 69.87     549.49
 69.97     585.00
 70.07     548.30
 70.17     575.00
 70.27     556.00
 70.37     584.00
 70.47     555.36
 70.57     582.18
 70.67     578.00
 70.77     624.34
 70.87     630.51
 70.97     654.48
 71.07     702.63
 71.17     709.00
 71.27     842.36
 71.37     983.00
 71.47    1042.00
 71.57    1258.00
 71.67    1417.70
 71.77    1575.63
 71.87    1849.00
 71.97    1870.00
 72.07    1893.00
 72.17    1808.50
 72.27    1703.48
 72.37    1693.00
 72.47    1480.00
 72.57    1302.00
 72.67    1140.00
 72.77    1054.00
 72.87     969.00
 72.97     857.73
 73.07     798.00
 73.17     758.00
 73.27     764.83
 73.37     685.00
 73.47     668.00
 73.57     629.00
 73.67     599.61
 73.77     614.00
 73.87     585.00
 73.97     517.00
 74.07     595.39
 74.17     600.00
 74.27     584.25
 74.37     627.00
 74.47     615.00
 74.57     648.00
 74.67     609.00
 74.77     627.00
 74.87     610.00
 74.97     521.07
 75.07     525.46
 75.17     573.90
 75.27     557.00
 75.37     568.55
 75.47     579.00
 75.57     565.00
 75.67     606.64
 75.77     582.92
 75.87     611.00
 75.97     609.00
 76.07     586.00
 76.17     637.00
 76.27     641.00
 76.37     677.50
 76.47     700.82
 76.57     730.00
 76.67     704.00
 76.77     641.00
 76.87     652.14
 76.97     608.69
 77.07     587.00
 77.17     596.03
 77.27     560.00
 77.37     554.00
 77.47     566.00
 77.57     544.21
 77.67     501.00
 77.77     570.59
 77.87     549.00
 77.97     517.00
 78.07     546.41
 78.17     486.00
 78.27     504.00
 78.37     523.00
 78.47     560.00
 78.57     535.00
 78.67     499.85
 78.77     515.75
 78.87     549.00
 78.97     564.00
 79.07     506.66
 79.17     504.00
 79.27     504.00
 79.37     547.00
 79.47     531.00
 79.57     569.99
 79.67     539.00
 79.77     537.16
 79.87     582.91
 79.97     559.65
 80.07     524.00
 80.17     533.00
 80.27     537.00
 80.37     593.00
 80.47     548.25
 80.57     634.00
 80.67     611.05
 80.77     672.00
 80.87     691.70
 80.97     682.43
 81.07     686.60
 81.17     754.91
 81.27     753.00
 81.37     706.31
 81.47     755.00
 81.57     775.98
 81.67     750.64
 81.77     750.00
 81.87     699.00
 81.97     642.47
 82.07     698.76
 82.17     599.04
 82.27     578.00
 82.37     614.43
 82.47     593.62
 82.57     569.06
 82.67     573.00
 82.77     556.39
 82.87     533.09
 82.97     532.09
 83.07     523.00
 83.17     591.05
 83.27     531.00
 83.37     525.27
 83.47     533.10
 83.57     564.00
 83.67     550.00
 83.77     579.32
 83.87     543.00
 83.97     583.00
 84.07     613.00
 84.17     627.23
 84.27     553.00
 84.37     532.06
 84.47     567.00
 84.57     536.76
 84.67     549.29
 84.77     507.93
 84.87     524.00
 84.97     498.72
 85.07     489.20
 85.17     526.00
 85.27     537.00
 85.37     538.00
 85.47     557.00
 85.57     545.43
 85.67     507.75
 85.77     547.00
 85.87     509.00
 85.97     524.93
 86.07     555.00
 86.17     554.00
 86.27     511.00
 86.37     529.00
 86.47     511.00
 86.57     617.00
 86.67     562.00
 86.77     571.00
 86.87     580.72
 86.97     627.93
 87.07     685.00
 87.17     633.57
 87.27     604.78
 87.37     621.00
 87.47     591.10
 87.57     637.00
 87.67     648.00
 87.77     622.09
 87.87     669.00
 87.97     636.10
 88.07     606.00
 88.17     609.00
 88.27     635.00
 88.37     581.00
 88.47     578.00
 88.57     561.00
 88.67     626.00
 88.77     618.00
 88.87     601.52
 88.97     616.00
 89.07     615.00
 89.17     583.00
 89.27     618.00
 89.37     597.00
 89.47     593.56
 89.57     591.00
 89.67     560.00
 89.77     575.34
 89.87     552.00
 89.97     539.00
 90.07     548.78
 90.17     551.00
 90.27     522.00
 90.37     555.00
 90.47     573.91
 90.57     528.00
 90.67     517.00
 90.77     514.00
 90.87     510.00
 90.97     524.10
 91.07     498.00
 91.17     563.07
 91.27     500.00
 91.37     487.14
 91.47     555.00
 91.57     557.00
 91.67     501.26
 91.77     544.31
 91.87     535.73
 91.97     577.00
 92.07     548.75
 92.17     520.00
 92.27     610.00
 92.37     546.00
 92.47     664.00
 92.57     645.00
 92.67     659.00
 92.77     706.00
 92.87     672.09
 92.97     729.00
 93.07     777.00
 93.17     805.00
 93.27     806.86
 93.37     788.00
 93.47     834.26
 93.57     840.00
 93.67     821.72
 93.77     835.00
 93.87     845.00
 93.97     875.00
 94.07     843.00
 94.17     858.00
 94.27     837.00
 94.37     862.39
 94.47     883.31
 94.57     879.00
 94.67     949.00
 94.77     913.00
 94.87     876.35
 94.97     888.00
 95.07     946.00
 95.17     827.70
 95.27     791.44
 95.37     818.00
 95.47     783.00
 95.57     783.00
 95.67     713.00
 95.77     723.00
 95.87     739.17
 95.97     693.00
 96.07     749.00
 96.17     721.79
 96.27     697.00
 96.37     714.53
 96.47     840.00
 96.57     840.29
 96.67     951.00
 96.77     988.53
 96.87    1002.68
 96.97    1123.00
 97.07    1164.54
 97.17    1285.09
 97.27    1338.71
 97.37    1394.86
 97.47    1458.24
 97.57    1400.88
 97.67    1499.00
 97.77    1331.00
 97.87    1396.00
 97.97    1315.26
 98.07    1195.00
 98.17    1158.00
 98.27    1098.00
 98.37     986.19
 98.47     944.30
 98.57     859.00
 98.67     867.16
 98.77     806.29
 98.87     862.75
 98.97     828.00
 99.07     809.58
 99.17     835.00
 99.27     891.00
 99.37     987.00
 99.47    1007.00
 99.57    1039.00
 99.67    1156.00
 99.77    1225.00
 99.87    1351.00
 99.97    1474.00
100.07    1686.90
100.17    1793.00
100.27    1854.00
100.37    1915.00
100.47    2041.00
100.57    1958.38
100.67    2114.00
100.77    2091.00
100.87    2107.00
100.97    2076.00
101.07    1907.45
101.17    1923.00
101.27    1863.00
101.37    1707.00
101.47    1616.74
101.57    1566.00
101.67    1494.80
101.77    1405.45
101.87    1295.00
101.97    1251.00
102.07    1154.00
102.17    1147.00
102.27    1167.67
102.37    1164.00
102.47    1077.00
102.57    1102.00
102.67    1057.25
102.77    1026.00
102.87     987.71
102.97     933.00
103.07     929.00
103.17     940.24
103.27     890.87
103.37     773.88
103.47     743.00
103.57     737.00
103.67     703.00
103.77     695.00
103.87     669.00
103.97     596.00
104.07     592.00
104.17     543.10
104.27     586.00
104.37     531.00
104.47     570.00
104.57     546.00
104.67     544.84
104.77     561.00
104.87     581.70
104.97     545.00
105.07     528.00
105.17     500.29
105.27     522.61
105.37     515.52
105.47     600.00
105.57     521.00
105.67     540.00
105.77     578.00
105.87     607.63
105.97     604.00
106.07     565.00
106.17     545.00
106.27     590.00
106.37     650.00
106.47     595.37
106.57     576.00
106.67     622.00
106.77     636.00
106.87     637.82
106.97     654.00
107.07     657.00
107.17     699.00
107.27     678.00
107.37     755.37
107.47     662.00
107.57     688.00
107.67     709.00
107.77     690.00
107.87     687.00
107.97     732.98
108.07     677.41
108.17     696.00
108.27     659.00
108.37     715.00
108.47     652.77
108.57     700.14
108.67     736.32
108.77     732.50
108.87     718.00
108.97     654.00
109.07     654.00
109.17     671.06
109.27     657.00
109.37     649.84
109.47     655.00
109.57     638.00
109.67     633.00
109.77     643.00
109.87     623.00
109.97     613.78
110.07     648.00
110.17     603.00
110.27     583.00
110.37     574.80
110.47     557.00
110.57     527.00
110.67     554.00
110.77     511.00
110.87     533.27
110.97     563.00
111.07     584.89
111.17     567.00
111.27     590.00
111.37     544.00
111.47     582.00
111.57     539.00
111.67     535.27
111.77     602.00
111.87     517.83
111.97     564.68
112.07     602.00
112.17     555.00
112.27     552.74
112.37     590.41
112.47     551.00
112.57     598.00
112.67     575.00
112.77     605.00
112.87     650.00
112.97     648.00
113.07     668.81
113.17     723.00
113.27     728.00
113.37     765.00
113.47     756.13
113.57     790.00
113.67     818.24
113.77     876.00
113.87     944.00
113.97     932.95
114.07    1038.00
114.17    1095.00
114.27    1224.84
114.37    1247.53
114.47    1287.00
114.57    1422.00
114.67    1555.00
114.77    1703.00
114.87    1852.26
114.97    1966.11
115.07    2384.00
115.17    2554.00
115.27    2853.70
115.37    3054.00
115.47    3332.00
115.57    3699.00
115.67    4115.97
115.77    4528.83
115.87    4990.35
115.97    5407.10
116.07    5539.00
116.17    6006.00
116.27    6176.00
116.37    6633.00
116.47    6866.00
116.57    7054.00
116.67    6793.82
116.77    7010.00
116.87    6922.00
116.97    6736.00
117.07    6232.00
117.17    6255.53
117.27    5670.00
117.37    5436.00
117.47    4964.85
117.57    4633.00
117.67    4365.00
117.77    4020.00
117.87    3689.00
117.97    3152.98
118.07    2847.58
118.17    2559.00
118.27    2203.61
118.37    2042.00
118.47    1738.23
118.57    1570.00
118.67    1335.00
118.77    1206.17
118.87    1194.24
118.97    1068.00
119.07     927.00
119.17     879.00
119.27     868.88
119.37     827.00
119.47     685.00
119.57     763.48
119.67     651.67
119.77     604.00
119.87     637.00
119.97     610.00
120.07     652.00
120.17     614.52
120.27     579.00
120.37     603.77
120.47     622.59
120.57     562.00
120.67     529.61
120.77     530.26
120.87     555.00
120.97     605.62
121.07     603.00
121.17     563.00
121.27     551.31
121.37     602.00
121.47     547.00
121.57     597.00
121.67     567.18
121.77     619.27
121.87     624.65
121.97     608.00
122.07     559.00
122.17     653.00
122.27     622.00
122.37     663.15
122.47     634.34
122.57     609.67
122.67     628.00
122.77     636.91
122.87     670.25
122.97     623.00
123.07     676.00
123.17     589.00
123.27     650.00
123.37     662.00
123.47     629.00
123.57     631.00
123.67     641.00
123.77     625.00
123.87     639.00
123.97     636.22
124.07     629.00
124.17     590.33
124.27     569.14
124.37     564.00
124.47     606.00
124.57     607.00
124.67     617.00
124.77     600.00
124.87     587.00
124.97     607.77
