  9.97     735.00
 10.07     729.20
 10.17     646.93
 10.27     718.00
 10.37     691.00
 10.47     672.62
 10.57     726.00
 10.67     709.00
 10.77     708.91
 10.87     685.00
 10.97     649.47
 11.07     722.15
 11.17     622.32
 11.27     688.00
 11.37     684.00
 11.47     737.00
 11.57     646.53
 11.67     741.00
 11.77     737.00
 11.87     810.00
 11.97     726.16
 12.07     841.00
 12.17     794.18
 12.27     816.35
 12.37     822.00
 12.47     717.46
 12.57     764.00
 12.67     708.00
 12.77     646.00
 12.87     639.61
 12.97     649.00
 13.07     623.90
 13.17     646.00
 13.27     699.65
 13.37     639.00
 13.47     646.81
 13.57     656.00
 13.67     641.00
 13.77     684.85
 13.87     668.00
 13.97     621.59
 14.07     595.00
 14.17     617.00
 14.27     618.70
 14.37     604.00
 14.47     645.00
 14.57     642.95
 14.67     593.00
 14.77     629.00
 14.87     604.00
 14.97     591.00
 15.07     649.88
 15.17     632.00
 15.27     625.85
 15.37     578.00
 15.47     672.00
 15.57     640.00
 15.67     646.59
 15.77     605.00
 15.87     623.00
 15.97     664.00
 16.07     607.00
 16.17     626.00
 16.27     619.00
 16.37     656.78
 16.47     649.00
 16.57     609.00
 16.67     605.90
 16.77     574.00
 16.87     598.00
 16.97     645.00
 17.07     589.00
 17.17     656.61
 17.27     626.00
 17.37     637.00
 17.47     637.00
 17.57     577.00
 17.67     617.82
 17.77     656.87
 17.87     603.00
 17.97     598.56
 18.07     626.00
 18.17     679.24
 18.27     604.00
 18.37     646.61
 18.47     627.00
 18.57     586.97
 18.67     627.00
 18.77     628.20
 18.87     648.00
 18.97     620.00
 19.07     676.00
 19.17     647.69
 19.27     597.00
 19.37     607.60
 19.47     580.87
 19.57     616.00
 19.67     651.00
 19.77     597.00
 19.87     606.00
 19.97     585.40
 20.07     608.24
 20.17     597.00
 20.27     574.00
 20.37     641.00
 20.47     607.00
 20.57     611.00
 20.67     607.00
 20.77     638.00
 20.87     576.08
 20.97     584.00
 21.07     651.58
 21.17     566.22
 21.27     617.00
 21.37     654.75
 21.47     607.23
 21.57     643.46
 21.67     601.00
 21.77     651.83
 21.87     545.00
 21.97     635.00
 22.07     634.00
 22.17     560.00
 22.27     615.00
 22.37     589.00
 22.47     624.00
 22.57     599.00
 22.67     624.16
 22.77     623.00
 22.87     634.00
 22.97     609.95
 23.07     607.00
 23.17     618.26
 23.27     584.74
 23.37     617.00
 23.47     596.00
 23.57     596.00
 23.67     648.00
 23.77     645.00
 23.87     648.00
 23.97     662.00
 24.07     574.31
 24.17     602.00
 24.27     616.00
 24.37     646.38
 24.47     608.00
 24.57     702.00
 24.67     642.00
 24.77     653.00
 24.87     694.00
 24.97     707.00
 25.07     646.14
 25.17     669.00
 25.27     653.54
 25.37     696.00
 25.47     626.00
 25.57     663.00
 25.67     652.00
 25.77     583.08
 25.87     580.35
 25.97     667.16
 26.07     608.00
 26.17     631.00
 26.27     654.00
 26.37     608.00
 26.47     657.00
 26.57     693.00
 26.67     647.21
 26.77     618.00
 26.87     632.00
 26.97     627.00
 27.07     650.69
 27.17     737.00
 27.27     622.37
 27.37     717.00
 27.47     745.00
 27.57     715.82
 27.67     778.00
 27.77     849.98
 27.87     958.37
 27.97    1249.00
 28.07    1785.00
 28.17    3017.00
 28.27    4554.00
 28.37    5885.00
 28.47    6321.63
 28.57    5603.00
 28.67    4148.00
 28.77    3045.00
 28.87    2720.50
 28.97    3211.00
 29.07    3605.00
 29.17    3599.00
 29.27    3108.00
 29.37    2454.12
 29.47    1649.00
 29.57    1270.00
 29.67     977.96
 29.77     884.00
 29.87     782.33
 29.97     794.00
 30.07     764.00
 30.17     657.87
 30.27     677.00
 30.37     763.00
 30.47     708.00
 30.57     690.00
 30.67     603.03
 30.77     672.00
 30.87     670.51
 30.97     697.00
 31.07     752.00
 31.17     721.33
 31.27     754.00
 31.37     730.00
 31.47     660.77
 31.57     656.66
 31.67     683.00
 31.77     662.00
 31.87     668.00
 31.97     603.00
 32.07     570.26
 32.17     644.00
 32.27     591.00
 32.37     603.77
 32.47     651.00
 32.57     554.15
 32.67     625.53
 32.77     615.00
 32.87     570.86
 32.97     625.00
 33.07     572.00
 33.17     615.00
 33.27     583.00
 33.37     644.48
 33.47     577.00
 33.57     658.00
 33.67     633.07
 33.77     687.78
 33.87     705.00
 33.97     905.09
 34.07     998.00
 34.17    1088.00
 34.27    1213.48
 34.37    1169.00
 34.47    1119.00
 34.57     959.52
 34.67     871.35
 34.77     693.08
 34.87     678.00
 34.97     624.37
 35.07     595.00
 35.17     563.50
 35.27     601.98
 35.37     564.00
 35.47     593.00
 35.57     562.29
 35.67     625.64
 35.77     566.00
 35.87     596.00
 35.97     610.38
 36.07     587.00
 36.17     595.00
 36.27     631.00
 36.37     597.00
 36.47     613.00
 36.57     604.00
 36.67     593.00
 36.77     584.00
 36.87     577.00
 36.97     515.00
 37.07     613.00
 37.17     581.00
 37.27     555.43
 37.37     549.18
 37.47     620.41
 37.57     542.86
 37.67     599.00
 37.77     598.33
 37.87     619.44
 37.97     652.00
 38.07     663.97
 38.17     688.00
 38.27     725.00
 38.37     733.65
 38.47     697.00
 38.57     640.00
 38.67     654.04
 38.77     638.00
 38.87     579.66
 38.97     545.00
 39.07     556.42
 39.17     547.47
 39.27     586.00
 39.37     558.00
 39.47     587.00
 39.57     554.00
 39.67     584.00
 39.77     552.00
 39.87     550.00
 39.97     573.00
 40.07     607.41
 40.17     587.00
 40.27     567.00
 40.37     633.00
 40.47     540.00
 40.57     558.16
 40.67     616.38
 40.77     579.48
 40.87     533.21
 40.97     561.47
 41.07     553.00
 41.17     574.00
 41.27     589.00
 41.37     612.66
 41.47     590.00
 41.57     618.99
 41.67     590.98
 41.77     560.06
 41.87     577.68
 41.97     603.00
 42.07     605.66
 42.17     555.00
 42.27     575.53
 42.37     563.00
 42.47     636.01
 42.57     590.10
 42.67     620.00
 42.77     624.63
 42.87     664.85
 42.97     672.00
 43.07     674.00
 43.17     620.00
 43.27     672.00
 43.37     666.00
 43.47     578.18
 43.57     648.00
 43.67     622.13
 43.77     575.00
 43.87     617.00
 43.97     624.92
 44.07     558.00
 44.17     584.00
 44.27     609.00
 44.37     565.00
 44.47     602.00
 44.57     605.00
 44.67     564.00
 44.77     602.80
 44.87     591.00
 44.97     585.00
 45.07     560.15
 45.17     624.15
 45.27     593.00
 45.37     536.88
 45.47     576.14
 45.57     594.00
 45.67     570.00
 45.77     578.00
 45.87     579.16
 45.97     574.00
 46.07     547.57
 46.17     630.00
 46.27     595.00
 46.37     566.10
 46.47     562.66
 46.57     582.62
 46.67     591.00
 46.77     574.00
 46.87     553.00
 46.97     608.00
 47.07     603.00
 47.17     580.00
 47.27     555.04
 47.37     561.52
 47.47     550.00
 47.57     576.00
 47.67     597.00
 47.77     646.57
 47.87     642.57
 47.97     604.56
 48.07     683.70
 48.17     651.67
 48.27     661.00
 48.37     612.00
 48.47     653.00
 48.57     639.06
 48.67     609.00
 48.77     597.47
 48.87     620.80
 48.97     655.00
 49.07     609.00
 49.17     580.24
 49.27     612.00
 49.37     612.13
 49.47     639.00
 49.57     697.32
 49.67     722.43
 49.77     727.47
 49.87     898.29
 49.97     972.00
 50.07    1268.00
 50.17    1653.00
 50.27    2101.10
 50.37    2518.00
 50.47    3013.54
 50.57    2913.00
 50.67    2672.00
 50.77    2413.35
 50.87    1850.00
 50.97    1522.52
 51.07    1165.00
 51.17     946.00
 51.27     885.00
 51.37     807.00
 51.47     676.72
 51.57     762.86
 51.67     779.00
 51.77     645.36
 51.87     711.00
 51.97     692.00
 52.07     705.00
 52.17     606.24
 52.27     681.52
 52.37     599.20
 52.47     642.00
 52.57     667.00
 52.67     680.13
 52.77     668.00
 52.87     694.00
 52.97     681.63
 53.07     680.58
 53.17     722.00
 53.27     789.00
 53.37     777.00
 53.47     938.00
 53.57     979.00
 53.67    1107.61
 53.77    1234.00
 53.87    1310.81
 53.97    1217.00
 54.07    1286.77
 54.17    1151.00
 54.27    1023.36
 54.37     896.00
 54.47     838.64
 54.57     806.56
 54.67     767.95
 54.77     713.78
 54.87     683.00
 54.97     682.75
 55.07     589.00
 55.17     647.00
 55.27     633.04
 55.37     697.67
 55.47     687.00
 55.57     648.00
 55.67     669.00
 55.77     689.00
 55.87     641.48
 55.97     722.27
 56.07     666.53
 56.17     653.21
 56.27     734.00
 56.37     776.00
 56.47     844.60
 56.57     927.38
 56.67    1225.28
 56.77    1402.00
 56.87    1596.95
 56.97    2109.00
 57.07    2242.73
 57.17    2570.00
 57.27    2756.00
 57.37    2663.78
 57.47    2460.00
 57.57    2082.07
 57.67    1740.00
 57.77    1511.49
 57.87    1155.00
 57.97     967.00
 58.07     902.00
 58.17     838.99
 58.27     779.00
 58.37     748.85
 58.47     809.00
 58.57     778.14
 58.67     855.00
 58.77     975.65
 58.87     936.00
 58.97    1046.00
 59.07    1127.88
 59.17    1221.00
 59.27    1306.00
 59.37    1325.00
 59.47    1319.00
 59.57    1383.00
 59.67    1244.00
 59.77    1298.00
 59.87    1164.67
 59.97    1186.00
 60.07    1153.24
 60.17    1291.00
 60.27    1325.32
 60.37    1449.00
 60.47    1502.00
 60.57    1510.11
 60.67    1581.00
 60.77    1599.00
 60.87    1444.19
 60.97    1340.00
 61.07    1221.00
 61.17    1011.00
 61.27     914.13
 61.37     908.00
 61.47     820.95
 61.57     817.00
 61.67     780.00
 61.77     798.00
 61.87     866.00
 61.97     940.55
 62.07    1036.00
 62.17    1209.11
 62.27    1347.00
 62.37    1468.00
 62.47    1675.47
 62.57    1689.15
 62.67    1580.00
 62.77    1550.00
 62.87    1476.00
 62.97    1237.79
 63.07    1169.00
 63.17    1080.70
 63.27     858.15
 63.37     836.75
 63.47     777.00
 63.57     769.00
 63.67     748.00
 63.77     735.22
 63.87     710.00
 63.97     638.22
 64.07     686.00
 64.17     744.45
 64.27     686.00
 64.37     844.00
 64.47     870.00
 64.57     935.29
 64.67     946.88
 64.77    1131.34
 64.87    1276.00
 64.97    1234.70
 65.07    1406.00
 65.17    1361.72
 65.27    1394.00
 65.37    1337.00
 65.47    1316.00
 65.57    1099.00
 65.67    1100.00
 65.77     967.00
 65.87     920.25
 65.97     827.00
 66.07     780.00
 66.17     716.00
 66.27     716.00
 66.37     671.00
 66.47     690.82
 66.57     647.00
 66.67     707.15
 66.77     634.88
 66.87     725.42
 66.97     702.25
 67.07     675.00
 67.17     665.00
 67.27     707.00
 67.37     730.00
 67.47     767.00
 67.57     757.00
 67.67     853.00
 67.77    1031.74
 67.87    1157.00
 67.97    1249.00
 68.07    1473.00
 68.17    1665.00
 68.27    2043.00
 68.37    2183.82
 68.47    2464.83
 68.57    2495.00
 68.67    2403.35
 68.77    2337.32
 68.87    2184.00
 68.97    1889.00
 69.07    1697.00
 69.17    1452.33
 69.27    1168.00
 69.37    1127.00
 69.47     985.00
 69.57     903.65
 69.67     775.04
 69.77     827.00
 69.87     728.95
 69.97     711.00
 70.07     738.00
 70.17     726.00
 70.27     755.00
 70.37     634.78
 70.47     677.00
 70.57     711.00
 70.67     706.89
 70.77     656.77
 70.87     654.00
 70.97     712.25
 71.07     653.00
 71.17     686.00
 71.27     656.00
 71.37     724.00
 71.47     785.00
 71.57     845.39
 71.67     815.00
 71.77     910.40
 71.87    1128.61
 71.97    1236.00
 72.07    1393.06
 72.17    1517.00
 72.27    1724.00
 72.37    1806.00
 72.47    1942.00
 72.57    1958.84
 72.67    1901.00
 72.77    1769.00
 72.87    1668.91
 72.97    1509.00
 73.07    1322.00
 73.17    1168.00
 73.27    1100.52
 73.37     937.00
 73.47     876.00
 73.57     756.42
 73.67     724.07
 73.77     665.00
 73.87     673.27
 73.97     680.00
 74.07     610.18
 74.17     636.00
 74.27     643.00
 74.37     646.00
 74.47     677.85
 74.57     625.00
 74.67     653.00
 74.77     654.00
 74.87     622.00
 74.97     707.00
 75.07     642.56
 75.17     624.01
 75.27     617.28
 75.37     682.00
 75.47     671.00
 75.57     707.00
 75.67     699.00
 75.77     595.74
 75.87     695.00
 75.97     700.91
 76.07     626.00
 76.17     633.00
 76.27     708.00
 76.37     685.00
 76.47     699.61
 76.57     728.87
 76.67     807.00
 76.77     810.37
 76.87     864.00
 76.97     960.00
 77.07     916.00
 77.17     921.25
 77.27     905.00
 77.37     915.00
 77.47     807.00
 77.57     832.52
 77.67     746.06
 77.77     766.00
 77.87     755.00
 77.97     704.00
 78.07     709.28
 78.17     700.48
 78.27     622.00
 78.37     581.27
 78.47     641.00
 78.57     574.00
 78.67     614.00
 78.77     627.70
 78.87     572.00
 78.97     672.00
 79.07     615.00
 79.17     583.00
 79.27     573.00
 79.37     592.00
 79.47     581.00
 79.57     583.74
 79.67     633.00
 79.77     606.00
 79.87     619.06
 79.97     650.12
 80.07     665.54
 80.17     633.00
 80.27     660.09
 80.37     709.00
 80.47     659.00
 80.57     699.00
 80.67     674.27
 80.77     788.81
 80.87     852.00
 80.97     846.00
 81.07     886.00
 81.17    1027.00
 81.27    1074.00
 81.37    1132.95
 81.47    1137.03
 81.57    1217.00
 81.67    1257.00
 81.77    1229.67
 81.87    1310.00
 81.97    1210.00
 82.07    1085.62
 82.17    1121.00
 82.27    1079.00
 82.37    1043.00
 82.47     964.74
 82.57     923.00
 82.67     841.00
 82.77     827.00
 82.87     718.00
 82.97     765.40
 83.07     773.87
 83.17     689.46
 83.27     640.00
 83.37     659.00
 83.47     600.00
 83.57     662.34
 83.67     634.00
 83.77     601.00
 83.87     620.16
 83.97     605.00
 84.07     608.00
 84.17     609.00
 84.27     597.00
 84.37     656.00
 84.47     620.30
 84.57     626.00
 84.67     698.35
 84.77     626.00
 84.87     680.14
 84.97     636.00
 85.07     609.38
 85.17     650.50
 85.27     582.00
 85.37     587.00
 85.47     596.05
 85.57     577.00
 85.67     591.65
 85.77     632.00
 85.87     554.00
 85.97     613.18
 86.07     610.00
 86.17     596.00
 86.27     602.00
 86.37     589.03
 86.47     624.00
 86.57     623.00
 86.67     620.00
 86.77     633.16
 86.87     618.57
 86.97     660.00
 87.07     633.00
 87.17     630.00
 87.27     652.00
 87.37     629.80
 87.47     661.17
 87.57     674.00
 87.67     676.00
 87.77     649.94
 87.87     661.00
 87.97     679.00
 88.07     654.83
 88.17     698.00
 88.27     741.95
 88.37     672.00
 88.47     690.87
 88.57     651.00
 88.67     643.01
 88.77     701.00
 88.87     634.00
 88.97     623.00
 89.07     655.80
 89.17     654.19
 89.27     657.00
 89.37     631.86
 89.47     661.00
 89.57     636.65
 89.67     633.00
 89.77     662.00
 89.87     700.71
 89.97     654.00
 90.07     656.00
 90.17     647.14
 90.27     621.85
 90.37     704.38
 90.47     675.74
 90.57     611.00
 90.67     611.00
 90.77     624.00
 90.87     613.95
 90.97     582.00
 91.07     578.54
 91.17     579.00
 91.27     610.00
 91.37     579.00
 91.47     569.00
 91.57     570.89
 91.67     584.84
 91.77     554.00
 91.87     584.00
 91.97     614.00
 92.07     623.00
 92.17     535.00
 92.27     593.00
 92.37     612.00
 92.47     557.00
 92.57     575.86
 92.67     649.00
 92.77     595.27
 92.87     680.00
 92.97     608.00
 93.07     649.00
 93.17     678.00
 93.27     644.99
 93.37     681.79
 93.47     688.97
 93.57     799.00
 93.67     724.00
 93.77     804.09
 93.87     754.00
 93.97     828.73
 94.07     867.20
 94.17     831.00
 94.27     836.00
 94.37     841.84
 94.47     879.00
 94.57     883.00
 94.67     883.00
 94.77     920.00
 94.87     898.00
 94.97     963.00
 95.07     945.00
 95.17     929.43
 95.27     944.43
 95.37    1004.12
 95.47     997.00
 95.57     980.00
 95.67    1008.00
 95.77     996.00
 95.87     981.22
 95.97     939.00
 96.07     969.85
 96.17     891.00
 96.27     833.00
 96.37     848.00
 96.47     857.00
 96.57     854.00
 96.67     811.00
 96.77     864.00
 96.87     752.87
 96.97     826.42
 97.07     885.00
 97.17     823.22
 97.27     991.00
 97.37     948.96
 97.47    1111.00
 97.57    1132.00
 97.67    1186.00
 97.77    1298.64
 97.87    1352.00
 97.97    1344.22
 98.07    1532.00
 98.17    1562.00
 98.27    1477.55
 98.37    1534.00
 98.47    1505.17
 98.57    1584.00
 98.67    1500.00
 98.77    1438.00
 98.87    1425.00
 98.97    1329.60
 99.07    1287.00
 99.17    1251.40
 99.27    1083.00
 99.37    1091.00
 99.47    1035.79
 99.57     993.00
 99.67    1005.71
 99.77    1017.00
 99.87     938.00
 99.97     942.99
100.07    1191.00
100.17    1090.92
100.27    1191.00
100.37    1144.30
100.47    1287.00
100.57    1379.00
100.67    1471.00
100.77    1579.00
100.87    1582.07
100.97    1760.00
101.07    1929.00
101.17    1978.00
101.27    1925.88
101.37    2006.00
101.47    2080.92
101.57    2110.00
101.67    2234.00
101.77    2147.00
101.87    2129.00
101.97    2047.33
102.07    1995.00
102.17    2002.48
102.27    1732.00
102.37    1740.00
102.47    1690.00
102.57    1650.00
102.67    1476.00
102.77    1563.38
102.87    1493.31
102.97    1374.00
103.07    1438.71
103.17    1244.00
103.27    1258.03
103.37    1233.00
103.47    1189.00
103.57    1162.00
103.67    1098.00
103.77    1115.74
103.87    1119.00
103.97    1023.00
104.07    1083.42
104.17     954.00
104.27     871.45
104.37     849.00
104.47     882.00
104.57     806.96
104.67     744.00
104.77     797.00
104.87     758.43
104.97     732.00
105.07     677.09
105.17     655.29
105.27     598.85
105.37     661.00
105.47     652.00
105.57     647.00
105.67     591.00
105.77     631.00
105.87     606.00
105.97     584.88
106.07     646.00
106.17     612.70
106.27     601.92
106.37     598.31
106.47     622.00
106.57     595.00
106.67     637.00
106.77     591.00
106.87     656.00
106.97     654.04
107.07     635.92
107.17     644.00
107.27     674.00
107.37     705.00
107.47     702.66
107.57     747.00
107.67     704.26
107.77     738.00
107.87     757.00
107.97     755.49
108.07     738.00
108.17     715.00
108.27     795.00
108.37     751.00
108.47     777.00
108.57     795.00
108.67     742.00
108.77     776.81
108.87     776.34
108.97     710.66
109.07     721.02
109.17     710.78
109.27     788.00
109.37     770.57
109.47     784.37
109.57     738.00
109.67     769.00
109.77     709.69
109.87     741.00
109.97     754.00
110.07     736.00
110.17     711.00
110.27     673.00
110.37     744.00
110.47     777.36
110.57     770.62
110.67     697.00
110.77     693.00
110.87     681.00
110.97     670.24
111.07     656.00
111.17     702.56
111.27     679.00
111.37     681.00
111.47     606.35
111.57     640.00
111.67     623.00
111.77     634.00
111.87     645.00
111.97     570.00
112.07     594.00
112.17     598.00
112.27     606.00
112.37     654.00
112.47     637.96
112.57     605.83
112.67     630.39
112.77     544.41
112.87     589.00
112.97     616.00
113.07     583.91
113.17     631.00
113.27     639.00
113.37     586.00
113.47     606.00
113.57     583.04
113.67     600.79
113.77     637.00
113.87     586.00
113.97     681.34
114.07     615.07
114.17     687.91
114.27     650.56
114.37     710.51
114.47     663.00
114.57     706.00
114.67     744.00
114.77     776.00
114.87     753.00
114.97     789.00
115.07     898.07
115.17     950.00
115.27     984.00
115.37    1095.00
115.47    1208.46
115.57    1283.00
115.67    1482.00
115.77    1613.00
115.87    1868.00
115.97    2122.00
116.07    2391.00
116.17    2597.00
116.27    2956.39
116.37    3222.00
116.47    3474.22
116.57    3917.00
116.67    4337.00
116.77    4740.00
116.87    5031.67
116.97    5408.00
117.07    5859.46
117.17    6283.00
117.27    6710.65
117.37    6892.00
117.47    6945.26
117.57    7290.00
117.67    7469.00
117.77    7374.00
117.87    7351.44
117.97    7200.76
118.07    7125.66
118.17    6977.00
118.27    6437.00
118.37    6189.74
118.47    6082.00
118.57    5617.00
118.67    5299.00
118.77    4841.00
118.87    4505.00
118.97    4163.00
119.07    3876.00
119.17    3465.00
119.27    3226.00
119.37    2900.00
119.47    2476.00
119.57    2304.00
119.67    2074.16
119.77    1784.60
119.87    1670.00
119.97    1530.05
120.07    1483.00
120.17    1280.22
120.27    1118.00
120.37    1104.00
120.47    1052.00
120.57     994.06
120.67     884.10
120.77     924.00
120.87     803.27
120.97     839.00
121.07     831.00
121.17     782.00
121.27     785.84
121.37     726.00
121.47     697.00
121.57     691.00
121.67     712.00
121.77     703.00
121.87     690.00
121.97     714.35
122.07     673.00
122.17     652.22
122.27     682.86
122.37     635.38
122.47     638.00
122.57     649.00
122.67     625.00
122.77     665.00
122.87     691.32
122.97     741.06
123.07     725.00
123.17     688.00
123.27     702.00
123.37     714.00
123.47     680.00
123.57     751.52
123.67     724.21
123.77     725.55
123.87     751.78
123.97     722.17
124.07     726.10
124.17     778.00
124.27     732.00
124.37     821.00
124.47     761.00
124.57     700.03
124.67     712.72
124.77     760.00
124.87     810.00
124.97     765.00
