  9.97     704.00
 10.07     710.00
 10.17     691.00
 10.27     627.95
 10.37     738.00
 10.47     681.95
 10.57     623.53
 10.67     639.64
 10.77     692.61
 10.87     721.00
 10.97     697.00
 11.07     689.66
 11.17     615.04
 11.27     682.00
 11.37     633.00
 11.47     657.00
 11.57     681.09
 11.67     687.00
 11.77     703.53
 11.87     763.00
 11.97     717.83
 12.07     694.93
 12.17     796.00
 12.27     818.00
 12.37     778.00
 12.47     772.00
 12.57     681.00
 12.67     735.48
 12.77     665.00
 12.87     627.00
 12.97     629.00
 13.07     655.00
 13.17     680.44
 13.27     629.00
 13.37     617.00
 13.47     629.50
 13.57     644.00
 13.67     640.00
 13.77     598.41
 13.87     594.00
 13.97     642.00
 14.07     615.00
 14.17     616.00
 14.27     680.35
 14.37     617.82
 14.47     653.00
 14.57     635.92
 14.67     634.00
 14.77     616.00
 14.87     619.00
 14.97     605.00
 15.07     613.47
 15.17     654.00
 15.27     596.20
 15.37     610.00
 15.47     590.00
 15.57     606.00
 15.67     614.81
 15.77     611.00
 15.87     636.00
 15.97     622.00
 16.07     577.00
 16.17     600.29
 16.27     623.00
 16.37     620.00
 16.47     636.21
 16.57     634.00
 16.67     588.31
 16.77     623.17
 16.87     628.00
 16.97     656.76
 17.07     581.00
 17.17     617.00
 17.27     596.00
 17.37     627.66
 17.47     642.45
 17.57     577.00
 17.67     600.94
 17.77     587.00
 17.87     601.00
 17.97     609.00
 18.07     626.52
 18.17     630.00
 18.27     627.86
 18.37     607.61
 18.47     652.00
 18.57     595.00
 18.67     586.00
 18.77     622.00
 18.87     609.80
 18.97     632.00
 19.07     594.00
 19.17     599.00
 19.27     603.00
 19.37     605.00
 19.47     598.30
 19.57     647.00
 19.67     650.86
 19.77     596.05
 19.87     589.00
 19.97     625.00
 20.07     569.36
 20.17     593.00
 20.27     567.00
 20.37     601.65
 20.47     608.00
 20.57     600.00
 20.67     617.00
 20.77     597.31
 20.87     594.00
 20.97     585.41
 21.07     654.30
 21.17     574.00
 21.27     597.00
 21.37     581.00
 21.47     632.83
 21.57     566.00
 21.67     613.81
 21.77     604.24
 21.87     582.00
 21.97     606.02
 22.07     608.00
 22.17     595.00
 22.27     564.44
 22.37     612.00
 22.47     634.00
 22.57     620.64
 22.67     583.00
 22.77     606.00
 22.87     632.96
 22.97     605.00
 23.07     594.00
 23.17     632.00
 23.27     594.00
 23.37     548.58
 23.47     648.59
 23.57     605.00
 23.67     621.72
 23.77     595.00
 23.87     623.00
 23.97     644.70
 24.07     650.00
 24.17     634.33
 24.27     619.00
 24.37     587.21
 24.47     663.19
 24.57     681.00
 24.67     581.73
 24.77     657.59
 24.87     721.00
 24.97     705.00
 25.07     685.00
 25.17     617.64
 25.27     641.00
 25.37     640.62
 25.47     620.23
 25.57     616.00
 25.67     643.00
 25.77     562.34
 25.87     610.00
 25.97     643.00
 26.07     574.70
 26.17     559.09
 26.27     634.00
 26.37     616.00
 26.47     671.00
 26.57     630.00
 26.67     673.00
 26.77     665.61
 26.87     622.05
 26.97     653.00
 27.07     597.29
 27.17     660.00
 27.27     655.00
 27.37     724.00
 27.47     703.00
 27.57     669.70
 27.67     689.57
 27.77     828.98
 27.87     863.00
 27.97    1162.00
 28.07    1677.00
 28.17    2544.00
 28.27    3631.20
 28.37    4484.39
 28.47    4383.00
 28.57    3694.00
 28.67    2648.00
 28.77    2116.00
 28.87    2234.09
 28.97    2418.66
 29.07    2616.00
 29.17    2572.91
 29.27    2232.00
 29.37    1685.00
 29.47    1222.00
 29.57    1029.00
 29.67     824.00
 29.77     782.00
 29.87     775.00
 29.97     769.00
 30.07     762.00
 30.17     698.00
 30.27     698.00
 30.37     583.56
 30.47     682.00
 30.57     688.00
 30.67     652.05
 30.77     710.00
 30.87     668.43
 30.97     693.00
 31.07     736.00
 31.17     718.00
 31.27     713.00
 31.37     688.00
 31.47     682.00
 31.57     625.98
 31.67     634.00
 31.77     583.00
 31.87     614.00
 31.97     570.00
 32.07     606.00
 32.17     617.49
 32.27     600.00
 32.37     589.13
 32.47     595.00
 32.57     566.00
 32.67     592.89
 32.77     585.00
 32.87     604.50
 32.97     576.00
 33.07     627.00
 33.17     608.00
 33.27     607.00
 33.37     571.21
 33.47     616.00
 33.57     575.11
 33.67     657.60
 33.77     670.00
 33.87     711.00
 33.97     828.79
 34.07     985.88
 34.17    1113.00
 34.27    1109.00
 34.37    1088.00
 34.47     946.00
 34.57     831.00
 34.67     728.00
 34.77     612.00
 34.87     631.00
 34.97     608.76
 35.07     583.00
 35.17     617.00
 35.27     617.95
 35.37     591.00
 35.47     518.00
 35.57     591.83
 35.67     572.72
 35.77     567.00
 35.87     524.00
 35.97     578.00
 36.07     606.00
 36.17     536.00
 36.27     537.23
 36.37     544.00
 36.47     531.00
 36.57     538.00
 36.67     505.00
 36.77     587.00
 36.87     566.61
 36.97     564.00
 37.07     539.00
 37.17     606.42
 37.27     534.00
 37.37     524.00
 37.47     539.00
 37.57     573.33
 37.67     561.00
 37.77     551.00
 37.87     642.00
 37.97     621.00
 38.07     667.00
 38.17     627.60
 38.27     649.37
 38.37     642.84
 38.47     617.16
 38.57     636.00
 38.67     614.00
 38.77     616.07
 38.87     595.46
 38.97     582.00
 39.07     570.00
 39.17     626.00
 39.27     521.00
 39.37     527.00
 39.47     571.00
 39.57     573.00
 39.67     531.00
 39.77     518.00
 39.87     543.41
 39.97     543.00
 40.07     593.24
 40.17     538.00
 40.27     569.22
 40.37     550.00
 40.47     526.70
 40.57     555.00
 40.67     557.00
 40.77     522.00
 40.87     542.83
 40.97     551.00
 41.07     574.81
 41.17     553.23
 41.27     590.23
 41.37     504.63
 41.47     562.00
 41.57     556.00
 41.67     517.00
 41.77     561.85
 41.87     526.74
 41.97     587.33
 42.07     587.00
 42.17     541.00
 42.27     536.00
 42.37     574.00
 42.47     540.00
 42.57     552.00
 42.67     624.00
 42.77     633.00
 42.87     621.00
 42.97     686.72
 43.07     607.00
 43.17     648.00
 43.27     590.21
 43.37     617.00
 43.47     551.96
 43.57     595.00
 43.67     558.00
 43.77     588.18
 43.87     581.47
 43.97     517.00
 44.07     597.64
 44.17     556.82
 44.27     516.59
 44.37     534.00
 44.47     507.61
 44.57     525.00
 44.67     568.00
 44.77     548.00
 44.87     531.00
 44.97     531.00
 45.07     542.05
 45.17     564.00
 45.27     588.00
 45.37     542.00
 45.47     569.00
 45.57     605.00
 45.67     525.00
 45.77     544.00
 45.87     561.58
 45.97     529.00
 46.07     551.84
 46.17     571.00
 46.27     506.39
 46.37     530.95
 46.47     527.00
 46.57     559.27
 46.67     546.00
 46.77     581.00
 46.87     521.00
 46.97     545.00
 47.07     575.96
 47.17     553.00
 47.27     536.00
 47.37     570.00
 47.47     542.67
 47.57     583.07
 47.67     648.00
 47.77     561.00
 47.87     551.00
 47.97     644.00
 48.07     656.19
 48.17     663.56
 48.27     663.00
 48.37     699.00
 48.47     657.14
 48.57     579.65
 48.67     605.00
 48.77     641.73
 48.87     582.00
 48.97     559.00
 49.07     631.00
 49.17     551.86
 49.27     592.77
 49.37     586.35
 49.47     620.00
 49.57     630.00
 49.67     671.43
 49.77     791.77
 49.87     869.71
 49.97    1141.00
 50.07    1449.62
 50.17    1739.00
 50.27    2268.05
 50.37    2492.00
 50.47    2700.89
 50.57    2721.49
 50.67    2354.00
 50.77    1974.00
 50.87    1504.00
 50.97    1185.28
 51.07    1052.10
 51.17     786.09
 51.27     707.15
 51.37     695.18
 51.47     667.31
 51.57     676.00
 51.67     618.00
 51.77     648.00
 51.87     605.00
 51.97     657.72
 52.07     606.00
 52.17     604.00
 52.27     626.00
 52.37     656.00
 52.47     632.76
 52.57     676.00
 52.67     630.00
 52.77     631.00
 52.87     649.00
 52.97     623.00
 53.07     618.52
 53.17     713.84
 53.27     796.00
 53.37     873.00
 53.47     984.00
 53.57    1031.00
 53.67    1132.00
 53.77    1229.00
 53.87    1195.00
 53.97    1169.00
 54.07    1112.00
 54.17    1039.49
 54.27     922.00
 54.37     889.57
 54.47     780.82
 54.57     698.10
 54.67     656.00
 54.77     625.00
 54.87     647.00
 54.97     583.86
 55.07     593.00
 55.17     619.63
 55.27     644.00
 55.37     636.29
 55.47     644.16
 55.57     598.00
 55.67     581.05
 55.77     643.00
 55.87     624.80
 55.97     700.00
 56.07     694.03
 56.17     701.00
 56.27     684.00
 56.37     749.40
 56.47     839.00
 56.57    1047.00
 56.67    1326.54
 56.77    1485.00
 56.87    1893.00
 56.97    2136.51
 57.07    2397.00
 57.17    2654.78
 57.27    2694.00
 57.37    2418.00
 57.47    2122.00
 57.57    1794.00
 57.67    1482.00
 57.77    1343.03
 57.87    1022.00
 57.97     881.10
 58.07     853.00
 58.17     793.02
 58.27     743.00
 58.37     801.24
 58.47     809.00
 58.57     791.97
 58.67     830.00
 58.77     925.00
 58.87    1051.00
 58.97    1061.47
 59.07    1222.00
 59.17    1260.00
 59.27    1237.82
 59.37    1266.00
 59.47    1258.42
 59.57    1288.00
 59.67    1205.00
 59.77    1241.00
 59.87    1098.71
 59.97    1118.00
 60.07    1261.00
 60.17    1316.00
 60.27    1268.39
 60.37    1474.00
 60.47    1438.02
 60.57    1576.00
 60.67    1612.46
 60.77    1551.00
 60.87    1396.00
 60.97    1243.00
 61.07    1074.00
 61.17     958.00
 61.27     882.00
 61.37     800.96
 61.47     786.88
 61.57     788.00
 61.67     741.00
 61.77     834.12
 61.87     882.00
 61.97     897.68
 62.07    1104.09
 62.17    1144.00
 62.27    1284.00
 62.37    1420.35
 62.47    1560.62
 62.57    1484.00
 62.67    1437.00
 62.77    1316.00
 62.87    1199.00
 62.97    1116.00
 63.07    1006.27
 63.17     874.74
 63.27     796.00
 63.37     726.00
 63.47     649.00
 63.57     657.00
 63.67     655.00
 63.77     637.00
 63.87     660.00
 63.97     704.61
 64.07     674.89
 64.17     733.19
 64.27     679.18
 64.37     841.00
 64.47     881.00
 64.57     917.00
 64.67    1011.00
 64.77    1021.44
 64.87    1217.00
 64.97    1307.00
 65.07    1250.36
 65.17    1205.35
 65.27    1208.17
 65.37    1134.84
 65.47    1129.84
 65.57     970.00
 65.67     935.00
 65.77     837.00
 65.87     749.00
 65.97     747.00
 66.07     714.87
 66.17     671.92
 66.27     712.00
 66.37     689.00
 66.47     638.00
 66.57     658.00
 66.67     625.00
 66.77     655.41
 66.87     625.00
 66.97     631.00
 67.07     622.00
 67.17     712.00
 67.27     738.84
 67.37     709.00
 67.47     735.00
 67.57     862.00
 67.67     902.00
 67.77     987.00
 67.87    1244.40
 67.97    1420.00
 68.07    1673.00
 68.17    1919.00
 68.27    2057.00
 68.37    2334.09
 68.47    2484.00
 68.57    2430.00
 68.67    2418.00
 68.77    2146.00
 68.87    2072.00
 68.97    1646.05
 69.07    1543.88
 69.17    1235.00
 69.27    1050.00
 69.37     950.00
 69.47     918.00
 69.57     772.00
 69.67     694.74
 69.77     727.00
 69.87     677.00
 69.97     691.00
 70.07     688.04
 70.17     663.00
 70.27     598.76
 70.37     656.00
 70.47     666.70
 70.57     632.00
 70.67     688.52
 70.77     658.00
 70.87     686.52
 70.97     635.00
 71.07     675.00
 71.17     682.50
 71.27     673.60
 71.37     757.00
 71.47     782.63
 71.57     807.00
 71.67     882.00
 71.77     964.01
 71.87    1161.00
 71.97    1308.00
 72.07    1492.00
 72.17    1677.00
 72.27    1838.12
 72.37    1806.09
 72.47    1950.00
 72.57    1947.00
 72.67    1812.00
 72.77    1735.30
 72.87    1606.00
 72.97    1471.00
 73.07    1171.00
 73.17    1049.92
 73.27     971.00
 73.37     856.00
 73.47     807.00
 73.57     732.00
 73.67     708.81
 73.77     695.00
 73.87     680.00
 73.97     649.00
 74.07     616.00
 74.17     572.00
 74.27     592.00
 74.37     612.00
 74.47     615.16
 74.57     633.84
 74.67     617.00
 74.77     648.00
 74.87     651.00
 74.97     688.00
 75.07     697.00
 75.17     699.00
 75.27     700.00
 75.37     672.61
 75.47     682.00
 75.57     596.52
 75.67     693.00
 75.77     621.00
 75.87     652.00
 75.97     591.55
 76.07     663.00
 76.17     606.44
 76.27     645.68
 76.37     692.00
 76.47     692.00
 76.57     733.00
 76.67     818.00
 76.77     834.83
 76.87     760.93
 76.97     855.00
 77.07     855.00
 77.17     823.00
 77.27     789.00
 77.37     773.49
 77.47     744.00
 77.57     709.00
 77.67     711.00
 77.77     628.00
 77.87     650.19
 77.97     636.18
 78.07     626.00
 78.17     515.00
 78.27     565.00
 78.37     568.40
 78.47     590.92
 78.57     561.81
 78.67     586.00
 78.77     543.86
 78.87     517.00
 78.97     564.00
 79.07     599.00
 79.17     626.00
 79.27     602.71
 79.37     528.36
 79.47     554.00
 79.57     561.12
 79.67     572.00
 79.77     594.00
 79.87     550.00
 79.97     549.88
 80.07     581.00
 80.17     558.00
 80.27     639.78
 80.37     616.00
 80.47     599.00
 80.57     639.00
 80.67     724.00
 80.77     710.00
 80.87     761.00
 80.97     782.00
 81.07     852.27
 81.17     857.00
 81.27     964.21
 81.37     957.00
 81.47    1053.90
 81.57    1030.13
 81.67    1078.25
 81.77    1093.00
 81.87    1028.46
 81.97    1017.00
 82.07     950.00
 82.17     975.00
 82.27     938.02
 82.37     822.00
 82.47     793.00
 82.57     821.46
 82.67     728.00
 82.77     688.00
 82.87     667.00
 82.97     648.00
 83.07     708.76
 83.17     676.62
 83.27     605.00
 83.37     563.00
 83.47     596.00
 83.57     661.49
 83.67     600.39
 83.77     652.01
 83.87     569.16
 83.97     656.52
 84.07     567.00
 84.17     600.00
 84.27     657.19
 84.37     634.69
 84.47     614.00
 84.57     588.00
 84.67     591.00
 84.77     610.00
 84.87     661.63
 84.97     587.24
 85.07     582.00
 85.17     609.00
 85.27     565.00
 85.37     595.10
 85.47     624.13
 85.57     610.49
 85.67     587.98
 85.77     603.65
 85.87     552.00
 85.97     588.00
 86.07     584.22
 86.17     579.00
 86.27     567.00
 86.37     612.00
 86.47     563.00
 86.57     560.00
 86.67     596.00
 86.77     636.09
 86.87     614.54
 86.97     621.00
 87.07     631.14
 87.17     589.84
 87.27     598.00
 87.37     657.00
 87.47     632.00
 87.57     604.51
 87.67     705.00
 87.77     708.50
 87.87     682.00
 87.97     710.00
 88.07     710.42
 88.17     687.42
 88.27     667.87
 88.37     621.00
 88.47     682.00
 88.57     673.00
 88.67     639.00
 88.77     647.00
 88.87     639.00
 88.97     613.95
 89.07     587.99
 89.17     627.00
 89.27     589.00
 89.37     613.89
 89.47     586.00
 89.57     615.51
 89.67     669.00
 89.77     611.26
 89.87     626.20
 89.97     605.96
 90.07     630.32
 90.17     651.00
 90.27     617.48
 90.37     577.00
 90.47     603.12
 90.57     576.57
 90.67     609.00
 90.77     543.00
 90.87     563.00
 90.97     552.37
 91.07     589.00
 91.17     574.00
 91.27     569.98
 91.37     548.00
 91.47     546.00
 91.57     540.00
 91.67     577.00
 91.77     532.00
 91.87     552.00
 91.97     572.00
 92.07     558.00
 92.17     551.00
 92.27     551.42
 92.37     569.21
 92.47     563.00
 92.57     628.12
 92.67     587.00
 92.77     639.00
 92.87     594.00
 92.97     605.00
 93.07     634.00
 93.17     640.00
 93.27     662.00
 93.37     682.00
 93.47     697.00
 93.57     737.00
 93.67     682.00
 93.77     803.00
 93.87     762.00
 93.97     822.00
 94.07     766.85
 94.17     852.00
 94.27     863.00
 94.37     913.11
 94.47     877.00
 94.57     913.40
 94.67     957.00
 94.77     897.00
 94.87     949.00
 94.97     917.00
 95.07     977.00
 95.17     985.00
 95.27     960.99
 95.37     985.00
 95.47     957.00
 95.57    1013.00
 95.67     876.10
 95.77     999.00
 95.87     885.64
 95.97     851.12
 96.07     793.56
 96.17     852.00
 96.27     796.00
 96.37     810.00
 96.47     742.64
 96.57     786.00
 96.67     746.00
 96.77     776.00
 96.87     821.00
 96.97     875.00
 97.07     836.00
 97.17     948.00
 97.27    1019.00
 97.37    1021.66
 97.47    1102.32
 97.57    1263.00
 97.67    1230.49
 97.77    1302.00
 97.87    1416.00
 97.97    1490.00
 98.07    1597.00
 98.17    1585.00
 98.27    1460.77
 98.37    1460.00
 98.47    1471.66
 98.57    1410.00
 98.67    1467.06
 98.77    1320.00
 98.87    1268.00
 98.97    1218.81
 99.07    1199.33
 99.17    1047.76
 99.27    1101.81
 99.37    1031.32
 99.47    1020.31
 99.57    1012.00
 99.67     885.00
 99.77     966.00
 99.87    1045.95
 99.97    1013.00
100.07    1078.56
100.17    1060.63
100.27    1208.00
100.37    1337.36
100.47    1399.38
100.57    1524.00
100.67    1560.00
100.77    1670.00
100.87    1775.00
100.97    1764.33
101.07    1827.00
101.17    2076.00
101.27    1985.00
101.37    1980.00
101.47    2048.63
101.57    2035.00
101.67    2051.00
101.77    2011.00
101.87    1898.00
101.97    1908.00
102.07    1778.10
102.17    1665.00
102.27    1631.00
102.37    1544.00
102.47    1468.00
102.57    1495.13
102.67    1384.00
102.77    1352.61
102.87    1269.00
102.97    1273.00
103.07    1239.61
103.17    1212.00
103.27    1152.00
103.37    1135.00
103.47    1178.26
103.57    1072.00
103.67    1082.00
103.77    1038.12
103.87     997.57
103.97    1005.00
104.07     883.42
104.17     896.00
104.27     903.00
104.37     768.63
104.47     797.00
104.57     779.00
104.67     747.00
104.77     715.00
104.87     699.00
104.97     683.00
105.07     610.00
105.17     579.88
105.27     642.00
105.37     537.02
105.47     591.00
105.57     588.00
105.67     607.00
105.77     609.78
105.87     534.11
105.97     589.61
106.07     580.00
106.17     584.00
106.27     576.00
106.37     544.34
106.47     643.00
106.57     583.07
106.67     633.00
106.77     638.05
106.87     592.00
106.97     632.00
107.07     680.80
107.17     653.00
107.27     686.91
107.37     716.00
107.47     703.22
107.57     645.63
107.67     700.87
107.77     711.91
107.87     698.00
107.97     761.08
108.07     692.00
108.17     769.00
108.27     781.22
108.37     752.00
108.47     792.31
108.57     678.00
108.67     704.00
108.77     769.00
108.87     671.00
108.97     788.16
109.07     704.00
109.17     710.00
109.27     735.00
109.37     689.00
109.47     757.00
109.57     779.00
109.67     688.00
109.77     722.00
109.87     712.00
109.97     759.09
110.07     745.22
110.17     701.00
110.27     733.00
110.37     687.00
110.47     699.00
110.57     677.25
110.67     621.77
110.77     670.00
110.87     629.00
110.97     626.00
111.07     651.25
111.17     576.20
111.27     556.00
111.37     621.00
111.47     557.00
111.57     559.39
111.67     588.00
111.77     624.22
111.87     578.00
111.97     589.00
112.07     540.00
112.17     590.00
112.27     592.59
112.37     604.00
112.47     577.00
112.57     570.87
112.67     551.00
112.77     575.00
112.87     577.01
112.97     635.00
113.07     595.15
113.17     608.21
113.27     623.00
113.37     628.22
113.47     616.00
113.57     603.00
113.67     644.83
113.77     649.00
113.87     663.39
113.97     597.00
114.07     662.59
114.17     610.74
114.27     690.00
114.37     674.00
114.47     681.00
114.57     786.54
114.67     804.11
114.77     824.93
114.87     797.00
114.97     870.60
115.07     960.00
115.17    1081.00
115.27    1084.00
115.37    1305.60
115.47    1462.00
115.57    1641.00
115.67    1751.00
115.77    2026.33
115.87    2275.00
115.97    2516.34
116.07    2715.00
116.17    3132.00
116.27    3479.00
116.37    3847.00
116.47    4158.00
116.57    4611.00
116.67    4948.34
116.77    5458.10
116.87    5825.64
116.97    6114.92
117.07    6401.00
117.17    6625.00
117.27    6834.60
117.37    7101.00
117.47    7315.01
117.57    7286.00
117.67    7222.00
117.77    7250.00
117.87    7142.57
117.97    6737.00
118.07    6498.00
118.17    6221.38
118.27    6071.25
118.37    5707.71
118.47    5250.88
118.57    4678.00
118.67    4543.00
118.77    4182.18
118.87    3705.93
118.97    3370.00
119.07    3074.00
119.17    2831.00
119.27    2544.37
119.37    2275.06
119.47    2017.00
119.57    1857.00
119.67    1614.49
119.77    1533.85
119.87    1325.00
119.97    1264.00
120.07    1132.20
120.17    1020.93
120.27    1073.14
120.37     996.40
120.47     927.86
120.57     849.00
120.67     799.83
120.77     797.68
120.87     751.00
120.97     726.83
121.07     769.14
121.17     687.00
121.27     715.03
121.37     704.27
121.47     671.09
121.57     636.63
121.67     666.00
121.77     698.40
121.87     609.38
121.97     701.00
122.07     663.71
122.17     630.00
122.27     650.16
122.37     662.00
122.47     638.00
122.57     638.00
122.67     701.00
122.77     698.36
122.87     693.00
122.97     686.00
123.07     710.09
123.17     657.21
123.27     702.85
123.37     702.16
123.47     694.00
123.57     707.00
123.67     712.00
123.77     691.96
123.87     671.00
123.97     804.00
124.07     736.00
124.17     660.96
124.27     679.62
124.37     720.00
124.47     716.00
124.57     694.90
124.67     711.00
124.77     735.65
124.87     712.00
124.97     743.00
