  9.97     608.00
 10.07     559.00
 10.17     570.39
 10.27     601.62
 10.37     588.00
 10.47     567.58
 10.57     588.00
 10.67     613.00
 10.77     582.87
 10.87     555.00
 10.97     574.00
 11.07     529.65
 11.17     611.00
 11.27     521.84
 11.37     551.70
 11.47     566.16
 11.57     609.00
 11.67     621.00
 11.77     658.00
 11.87     661.00
 11.97     677.00
 12.07     668.00
 12.17     646.14
 12.27     652.00
 12.37     662.00
 12.47     618.00
 12.57     635.00
 12.67     585.99
 12.77     540.00
 12.87     578.00
 12.97     563.00
 13.07     545.00
 13.17     590.00
 13.27     520.00
 13.37     581.00
 13.47     565.49
 13.57     544.00
 13.67     571.00
 13.77     529.00
 13.87     587.78
 13.97     553.22
 14.07     563.87
 14.17     573.00
 14.27     553.00
 14.37     588.00
 14.47     545.00
 14.57     567.00
 14.67     529.00
 14.77     539.24
 14.87     548.23
 14.97     544.00
 15.07     575.70
 15.17     552.80
 15.27     547.26
 15.37     569.96
 15.47     571.00
 15.57     577.00
 15.67     535.20
 15.77     578.00
 15.87     535.97
 15.97     529.00
 16.07     624.00
 16.17     527.00
 16.27     604.93
 16.37     564.00
 16.47     541.00
 16.57     549.00
 16.67     616.17
 16.77     539.00
 16.87     605.50
 16.97     550.93
 17.07     569.00
 17.17     590.92
 17.27     554.00
 17.37     569.00
 17.47     549.00
 17.57     553.00
 17.67     588.00
 17.77     570.98
 17.87     490.00
 17.97     524.59
 18.07     571.26
 18.17     497.00
 18.27     569.55
 18.37     542.00
 18.47     585.00
 18.57     599.70
 18.67     562.00
 18.77     530.00
 18.87     568.38
 18.97     553.00
 19.07     578.00
 19.17     555.21
 19.27     541.00
 19.37     528.00
 19.47     564.61
 19.57     533.00
 19.67     520.00
 19.77     571.37
 19.87     557.06
 19.97     553.00
 20.07     586.00
 20.17     564.00
 20.27     526.00
 20.37     586.07
 20.47     577.00
 20.57     541.14
 20.67     566.00
 20.77     564.00
 20.87     589.00
 20.97     545.00
 21.07     542.37
 21.17     540.00
 21.27     522.00
 21.37     518.79
 21.47     572.00
 21.57     531.00
 21.67     580.00
 21.77     522.00
 21.87     583.44
 21.97     592.00
 22.07     569.00
 22.17     532.74
 22.27     557.00
 22.37     519.40
 22.47     566.22
 22.57     556.00
 22.67     547.00
 22.77     528.41
 22.87     533.00
 22.97     564.00
 23.07     574.98
 23.17     568.00
 23.27     590.85
 23.37     528.44
 23.47     567.00
 23.57     578.12
 23.67     512.18
 23.77     576.00
 23.87     575.36
 23.97     527.00
 24.07     605.00
 24.17     576.00
 24.27     570.00
 24.37     560.36
 24.47     614.00
 24.57     560.00
 24.67     613.41
 24.77     614.00
 24.87     641.00
 24.97     584.09
 25.07     626.00
 25.17     640.00
 25.27     624.00
 25.37     611.00
 25.47     516.83
 25.57     590.00
 25.67     549.00
 25.77     620.00
 25.87     582.00
 25.97     601.00
 26.07     589.00
 26.17     600.56
 26.27     554.00
 26.37     562.00
 26.47     571.00
 26.57     589.62
 26.67     524.40
 26.77     505.16
 26.87     565.00
 26.97     528.00
 27.07     622.00
 27.17     578.77
 27.27     601.00
 27.37     583.00
 27.47     557.00
 27.57     570.00
 27.67     558.03
 27.77     577.00
 27.87     604.11
 27.97     699.00
 28.07     717.00
 28.17     814.00
 28.27     852.54
 28.37     973.00
 28.47     861.28
 28.57     804.83
 28.67     718.00
 28.77     699.00
 28.87     832.26
 28.97     795.16
 29.07     810.00
 29.17     759.00
 29.27     730.00
 29.37     675.00
 29.47     612.00
 29.57     600.00
 29.67     596.00
 29.77     609.05
 29.87     525.32
 29.97     576.00
 30.07     628.00
 30.17     524.09
 30.27     575.69
 30.37     546.00
 30.47     552.00
 30.57     570.00
 30.67     546.27
 30.77     572.90
 30.87     584.00
 30.97     612.00
 31.07     621.18
 31.17     643.13
 31.27     577.00
 31.37     642.00
 31.47     516.15
 31.57     540.00
 31.67     500.63
 31.77     568.01
 31.87     529.00
 31.97     565.48
 32.07     558.66
 32.17     575.12
 32.27     550.00
 32.37     561.00
 32.47     584.00
 32.57     540.00
 32.67     490.37
 32.77     578.00
 32.87     577.48
 32.97     508.00
 33.07     544.00
 33.17     545.00
 33.27     537.17
 33.37     560.00
 33.47     581.00
 33.57     582.00
 33.67     604.00
 33.77     695.00
 33.87     803.34
 33.97     864.00
 34.07     974.00
 34.17     963.96
 34.27     976.87
 34.37     913.00
 34.47     759.00
 34.57     657.00
 34.67     609.00
 34.77     577.00
 34.87     598.00
 34.97     572.82
 35.07     543.82
 35.17     501.70
 35.27     577.23
 35.37     495.22
 35.47     530.00
 35.57     499.00
 35.67     534.00
 35.77     533.00
 35.87     520.90
 35.97     539.00
 36.07     537.00
 36.17     525.00
 36.27     511.09
 36.37     502.00
 36.47     523.00
 36.57     559.24
 36.67     500.00
 36.77     488.80
 36.87     474.00
 36.97     488.00
 37.07     524.00
 37.17     519.00
 37.27     520.00
 37.37     495.81
 37.47     531.00
 37.57     521.70
 37.67     503.57
 37.77     507.45
 37.87     503.00
 37.97     529.00
 38.07     484.00
 38.17     512.00
 38.27     510.00
 38.37     484.11
 38.47     485.00
 38.57     524.00
 38.67     506.00
 38.77     504.00
 38.87     476.00
 38.97     521.00
 39.07     481.00
 39.17     510.00
 39.27     495.90
 39.37     458.38
 39.47     471.00
 39.57     537.21
 39.67     530.00
 39.77     456.00
 39.87     494.00
 39.97     496.01
 40.07     542.95
 40.17     526.69
 40.27     479.00
 40.37     540.85
 40.47     506.00
 40.57     495.00
 40.67     477.00
 40.77     460.00
 40.87     456.00
 40.97     486.00
 41.07     504.00
 41.17     504.00
 41.27     542.00
 41.37     490.00
 41.47     507.00
 41.57     546.95
 41.67     502.00
 41.77     528.74
 41.87     454.00
 41.97     505.86
 42.07     518.00
 42.17     509.00
 42.27     508.00
 42.37     514.00
 42.47     527.24
 42.57     540.27
 42.67     587.06
 42.77     590.00
 42.87     566.00
 42.97     577.85
 43.07     542.73
 43.17     513.00
 43.27     561.22
 43.37     483.00
 43.47     494.00
 43.57     502.00
 43.67     479.25
 43.77     514.00
 43.87     465.00
 43.97     542.00
 44.07     487.00
 44.17     464.00
 44.27     472.00
 44.37     477.00
 44.47     489.00
 44.57     494.98
 44.67     487.41
 44.77     513.74
 44.87     500.00
 44.97     479.00
 45.07     518.00
 45.17     485.00
 45.27     505.76
 45.37     486.01
 45.47     483.00
 45.57     505.45
 45.67     479.00
 45.77     462.15
 45.87     473.00
 45.97     503.67
 46.07     486.00
 46.17     499.02
 46.27     512.00
 46.37     474.00
 46.47     546.00
 46.57     479.59
 46.67     537.63
 46.77     460.71
 46.87     537.21
 46.97     465.00
 47.07     489.37
 47.17     572.00
 47.27     499.00
 47.37     466.85
 47.47     502.00
 47.57     480.73
 47.67     509.00
 47.77     592.00
 47.87     543.00
 47.97     597.99
 48.07     557.00
 48.17     578.00
 48.27     590.00
 48.37     548.00
 48.47     520.00
 48.57     554.00
 48.67     568.46
 48.77     531.00
 48.87     525.00
 48.97     569.83
 49.07     523.00
 49.17     510.95
 49.27     577.00
 49.37     555.00
 49.47     642.80
 49.57     625.00
 49.67     745.00
 49.77     863.20
 49.87    1108.65
 49.97    1324.00
 50.07    1682.63
 50.17    2020.00
 50.27    2307.00
 50.37    2384.02
 50.47    2280.34
 50.57    1942.86
 50.67    1563.33
 50.77    1126.00
 50.87     961.50
 50.97     754.83
 51.07     728.00
 51.17     652.00
 51.27     625.41
 51.37     599.00
 51.47     611.00
 51.57     626.00
 51.67     603.00
 51.77     588.41
 51.87     576.00
 51.97     520.07
 52.07     510.00
 52.17     576.00
 52.27     574.00
 52.37     538.00
 52.47     507.62
 52.57     555.00
 52.67     586.51
 52.77     559.00
 52.87     630.00
 52.97     608.00
 53.07     685.00
 53.17     740.00
 53.27     774.39
 53.37    1018.00
 53.47    1016.00
 53.57    1131.03
 53.67    1129.00
 53.77    1150.00
 53.87    1035.17
 53.97    1003.00
 54.07     885.00
 54.17     823.57
 54.27     700.00
 54.37     650.00
 54.47     644.04
 54.57     548.00
 54.67     576.00
 54.77     573.00
 54.87     570.00
 54.97     550.00
 55.07     581.00
 55.17     581.00
 55.27     596.53
 55.37     527.00
 55.47     509.00
 55.57     599.58
 55.67     588.08
 55.77     593.71
 55.87     605.02
 55.97     655.00
 56.07     607.00
 56.17     712.00
 56.27     721.00
 56.37     884.00
 56.47    1057.16
 56.57    1292.16
 56.67    1584.93
 56.77    1907.00
 56.87    2168.00
 56.97    2369.58
 57.07    2579.21
 57.17    2431.00
 57.27    2173.00
 57.37    1849.00
 57.47    1563.33
 57.57    1128.00
 57.67     984.54
 57.77     871.00
 57.87     745.46
 57.97     746.37
 58.07     715.00
 58.17     725.00
 58.27     697.42
 58.37     716.00
 58.47     752.79
 58.57     853.00
 58.67     883.60
 58.77     994.00
 58.87    1072.00
 58.97    1130.00
 59.07    1190.67
 59.17    1255.52
 59.27    1309.13
 59.37    1341.00
 59.47    1246.99
 59.57    1243.00
 59.67    1202.70
 59.77    1247.00
 59.87    1210.00
 59.97    1209.00
 60.07    1356.00
 60.17    1409.00
 60.27    1509.20
 60.37    1594.00
 60.47    1474.66
 60.57    1440.94
 60.67    1292.00
 60.77    1119.10
 60.87    1084.80
 60.97     886.91
 61.07     786.00
 61.17     724.00
 61.27     693.72
 61.37     699.00
 61.47     691.00
 61.57     707.53
 61.67     706.05
 61.77     799.00
 61.87     917.00
 61.97    1025.00
 62.07    1090.23
 62.17    1209.00
 62.27    1293.77
 62.37    1294.00
 62.47    1258.41
 62.57    1271.18
 62.67    1070.00
 62.77     997.00
 62.87     859.00
 62.97     680.00
 63.07     703.00
 63.17     630.00
 63.27     627.00
 63.37     615.00
 63.47     547.00
 63.57     595.00
 63.67     565.00
 63.77     599.51
 63.87     574.00
 63.97     602.01
 64.07     634.00
 64.17     693.00
 64.27     729.00
 64.37     758.00
 64.47     841.15
 64.57     928.00
 64.67     986.00
 64.77     968.00
 64.87    1007.72
 64.97     982.00
 65.07     940.00
 65.17     897.03
 65.27     830.00
 65.37     774.00
 65.47     712.86
 65.57     668.00
 65.67     660.00
 65.77     594.00
 65.87     640.07
 65.97     554.00
 66.07     554.29
 66.17     609.00
 66.27     584.64
 66.37     571.85
 66.47     540.00
 66.57     520.17
 66.67     580.00
 66.77     559.06
 66.87     611.00
 66.97     611.00
 67.07     584.64
 67.17     670.00
 67.27     673.00
 67.37     701.00
 67.47     893.52
 67.57    1010.06
 67.67    1208.00
 67.77    1336.00
 67.87    1582.49
 67.97    1740.00
 68.07    1977.74
 68.17    2175.14
 68.27    2369.00
 68.37    2287.40
 68.47    2227.00
 68.57    2040.00
 68.67    1716.30
 68.77    1583.94
 68.87    1229.97
 68.97    1121.00
 69.07     988.17
 69.17     849.14
 69.27     796.00
 69.37     630.61
 69.47     653.00
 69.57     610.30
 69.67     643.00
 69.77     528.00
 69.87     610.02
 69.97     579.00
 70.07     539.06
 70.17     567.77
 70.27     574.00
 70.37     523.00
 70.47     614.00
 70.57     526.00
 70.67     581.86
 70.77     561.75
 70.87     623.00
 70.97     644.94
 71.07     582.00
 71.17     640.00
 71.27     695.75
 71.37     736.00
 71.47     854.32
 71.57     972.27
 71.67    1171.95
 71.77    1216.00
 71.87    1503.59
 71.97    1560.11
 72.07    1714.42
 72.17    1791.00
 72.27    1861.02
 72.37    1753.00
 72.47    1747.00
 72.57    1638.11
 72.67    1390.00
 72.77    1287.00
 72.87    1172.00
 72.97     966.52
 73.07     925.55
 73.17     772.00
 73.27     706.00
 73.37     742.00
 73.47     639.00
 73.57     622.00
 73.67     613.00
 73.77     589.00
 73.87     619.81
 73.97     558.00
 74.07     624.00
 74.17     620.95
 74.27     558.00
 74.37     558.00
 74.47     577.00
 74.57     581.24
 74.67     587.96
 74.77     555.60
 74.87     638.00
 74.97     650.00
 75.07     635.00
 75.17     600.06
 75.27     642.00
 75.37     593.00
 75.47     563.00
 75.57     501.48
 75.67     561.00
 75.77     563.00
 75.87     577.00
 75.97     567.27
 76.07     575.85
 76.17     603.00
 76.27     635.00
 76.37     631.00
 76.47     655.69
 76.57     616.00
 76.67     687.94
 76.77     720.00
 76.87     657.93
 76.97     673.57
 77.07     708.79
 77.17     658.00
 77.27     615.00
 77.37     571.00
 77.47     599.00
 77.57     561.00
 77.67     514.18
 77.77     547.00
 77.87     519.07
 77.97     558.18
 78.07     521.00
 78.17     517.00
 78.27     472.00
 78.37     497.00
 78.47     553.00
 78.57     499.00
 78.67     530.00
 78.77     515.00
 78.87     494.00
 78.97     533.83
 79.07     505.00
 79.17     527.82
 79.27     464.79
 79.37     529.00
 79.47     535.00
 79.57     542.95
 79.67     555.45
 79.77     508.94
 79.87     509.00
 79.97     513.00
 80.07     522.90
 80.17     526.00
 80.27     500.87
 80.37     560.27
 80.47     541.01
 80.57     575.00
 80.67     586.00
 80.77     593.92
 80.87     601.00
 80.97     598.00
 81.07     627.84
 81.17     645.00
 81.27     703.00
 81.37     639.00
 81.47     656.00
 81.57     743.00
 81.67     698.88
 81.77     703.00
 81.87     681.00
 81.97     701.00
 82.07     667.00
 82.17     665.00
 82.27     676.79
 82.37     678.61
 82.47     623.00
 82.57     607.00
 82.67     634.26
 82.77     578.00
 82.87     552.70
 82.97     551.00
 83.07     500.00
 83.17     535.00
 83.27     569.37
 83.37     520.34
 83.47     527.91
 83.57     498.94
 83.67     550.00
 83.77     534.00
 83.87     529.00
 83.97     534.00
 84.07     543.82
 84.17     533.00
 84.27     559.00
 84.37     512.71
 84.47     514.00
 84.57     562.15
 84.67     500.47
 84.77     505.00
 84.87     535.00
 84.97     503.79
 85.07     556.00
 85.17     524.00
 85.27     481.33
 85.37     501.00
 85.47     520.73
 85.57     501.00
 85.67     520.00
 85.77     507.00
 85.87     540.42
 85.97     484.00
 86.07     457.00
 86.17     531.00
 86.27     488.48
 86.37     501.00
 86.47     526.00
 86.57     509.00
 86.67     491.00
 86.77     528.75
 86.87     564.00
 86.97     541.00
 87.07     576.20
 87.17     603.00
 87.27     556.11
 87.37     597.00
 87.47     552.21
 87.57     598.51
 87.67     643.00
 87.77     667.00
 87.87     618.00
 87.97     623.00
 88.07     609.27
 88.17     538.92
 88.27     537.98
 88.37     542.19
 88.47     544.22
 88.57     553.04
 88.67     556.00
 88.77     578.52
 88.87     562.00
 88.97     554.58
 89.07     510.16
 89.17     590.00
 89.27     615.00
 89.37     634.00
 89.47     608.00
 89.57     601.82
 89.67     576.00
 89.77     571.00
 89.87     580.00
 89.97     581.61
 90.07     590.00
 90.17     576.37
 90.27     528.77
 90.37     581.13
 90.47     535.00
 90.57     536.00
 90.67     506.00
 90.77     496.00
 90.87     508.00
 90.97     559.00
 91.07     470.08
 91.17     498.00
 91.27     515.00
 91.37     496.65
 91.47     476.00
 91.57     523.00
 91.67     518.75
 91.77     473.00
 91.87     529.00
 91.97     545.96
 92.07     557.14
 92.17     520.00
 92.27     557.24
 92.37     562.00
 92.47     538.00
 92.57     588.00
 92.67     626.75
 92.77     581.65
 92.87     638.52
 92.97     661.00
 93.07     614.00
 93.17     683.00
 93.27     678.00
 93.37     749.00
 93.47     686.00
 93.57     760.38
 93.67     771.00
 93.77     856.00
 93.87     807.00
 93.97     799.00
 94.07     751.65
 94.17     857.00
 94.27     826.00
 94.37     868.71
 94.47     869.00
 94.57     842.00
 94.67     810.00
 94.77     927.00
 94.87     920.00
 94.97     865.00
 95.07     909.00
 95.17     866.00
 95.27     855.79
 95.37     865.00
 95.47     845.77
 95.57     800.00
 95.67     822.00
 95.77     817.00
 95.87     766.00
 95.97     750.00
 96.07     693.00
 96.17     728.00
 96.27     734.00
 96.37     702.00
 96.47     683.87
 96.57     751.00
 96.67     787.00
 96.77     840.00
 96.87     819.44
 96.97     902.93
 97.07    1020.00
 97.17    1039.00
 97.27    1149.00
 97.37    1230.88
 97.47    1271.05
 97.57    1348.00
 97.67    1366.00
 97.77    1424.00
 97.87    1453.00
 97.97    1364.00
 98.07    1380.28
 98.17    1320.57
 98.27    1309.00
 98.37    1302.81
 98.47    1195.67
 98.57    1104.00
 98.67    1089.00
 98.77    1038.00
 98.87     953.00
 98.97     917.00
 99.07     859.00
 99.17     816.00
 99.27     917.00
 99.37     871.52
 99.47     889.95
 99.57     936.66
 99.67     990.00
 99.77    1013.00
 99.87    1118.00
 99.97    1202.00
100.07    1263.00
100.17    1318.00
100.27    1503.00
100.37    1577.00
100.47    1716.74
100.57    1705.00
100.67    1785.44
100.77    1904.44
100.87    1909.00
100.97    1985.00
101.07    1904.00
101.17    1970.21
101.27    1905.63
101.37    1885.00
101.47    1841.94
101.57    1837.00
101.67    1735.00
101.77    1670.00
101.87    1574.00
101.97    1479.00
102.07    1416.00
102.17    1387.00
102.27    1300.00
102.37    1280.00
102.47    1252.00
102.57    1184.55
102.67    1194.16
102.77    1138.00
102.87    1163.00
102.97    1106.00
103.07    1104.88
103.17     995.00
103.27    1061.29
103.37     986.00
103.47     951.00
103.57     932.00
103.67     806.83
103.77     826.00
103.87     779.00
103.97     793.00
104.07     752.00
104.17     683.00
104.27     696.00
104.37     629.00
104.47     638.00
104.57     584.00
104.67     576.00
104.77     573.00
104.87     592.00
104.97     521.94
105.07     547.40
105.17     569.84
105.27     488.63
105.37     534.41
105.47     530.00
105.57     543.00
105.67     543.00
105.77     493.00
105.87     517.96
105.97     562.97
106.07     548.00
106.17     534.00
106.27     608.00
106.37     584.48
106.47     614.00
106.57     558.69
106.67     576.00
106.77     624.00
106.87     615.00
106.97     634.00
107.07     614.03
107.17     666.42
107.27     636.00
107.37     674.00
107.47     634.00
107.57     674.76
107.67     744.54
107.77     710.32
107.87     666.00
107.97     705.10
108.07     721.18
108.17     671.00
108.27     726.99
108.37     639.23
108.47     643.00
108.57     703.75
108.67     735.33
108.77     660.00
108.87     692.00
108.97     682.00
109.07     705.42
109.17     685.00
109.27     679.75
109.37     661.00
109.47     708.85
109.57     673.08
109.67     706.00
109.77     649.00
109.87     609.00
109.97     673.40
110.07     664.00
110.17     616.00
110.27     597.13
110.37     633.00
110.47     586.00
110.57     622.00
110.67     557.97
110.77     559.40
110.87     570.00
110.97     544.05
111.07     567.00
111.17     553.00
111.27     552.47
111.37     522.64
111.47     535.00
111.57     509.86
111.67     532.00
111.77     586.75
111.87     534.28
111.97     531.00
112.07     560.94
112.17     547.00
112.27     573.07
112.37     557.78
112.47     531.67
112.57     562.12
112.67     562.27
112.77     603.02
112.87     531.00
112.97     561.00
113.07     585.00
113.17     567.27
113.27     612.28
113.37     625.00
113.47     599.00
113.57     638.00
113.67     654.66
113.77     627.00
113.87     648.00
113.97     686.00
114.07     681.12
114.17     752.00
114.27     816.82
114.37     809.16
114.47     865.47
114.57     960.00
114.67     957.00
114.77    1087.78
114.87    1218.00
114.97    1367.75
115.07    1491.00
115.17    1730.00
115.27    1941.00
115.37    2114.84
115.47    2338.03
115.57    2627.00
115.67    2987.00
115.77    3231.00
115.87    3425.00
115.97    3989.00
116.07    4226.00
116.17    4652.00
116.27    5020.00
116.37    5282.00
116.47    5556.00
116.57    6226.00
116.67    6214.33
116.77    6655.19
116.87    6704.00
116.97    6839.00
117.07    6928.00
117.17    6846.10
117.27    6800.91
117.37    6730.00
117.47    6490.00
117.57    6069.41
117.67    5935.32
117.77    5494.00
117.87    5092.00
117.97    4989.66
118.07    4477.00
118.17    4174.00
118.27    3797.08
118.37    3555.00
118.47    3153.00
118.57    2815.00
118.67    2493.28
118.77    2337.47
118.87    2024.00
118.97    1806.00
119.07    1620.00
119.17    1445.00
119.27    1359.46
119.37    1163.06
119.47    1171.00
119.57    1060.31
119.67     994.00
119.77     900.00
119.87     812.53
119.97     774.00
120.07     704.44
120.17     753.29
120.27     713.00
120.37     700.00
120.47     661.00
120.57     619.00
120.67     626.51
120.77     604.00
120.87     609.69
120.97     564.73
121.07     605.00
121.17     572.00
121.27     614.00
121.37     628.41
121.47     592.00
121.57     566.00
121.67     593.00
121.77     587.00
121.87     552.00
121.97     539.00
122.07     603.00
122.17     583.00
122.27     593.64
122.37     593.00
122.47     621.00
122.57     616.00
122.67     586.00
122.77     603.00
122.87     685.00
122.97     644.00
123.07     616.00
123.17     643.00
123.27     612.57
123.37     595.05
123.47     614.00
123.57     585.00
123.67     675.35
123.77     668.59
123.87     665.00
123.97     570.70
124.07     590.00
124.17     631.00
124.27     591.00
124.37     626.00
124.47     613.00
124.57     563.00
124.67     632.00
124.77     594.00
124.87     575.00
124.97     626.00
