  9.97     616.00
 10.07     595.00
 10.17     618.00
 10.27     580.00
 10.37     617.27
 10.47     579.00
 10.57     593.00
 10.67     565.00
 10.77     589.00
 10.87     570.00
 10.97     537.14
 11.07     529.52
 11.17     604.00
 11.27     554.00
 11.37     597.00
 11.47     572.00
 11.57     593.00
 11.67     550.45
 11.77     668.00
 11.87     635.00
 11.97     608.60
 12.07     674.00
 12.17     664.93
 12.27     674.12
 12.37     667.00
 12.47     604.03
 12.57     634.73
 12.67     612.49
 12.77     573.00
 12.87     585.00
 12.97     526.00
 13.07     588.00
 13.17     550.00
 13.27     559.00
 13.37     599.97
 13.47     525.04
 13.57     544.00
 13.67     603.00
 13.77     515.00
 13.87     516.02
 13.97     556.00
 14.07     549.30
 14.17     520.00
 14.27     542.00
 14.37     547.00
 14.47     556.00
 14.57     572.87
 14.67     562.00
 14.77     566.00
 14.87     592.00
 14.97     487.00
 15.07     518.00
 15.17     603.82
 15.27     568.00
 15.37     531.99
 15.47     561.00
 15.57     529.00
 15.67     533.00
 15.77     562.93
 15.87     554.00
 15.97     568.00
 16.07     576.00
 16.17     580.00
 16.27     527.00
 16.37     598.00
 16.47     525.00
 16.57     549.42
 16.67     551.00
 16.77     574.00
 16.87     549.00
 16.97     549.00
 17.07     538.00
 17.17     541.00
 17.27     509.00
 17.37     569.00
 17.47     542.00
 17.57     535.00
 17.67     527.00
 17.77     555.00
 17.87     541.00
 17.97     586.00
 18.07     556.00
 18.17     577.95
 18.27     552.00
 18.37     510.45
 18.47     605.79
 18.57     519.24
 18.67     598.72
 18.77     583.00
 18.87     603.00
 18.97     564.41
 19.07     583.00
 19.17     587.00
 19.27     526.18
 19.37     565.73
 19.47     514.78
 19.57     530.00
 19.67     535.45
 19.77     546.37
 19.87     550.00
 19.97     556.63
 20.07     562.00
 20.17     555.00
 20.27     542.00
 20.37     588.20
 20.47     574.00
 20.57     598.73
 20.67     570.00
 20.77     596.91
 20.87     534.00
 20.97     579.59
 21.07     523.68
 21.17     522.00
 21.27     554.00
 21.37     521.02
 21.47     561.00
 21.57     550.00
 21.67     511.06
 21.77     504.65
 21.87     508.89
 21.97     539.00
 22.07     517.00
 22.17     523.30
 22.27     509.00
 22.37     507.00
 22.47     548.00
 22.57     583.00
 22.67     541.68
 22.77     595.96
 22.87     577.62
 22.97     593.33
 23.07     562.49
 23.17     562.00
 23.27     575.00
 23.37     553.31
 23.47     529.00
 23.57     551.11
 23.67     527.00
 23.77     554.00
 23.87     561.00
 23.97     504.32
 24.07     528.92
 24.17     566.00
 24.27     588.58
 24.37     552.00
 24.47     572.00
 24.57     573.00
 24.67     604.00
 24.77     621.28
 24.87     667.22
 24.97     625.45
 25.07     548.93
 25.17     561.00
 25.27     570.00
 25.37     569.38
 25.47     511.00
 25.57     527.66
 25.67     539.00
 25.77     583.00
 25.87     542.00
 25.97     579.00
 26.07     575.00
 26.17     556.15
 26.27     534.00
 26.37     575.00
 26.47     493.07
 26.57     560.00
 26.67     538.00
 26.77     492.58
 26.87     522.00
 26.97     557.71
 27.07     581.00
 27.17     511.62
 27.27     592.00
 27.37     553.00
 27.47     614.00
 27.57     563.00
 27.67     541.74
 27.77     577.00
 27.87     578.32
 27.97     678.00
 28.07     775.00
 28.17     897.00
 28.27     958.00
 28.37     889.00
 28.47     772.00
 28.57     733.00
 28.67     711.00
 28.77     695.63
 28.87     828.99
 28.97     766.00
 29.07     776.00
 29.17     738.92
 29.27     651.00
 29.37     582.00
 29.47     662.00
 29.57     632.92
 29.67     609.00
 29.77     525.93
 29.87     614.00
 29.97     587.51
 30.07     534.52
 30.17     518.86
 30.27     492.74
 30.37     571.43
 30.47     575.00
 30.57     555.04
 30.67     534.06
 30.77     538.38
 30.87     601.79
 30.97     603.00
 31.07     588.00
 31.17     597.00
 31.27     520.00
 31.37     585.00
 31.47     562.87
 31.57     565.00
 31.67     519.73
 31.77     504.00
 31.87     518.00
 31.97     530.00
 32.07     540.00
 32.17     523.00
 32.27     494.58
 32.37     545.00
 32.47     538.00
 32.57     530.00
 32.67     581.00
 32.77     549.00
 32.87     524.00
 32.97     553.00
 33.07     536.00
 33.17     557.67
 33.27     579.00
 33.37     558.00
 33.47     587.00
 33.57     618.28
 33.67     627.00
 33.77     721.00
 33.87     842.00
 33.97     961.00
 34.07    1001.14
 34.17    1064.00
 34.27     899.00
 34.37     838.43
 34.47     607.00
 34.57     568.00
 34.67     577.00
 34.77     568.79
 34.87     549.00
 34.97     493.43
 35.07     559.00
 35.17     556.00
 35.27     511.00
 35.37     527.49
 35.47     557.19
 35.57     548.00
 35.67     495.00
 35.77     543.00
 35.87     479.90
 35.97     516.60
 36.07     548.02
 36.17     522.54
 36.27     468.00
 36.37     532.64
 36.47     468.60
 36.57     536.00
 36.67     522.50
 36.77     482.00
 36.87     463.60
 36.97     527.00
 37.07     540.13
 37.17     492.00
 37.27     492.79
 37.37     552.94
 37.47     538.40
 37.57     521.00
 37.67     496.00
 37.77     511.00
 37.87     513.16
 37.97     552.75
 38.07     529.89
 38.17     471.00
 38.27     454.00
 38.37     553.91
 38.47     532.68
 38.57     545.00
 38.67     501.00
 38.77     507.64
 38.87     536.77
 38.97     468.00
 39.07     489.00
 39.17     512.00
 39.27     474.15
 39.37     524.00
 39.47     477.66
 39.57     507.00
 39.67     506.44
 39.77     563.00
 39.87     491.00
 39.97     501.00
 40.07     505.00
 40.17     466.44
 40.27     497.00
 40.37     485.56
 40.47     540.83
 40.57     521.00
 40.67     522.47
 40.77     511.35
 40.87     487.08
 40.97     470.62
 41.07     495.27
 41.17     480.00
 41.27     481.00
 41.37     508.00
 41.47     508.03
 41.57     505.00
 41.67     495.88
 41.77     481.00
 41.87     510.00
 41.97     501.00
 42.07     512.00
 42.17     504.00
 42.27     534.00
 42.37     574.99
 42.47     577.22
 42.57     547.00
 42.67     609.99
 42.77     629.34
 42.87     536.00
 42.97     596.86
 43.07     593.61
 43.17     495.00
 43.27     491.00
 43.37     525.00
 43.47     479.00
 43.57     469.39
 43.67     511.71
 43.77     520.00
 43.87     512.00
 43.97     467.62
 44.07     488.00
 44.17     500.00
 44.27     501.41
 44.37     491.00
 44.47     474.50
 44.57     517.00
 44.67     501.00
 44.77     519.00
 44.87     485.04
 44.97     480.00
 45.07     472.07
 45.17     522.00
 45.27     477.00
 45.37     467.00
 45.47     437.00
 45.57     501.00
 45.67     510.16
 45.77     510.00
 45.87     514.00
 45.97     483.30
 46.07     466.00
 46.17     515.00
 46.27     461.02
 46.37     539.50
 46.47     462.00
 46.57     511.38
 46.67     524.17
 46.77     478.00
 46.87     497.00
 46.97     506.30
 47.07     544.01
 47.17     508.00
 47.27     516.00
 47.37     493.62
 47.47     498.02
 47.57     586.24
 47.67     584.00
 47.77     633.00
 47.87     544.00
 47.97     575.24
 48.07     587.00
 48.17     607.18
 48.27     547.00
 48.37     538.83
 48.47     525.00
 48.57     551.00
 48.67     573.35
 48.77     520.00
 48.87     556.72
 48.97     535.60
 49.07     572.00
 49.17     542.00
 49.27     593.00
 49.37     657.83
 49.47     710.42
 49.57     761.00
 49.67     884.00
 49.77    1092.00
 49.87    1325.00
 49.97    1644.00
 50.07    2148.36
 50.17    2449.57
 50.27    2534.00
 50.37    2372.00
 50.47    2139.00
 50.57    1615.14
 50.67    1162.00
 50.77     949.99
 50.87     764.44
 50.97     700.00
 51.07     670.00
 51.17     633.00
 51.27     571.14
 51.37     568.00
 51.47     564.31
 51.57     578.46
 51.67     578.00
 51.77     563.00
 51.87     529.00
 51.97     523.00
 52.07     555.00
 52.17     512.00
 52.27     491.86
 52.37     554.51
 52.47     588.00
 52.57     587.00
 52.67     561.00
 52.77     622.00
 52.87     622.00
 52.97     705.00
 53.07     729.55
 53.17     842.00
 53.27     952.00
 53.37    1054.00
 53.47    1125.00
 53.57    1213.00
 53.67    1074.00
 53.77    1028.00
 53.87    1003.29
 53.97     815.00
 54.07     740.00
 54.17     619.00
 54.27     598.00
 54.37     580.00
 54.47     534.44
 54.57     542.00
 54.67     545.00
 54.77     537.65
 54.87     557.00
 54.97     570.00
 55.07     562.00
 55.17     524.00
 55.27     587.00
 55.37     525.53
 55.47     547.00
 55.57     596.00
 55.67     546.00
 55.77     527.40
 55.87     571.00
 55.97     594.00
 56.07     636.00
 56.17     693.00
 56.27     821.46
 56.37     962.36
 56.47    1244.00
 56.57    1594.48
 56.67    2059.31
 56.77    2399.00
 56.87    2535.00
 56.97    2604.00
 57.07    2577.00
 57.17    2186.26
 57.27    1900.42
 57.37    1421.00
 57.47    1220.00
 57.57     947.37
 57.67     792.78
 57.77     668.86
 57.87     729.00
 57.97     644.00
 58.07     618.00
 58.17     652.84
 58.27     741.00
 58.37     830.51
 58.47     894.00
 58.57    1058.00
 58.67    1171.69
 58.77    1276.54
 58.87    1474.00
 58.97    1508.00
 59.07    1623.00
 59.17    1594.74
 59.27    1541.00
 59.37    1466.00
 59.47    1273.62
 59.57    1197.24
 59.67    1110.62
 59.77    1109.00
 59.87    1159.50
 59.97    1271.00
 60.07    1394.00
 60.17    1501.43
 60.27    1619.93
 60.37    1593.00
 60.47    1521.00
 60.57    1362.12
 60.67    1184.00
 60.77     962.00
 60.87     816.00
 60.97     779.00
 61.07     694.00
 61.17     598.59
 61.27     653.00
 61.37     645.96
 61.47     656.96
 61.57     708.00
 61.67     788.33
 61.77     916.00
 61.87    1051.00
 61.97    1168.11
 62.07    1286.47
 62.17    1492.60
 62.27    1392.00
 62.37    1467.60
 62.47    1334.00
 62.57    1107.00
 62.67    1036.17
 62.77     824.00
 62.87     695.91
 62.97     635.19
 63.07     583.00
 63.17     609.00
 63.27     587.00
 63.37     591.00
 63.47     530.00
 63.57     561.00
 63.67     599.00
 63.77     557.00
 63.87     658.00
 63.97     599.00
 64.07     685.00
 64.17     705.00
 64.27     806.00
 64.37     853.34
 64.47     917.00
 64.57     982.00
 64.67    1012.34
 64.77     975.00
 64.87    1030.21
 64.97     880.00
 65.07     921.00
 65.17     856.00
 65.27     786.00
 65.37     688.00
 65.47     667.00
 65.57     662.00
 65.67     620.00
 65.77     624.00
 65.87     567.00
 65.97     550.79
 66.07     565.00
 66.17     546.00
 66.27     563.00
 66.37     534.00
 66.47     527.00
 66.57     553.00
 66.67     556.00
 66.77     566.00
 66.87     543.00
 66.97     596.00
 67.07     576.00
 67.17     613.00
 67.27     746.00
 67.37     797.51
 67.47     885.00
 67.57    1080.00
 67.67    1305.00
 67.77    1664.88
 67.87    1842.00
 67.97    2174.71
 68.07    2438.00
 68.17    2436.44
 68.27    2328.99
 68.37    2281.89
 68.47    1904.19
 68.57    1698.00
 68.67    1411.58
 68.77    1159.33
 68.87     920.91
 68.97     866.00
 69.07     732.00
 69.17     680.00
 69.27     653.00
 69.37     634.00
 69.47     608.92
 69.57     538.50
 69.67     562.00
 69.77     575.00
 69.87     511.08
 69.97     553.00
 70.07     543.00
 70.17     534.00
 70.27     554.00
 70.37     542.00
 70.47     534.00
 70.57     564.00
 70.67     575.00
 70.77     599.97
 70.87     563.00
 70.97     593.26
 71.07     595.00
 71.17     705.00
 71.27     714.00
 71.37     820.26
 71.47     956.00
 71.57    1120.73
 71.67    1300.00
 71.77    1453.74
 71.87    1726.00
 71.97    1828.00
 72.07    1975.00
 72.17    1963.00
 72.27    1911.00
 72.37    1781.38
 72.47    1597.00
 72.57    1489.00
 72.67    1266.10
 72.77    1188.15
 72.87    1016.00
 72.97     901.00
 73.07     899.00
 73.17     896.11
 73.27     772.00
 73.37     701.00
 73.47     658.00
 73.57     720.66
 73.67     620.89
 73.77     590.00
 73.87     588.31
 73.97     532.00
 74.07     577.00
 74.17     598.00
 74.27     604.00
 74.37     572.00
 74.47     621.00
 74.57     662.00
 74.67     615.00
 74.77     649.00
 74.87     654.00
 74.97     621.00
 75.07     614.00
 75.17     512.62
 75.27     600.00
 75.37     586.71
 75.47     562.00
 75.57     519.25
 75.67     499.00
 75.77     546.00
 75.87     552.00
 75.97     569.28
 76.07     597.00
 76.17     671.65
 76.27     597.85
 76.37     635.00
 76.47     637.09
 76.57     647.00
 76.67     697.00
 76.77     696.12
 76.87     669.00
 76.97     666.20
 77.07     621.00
 77.17     571.40
 77.27     606.00
 77.37     599.19
 77.47     527.00
 77.57     562.38
 77.67     524.60
 77.77     513.00
 77.87     501.00
 77.97     538.00
 78.07     533.81
 78.17     506.00
 78.27     528.00
 78.37     539.41
 78.47     517.00
 78.57     485.00
 78.67     537.00
 78.77     550.00
 78.87     534.57
 78.97     560.00
 79.07     533.00
 79.17     534.00
 79.27     524.18
 79.37     555.71
 79.47     530.00
 79.57     505.39
 79.67     544.00
 79.77     503.00
 79.87     539.00
 79.97     483.00
 80.07     553.00
 80.17     522.41
 80.27     538.00
 80.37     585.01
 80.47     561.79
 80.57     586.13
 80.67     628.77
 80.77     610.00
 80.87     662.00
 80.97     633.95
 81.07     697.00
 81.17     667.20
 81.27     764.00
 81.37     682.84
 81.47     750.00
 81.57     804.00
 81.67     709.53
 81.77     742.20
 81.87     703.00
 81.97     687.91
 82.07     684.00
 82.17     645.24
 82.27     686.33
 82.37     626.95
 82.47     597.00
 82.57     600.59
 82.67     569.00
 82.77     559.00
 82.87     551.00
 82.97     553.65
 83.07     515.00
 83.17     592.06
 83.27     562.00
 83.37     567.00
 83.47     541.75
 83.57     537.00
 83.67     528.00
 83.77     565.00
 83.87     571.00
 83.97     602.89
 84.07     601.74
 84.17     536.06
 84.27     563.00
 84.37     554.00
 84.47     575.00
 84.57     581.00
 84.67     546.00
 84.77     546.00
 84.87     530.51
 84.97     550.09
 85.07     546.00
 85.17     525.00
 85.27     530.00
 85.37     531.00
 85.47     536.26
 85.57     524.00
 85.67     539.34
 85.77     525.00
 85.87     537.00
 85.97     521.00
 86.07     528.28
 86.17     484.53
 86.27     557.00
 86.37     517.00
 86.47     576.00
 86.57     568.47
 86.67     554.00
 86.77     610.00
 86.87     582.00
 86.97     580.12
 87.07     559.00
 87.17     605.00
 87.27     593.00
 87.37     632.00
 87.47     607.00
 87.57     636.00
 87.67     636.00
 87.77     651.41
 87.87     612.00
 87.97     653.71
 88.07     652.00
 88.17     603.00
 88.27     583.00
 88.37     609.86
 88.47     557.00
 88.57     606.84
 88.67     568.24
 88.77     603.92
 88.87     565.33
 88.97     571.00
 89.07     641.00
 89.17     599.32
 89.27     610.66
 89.37     574.21
 89.47     625.00
 89.57     589.00
 89.67     547.00
 89.77     541.58
 89.87     606.47
 89.97     572.58
 90.07     550.82
 90.17     594.36
 90.27     525.00
 90.37     546.00
 90.47     520.00
 90.57     573.79
 90.67     502.00
 90.77     519.00
 90.87     490.54
 90.97     559.00
 91.07     490.00
 91.17     528.79
 91.27     533.97
 91.37     485.93
 91.47     492.00
 91.57     550.64
 91.67     540.00
 91.77     515.00
 91.87     499.00
 91.97     480.00
 92.07     509.00
 92.17     523.00
 92.27     553.52
 92.37     513.00
 92.47     596.64
 92.57     643.00
 92.67     631.00
 92.77     642.82
 92.87     701.99
 92.97     676.00
 93.07     684.25
 93.17     676.00
 93.27     697.00
 93.37     807.00
 93.47     746.00
 93.57     816.00
 93.67     847.03
 93.77     831.00
 93.87     782.65
 93.97     857.01
 94.07     893.00
 94.17     838.00
 94.27     832.50
 94.37     872.00
 94.47     901.05
 94.57     932.76
 94.67     919.00
 94.77     925.08
 94.87     907.00
 94.97     920.00
 95.07     892.45
 95.17     917.00
 95.27     858.00
 95.37     800.00
 95.47     773.00
 95.57     814.00
 95.67     739.00
 95.77     735.16
 95.87     685.00
 95.97     647.00
 96.07     698.00
 96.17     634.15
 96.27     644.16
 96.37     700.00
 96.47     733.00
 96.57     790.00
 96.67     886.13
 96.77     861.00
 96.87     964.00
 96.97    1016.84
 97.07    1124.00
 97.17    1171.00
 97.27    1281.00
 97.37    1288.00
 97.47    1428.00
 97.57    1352.00
 97.67    1384.09
 97.77    1413.00
 97.87    1420.00
 97.97    1393.81
 98.07    1364.00
 98.17    1296.00
 98.27    1133.17
 98.37    1145.56
 98.47    1080.54
 98.57     980.00
 98.67     898.00
 98.77     841.21
 98.87     822.00
 98.97     777.00
 99.07     836.00
 99.17     757.70
 99.27     804.00
 99.37     907.00
 99.47     893.03
 99.57    1013.00
 99.67    1089.00
 99.77    1181.00
 99.87    1246.32
 99.97    1279.00
100.07    1531.00
100.17    1630.00
100.27    1735.86
100.37    1926.00
100.47    1879.20
100.57    1982.54
100.67    2014.00
100.77    2061.00
100.87    2088.00
100.97    2098.00
101.07    2101.00
101.17    1992.00
101.27    1958.00
101.37    1865.00
101.47    1682.00
101.57    1588.28
101.67    1661.00
101.77    1478.00
101.87    1343.00
101.97    1319.00
102.07    1311.62
102.17    1277.00
102.27    1207.00
102.37    1164.83
102.47    1060.00
102.57    1109.00
102.67    1038.00
102.77    1061.00
102.87    1042.00
102.97     985.90
103.07     964.00
103.17     980.67
103.27     922.26
103.37     865.00
103.47     818.00
103.57     801.00
103.67     743.00
103.77     732.00
103.87     693.00
103.97     622.00
104.07     607.00
104.17     583.78
104.27     596.00
104.37     599.45
104.47     591.65
104.57     531.00
104.67     587.00
104.77     535.00
104.87     500.00
104.97     506.00
105.07     540.00
105.17     561.00
105.27     521.34
105.37     501.34
105.47     508.30
105.57     539.00
105.67     545.00
105.77     539.00
105.87     570.00
105.97     515.40
106.07     545.92
106.17     599.00
106.27     609.62
106.37     592.00
106.47     616.23
106.57     577.00
106.67     602.00
106.77     656.71
106.87     625.00
106.97     675.00
107.07     652.00
107.17     651.00
107.27     626.00
107.37     643.82
107.47     629.00
107.57     654.00
107.67     673.01
107.77     726.00
107.87     669.00
107.97     694.53
108.07     715.64
108.17     665.07
108.27     619.00
108.37     663.00
108.47     705.00
108.57     676.39
108.67     659.71
108.77     718.30
108.87     652.00
108.97     673.64
109.07     679.00
109.17     647.22
109.27     623.00
109.37     692.00
109.47     618.00
109.57     682.00
109.67     632.00
109.77     656.49
109.87     579.79
109.97     584.00
110.07     611.00
110.17     592.00
110.27     560.00
110.37     594.00
110.47     572.77
110.57     562.00
110.67     561.00
110.77     533.00
110.87     539.90
110.97     550.00
111.07     537.00
111.17     588.00
111.27     507.01
111.37     502.63
111.47     490.59
111.57     539.00
111.67     536.00
111.77     503.00
111.87     509.22
111.97     590.00
112.07     506.92
112.17     545.00
112.27     536.51
112.37     554.18
112.47     527.00
112.57     561.83
112.67     585.20
112.77     552.00
112.87     613.00
112.97     597.79
113.07     636.00
113.17     703.00
113.27     740.00
113.37     673.87
113.47     731.92
113.57     807.91
113.67     888.00
113.77     868.19
113.87     858.18
113.97     945.18
114.07     931.00
114.17    1035.00
114.27    1164.00
114.37    1193.00
114.47    1247.00
114.57    1380.79
114.67    1504.00
114.77    1631.00
114.87    1733.78
114.97    1938.00
115.07    2179.00
115.17    2281.24
115.27    2562.26
115.37    2865.00
115.47    3055.00
115.57    3478.98
115.67    3793.00
115.77    4128.00
115.87    4400.00
115.97    4883.00
116.07    5238.00
116.17    5800.22
116.27    6051.00
116.37    6244.00
116.47    6844.00
116.57    6878.74
116.67    7079.00
116.77    7080.65
116.87    7222.00
116.97    7135.00
117.07    6815.09
117.17    6640.00
117.27    6360.00
117.37    6209.62
117.47    5536.00
117.57    5250.27
117.67    4890.00
117.77    4632.00
117.87    4259.07
117.97    3823.23
118.07    3494.00
118.17    3151.00
118.27    2702.00
118.37    2427.00
118.47    2077.11
118.57    1916.00
118.67    1599.00
118.77    1411.00
118.87    1296.82
118.97    1161.68
119.07    1071.00
119.17     955.00
119.27     902.00
119.37     886.98
119.47     854.98
119.57     705.33
119.67     703.00
119.77     667.00
119.87     648.00
119.97     590.00
120.07     633.95
120.17     573.16
120.27     560.00
120.37     599.00
120.47     577.00
120.57     621.81
120.67     589.00
120.77     587.00
120.87     555.53
120.97     558.00
121.07     563.27
121.17     576.00
121.27     608.98
121.37     533.00
121.47     518.00
121.57     588.00
121.67     570.63
121.77     598.00
121.87     580.00
121.97     581.00
122.07     591.49
122.17     604.18
122.27     582.25
122.37     634.00
122.47     639.15
122.57     670.00
122.67     595.76
122.77     663.21
122.87     613.65
122.97     638.00
123.07     602.00
123.17     646.00
123.27     624.00
123.37     583.27
123.47     654.74
123.57     627.00
123.67     662.00
123.77     625.13
123.87     625.00
123.97     632.13
124.07     623.00
124.17     642.72
124.27     570.95
124.37     586.00
124.47     581.00
124.57     594.05
124.67     586.00
124.77     585.00
124.87     570.00
124.97     583.00
