  9.97     615.72
 10.07     634.00
 10.17     600.34
 10.27     530.75
 10.37     610.00
 10.47     606.00
 10.57     597.00
 10.67     546.36
 10.77     584.00
 10.87     549.00
 10.97     572.00
 11.07     603.37
 11.17     594.00
 11.27     548.00
 11.37     594.00
 11.47     605.37
 11.57     593.00
 11.67     646.00
 11.77     625.00
 11.87     637.00
 11.97     694.62
 12.07     676.00
 12.17     699.00
 12.27     662.00
 12.37     655.00
 12.47     669.24
 12.57     614.00
 12.67     622.00
 12.77     585.00
 12.87     532.34
 12.97     562.00
 13.07     628.99
 13.17     551.00
 13.27     581.00
 13.37     592.00
 13.47     567.00
 13.57     545.53
 13.67     542.00
 13.77     602.59
 13.87     575.00
 13.97     586.00
 14.07     549.49
 14.17     576.00
 14.27     553.00
 14.37     545.98
 14.47     545.58
 14.57     613.43
 14.67     569.00
 14.77     596.00
 14.87     580.00
 14.97     576.00
 15.07     561.00
 15.17     554.00
 15.27     574.37
 15.37     524.34
 15.47     547.00
 15.57     565.00
 15.67     559.00
 15.77     549.00
 15.87     523.20
 15.97     574.91
 16.07     561.00
 16.17     522.00
 16.27     593.00
 16.37     565.00
 16.47     583.00
 16.57     532.00
 16.67     586.29
 16.77     550.13
 16.87     561.46
 16.97     593.62
 17.07     539.00
 17.17     610.59
 17.27     578.00
 17.37     588.00
 17.47     568.00
 17.57     552.00
 17.67     604.97
 17.77     550.00
 17.87     544.32
 17.97     557.00
 18.07     597.76
 18.17     582.40
 18.27     548.00
 18.37     539.00
 18.47     559.00
 18.57     578.00
 18.67     578.00
 18.77     568.77
 18.87     603.82
 18.97     565.52
 19.07     540.00
 19.17     546.97
 19.27     574.00
 19.37     565.00
 19.47     557.00
 19.57     551.00
 19.67     520.10
 19.77     550.00
 19.87     553.00
 19.97     555.00
 20.07     550.25
 20.17     556.94
 20.27     573.00
 20.37     527.00
 20.47     564.00
 20.57     541.00
 20.67     530.00
 20.77     603.00
 20.87     583.00
 20.97     553.88
 21.07     534.00
 21.17     531.42
 21.27     543.00
 21.37     600.16
 21.47     563.00
 21.57     576.00
 21.67     518.19
 21.77     573.10
 21.87     542.05
 21.97     588.00
 22.07     577.08
 22.17     551.00
 22.27     533.65
 22.37     574.00
 22.47     542.73
 22.57     581.00
 22.67     512.05
 22.77     573.00
 22.87     556.00
 22.97     543.14
 23.07     564.00
 23.17     605.00
 23.27     543.00
 23.37     537.00
 23.47     512.68
 23.57     539.83
 23.67     539.00
 23.77     521.00
 23.87     554.00
 23.97     594.00
 24.07     582.80
 24.17     570.00
 24.27     555.61
 24.37     562.00
 24.47     545.00
 24.57     577.00
 24.67     615.00
 24.77     661.01
 24.87     670.00
 24.97     582.00
 25.07     597.00
 25.17     611.00
 25.27     559.00
 25.37     596.31
 25.47     579.69
 25.57     570.20
 25.67     522.00
 25.77     569.00
 25.87     553.00
 25.97     513.85
 26.07     562.38
 26.17     510.88
 26.27     517.73
 26.37     550.49
 26.47     534.00
 26.57     545.00
 26.67     535.00
 26.77     598.00
 26.87     584.78
 26.97     570.00
 27.07     574.23
 27.17     530.00
 27.27     535.00
 27.37     579.69
 27.47     564.00
 27.57     578.94
 27.67     516.49
 27.77     543.00
 27.87     556.00
 27.97     682.00
 28.07     790.00
 28.17     843.00
 28.27     972.84
 28.37     952.24
 28.47     805.31
 28.57     699.00
 28.67     724.83
 28.77     778.00
 28.87     837.00
 28.97     861.00
 29.07     769.00
 29.17     745.00
 29.27     618.00
 29.37     591.34
 29.47     588.00
 29.57     605.14
 29.67     640.00
 29.77     596.00
 29.87     571.00
 29.97     575.00
 30.07     528.35
 30.17     528.61
 30.27     539.05
 30.37     584.00
 30.47     568.00
 30.57     544.66
 30.67     614.00
 30.77     624.02
 30.87     628.00
 30.97     639.00
 31.07     639.00
 31.17     575.00
 31.27     572.00
 31.37     574.00
 31.47     558.00
 31.57     524.00
 31.67     534.00
 31.77     570.49
 31.87     555.40
 31.97     517.33
 32.07     543.00
 32.17     563.30
 32.27     529.41
 32.37     516.49
 32.47     555.00
 32.57     564.00
 32.67     557.27
 32.77     561.30
 32.87     522.00
 32.97     527.00
 33.07     556.90
 33.17     544.61
 33.27     511.35
 33.37     558.61
 33.47     523.59
 33.57     544.00
 33.67     633.00
 33.77     793.00
 33.87     876.82
 33.97    1033.00
 34.07    1051.47
 34.17    1020.00
 34.27     888.65
 34.37     764.00
 34.47     637.00
 34.57     571.52
 34.67     569.00
 34.77     498.00
 34.87     527.00
 34.97     515.00
 35.07     543.00
 35.17     551.00
 35.27     524.44
 35.37     546.00
 35.47     579.00
 35.57     527.42
 35.67     476.00
 35.77     491.72
 35.87     500.00
 35.97     500.00
 36.07     508.68
 36.17     500.23
 36.27     492.00
 36.37     515.00
 36.47     499.30
 36.57     468.00
 36.67     496.60
 36.77     481.00
 36.87     518.00
 36.97     488.60
 37.07     521.00
 37.17     515.00
 37.27     521.37
 37.37     519.22
 37.47     527.00
 37.57     532.00
 37.67     504.98
 37.77     505.00
 37.87     491.00
 37.97     533.00
 38.07     489.00
 38.17     508.43
 38.27     542.70
 38.37     462.00
 38.47     512.00
 38.57     539.00
 38.67     511.00
 38.77     518.61
 38.87     517.00
 38.97     540.00
 39.07     473.00
 39.17     458.00
 39.27     457.00
 39.37     461.17
 39.47     501.00
 39.57     529.00
 39.67     475.00
 39.77     524.00
 39.87     516.00
 39.97     509.00
 40.07     462.54
 40.17     522.95
 40.27     510.00
 40.37     546.00
 40.47     459.07
 40.57     506.26
 40.67     537.00
 40.77     526.46
 40.87     513.16
 40.97     537.38
 41.07     498.65
 41.17     508.74
 41.27     528.00
 41.37     514.00
 41.47     481.00
 41.57     445.00
 41.67     509.00
 41.77     501.47
 41.87     496.00
 41.97     505.65
 42.07     509.00
 42.17     490.00
 42.27     526.00
 42.37     522.97
 42.47     604.54
 42.57     568.30
 42.67     647.00
 42.77     592.86
 42.87     603.00
 42.97     578.96
 43.07     549.00
 43.17     560.00
 43.27     541.02
 43.37     486.22
 43.47     487.00
 43.57     547.21
 43.67     504.28
 43.77     511.00
 43.87     549.00
 43.97     486.00
 44.07     487.00
 44.17     527.67
 44.27     534.00
 44.37     543.00
 44.47     516.24
 44.57     490.00
 44.67     490.78
 44.77     471.10
 44.87     475.66
 44.97     499.00
 45.07     550.00
 45.17     501.00
 45.27     527.00
 45.37     502.76
 45.47     544.00
 45.57     524.12
 45.67     474.00
 45.77     533.02
 45.87     497.00
 45.97     505.00
 46.07     535.00
 46.17     474.00
 46.27     541.71
 46.37     501.31
 46.47     526.00
 46.57     495.00
 46.67     515.00
 46.77     477.75
 46.87     482.00
 46.97     483.00
 47.07     508.00
 47.17     478.58
 47.27     514.22
 47.37     532.00
 47.47     566.65
 47.57     596.00
 47.67     614.59
 47.77     590.00
 47.87     606.00
 47.97     565.43
 48.07     570.00
 48.17     566.14
 48.27     593.63
 48.37     546.00
 48.47     513.00
 48.57     525.00
 48.67     531.83
 48.77     537.00
 48.87     576.60
 48.97     543.00
 49.07     557.88
 49.17     613.00
 49.27     599.44
 49.37     597.17
 49.47     728.00
 49.57     788.00
 49.67     923.20
 49.77    1103.00
 49.87    1507.92
 49.97    1841.00
 50.07    2236.00
 50.17    2435.00
 50.27    2423.00
 50.37    2329.02
 50.47    1867.00
 50.57    1415.00
 50.67    1067.23
 50.77     818.00
 50.87     731.00
 50.97     701.00
 51.07     642.80
 51.17     653.00
 51.27     597.00
 51.37     561.00
 51.47     535.89
 51.57     559.14
 51.67     563.98
 51.77     591.30
 51.87     530.00
 51.97     534.00
 52.07     541.00
 52.17     531.00
 52.27     506.00
 52.37     538.00
 52.47     531.19
 52.57     572.00
 52.67     584.76
 52.77     591.00
 52.87     627.00
 52.97     682.32
 53.07     747.02
 53.17     965.00
 53.27    1054.00
 53.37    1101.88
 53.47    1244.00
 53.57    1233.00
 53.67    1170.67
 53.77     944.00
 53.87     874.00
 53.97     747.00
 54.07     649.00
 54.17     630.00
 54.27     589.16
 54.37     601.00
 54.47     574.00
 54.57     558.00
 54.67     527.16
 54.77     549.00
 54.87     562.18
 54.97     566.00
 55.07     550.51
 55.17     586.00
 55.27     571.00
 55.37     538.26
 55.47     516.76
 55.57     562.00
 55.67     578.00
 55.77     638.00
 55.87     627.16
 55.97     635.00
 56.07     663.00
 56.17     731.00
 56.27     884.00
 56.37    1137.47
 56.47    1414.00
 56.57    1840.00
 56.67    2067.00
 56.77    2468.00
 56.87    2629.26
 56.97    2549.00
 57.07    2308.00
 57.17    2038.00
 57.27    1610.00
 57.37    1305.00
 57.47    1018.00
 57.57     853.98
 57.67     709.00
 57.77     683.00
 57.87     728.00
 57.97     641.00
 58.07     737.00
 58.17     677.00
 58.27     820.00
 58.37     803.00
 58.47     911.00
 58.57    1085.73
 58.67    1160.00
 58.77    1328.00
 58.87    1468.35
 58.97    1453.30
 59.07    1393.62
 59.17    1476.00
 59.27    1410.00
 59.37    1354.86
 59.47    1235.00
 59.57    1190.16
 59.67    1193.53
 59.77    1127.00
 59.87    1231.00
 59.97    1294.00
 60.07    1512.00
 60.17    1578.00
 60.27    1575.00
 60.37    1475.72
 60.47    1382.00
 60.57    1175.03
 60.67    1107.66
 60.77     893.00
 60.87     819.00
 60.97     678.23
 61.07     617.00
 61.17     583.00
 61.27     588.00
 61.37     689.24
 61.47     666.00
 61.57     773.00
 61.67     860.78
 61.77     987.00
 61.87    1085.00
 61.97    1284.27
 62.07    1311.00
 62.17    1373.00
 62.27    1384.00
 62.37    1265.00
 62.47    1143.00
 62.57    1100.34
 62.67     838.00
 62.77     821.38
 62.87     655.00
 62.97     659.34
 63.07     617.00
 63.17     589.00
 63.27     541.38
 63.37     591.89
 63.47     525.00
 63.57     608.00
 63.67     521.49
 63.77     594.23
 63.87     601.00
 63.97     640.00
 64.07     706.00
 64.17     795.00
 64.27     800.37
 64.37     871.00
 64.47     985.38
 64.57    1043.86
 64.67    1053.32
 64.77    1011.84
 64.87     993.00
 64.97     860.00
 65.07     844.00
 65.17     816.33
 65.27     716.00
 65.37     742.94
 65.47     631.00
 65.57     597.00
 65.67     631.00
 65.77     599.00
 65.87     583.00
 65.97     561.00
 66.07     575.00
 66.17     582.00
 66.27     499.00
 66.37     560.00
 66.47     528.02
 66.57     528.95
 66.67     539.02
 66.77     551.09
 66.87     614.00
 66.97     574.00
 67.07     617.17
 67.17     732.79
 67.27     768.22
 67.37     918.47
 67.47    1114.00
 67.57    1309.00
 67.67    1584.00
 67.77    1800.00
 67.87    2046.63
 67.97    2299.00
 68.07    2470.00
 68.17    2318.00
 68.27    2336.62
 68.37    2111.00
 68.47    1837.00
 68.57    1572.00
 68.67    1194.79
 68.77    1050.36
 68.87     941.00
 68.97     792.94
 69.07     669.00
 69.17     662.00
 69.27     665.00
 69.37     591.33
 69.47     534.20
 69.57     619.49
 69.67     522.24
 69.77     546.38
 69.87     574.00
 69.97     523.00
 70.07     567.00
 70.17     536.00
 70.27     558.44
 70.37     580.00
 70.47     531.33
 70.57     585.00
 70.67     585.03
 70.77     539.00
 70.87     626.00
 70.97     620.00
 71.07     627.00
 71.17     706.00
 71.27     792.00
 71.37     964.00
 71.47    1072.00
 71.57    1210.00
 71.67    1432.00
 71.77    1629.00
 71.87    1778.00
 71.97    1917.00
 72.07    1999.00
 72.17    1793.51
 72.27    1794.92
 72.37    1694.00
 72.47    1543.00
 72.57    1290.47
 72.67    1140.00
 72.77     984.00
 72.87     944.00
 72.97     784.00
 73.07     756.00
 73.17     656.00
 73.27     711.00
 73.37     640.00
 73.47     609.00
 73.57     685.60
 73.67     594.00
 73.77     562.86
 73.87     605.00
 73.97     597.00
 74.07     548.40
 74.17     606.00
 74.27     612.00
 74.37     602.00
 74.47     649.00
 74.57     586.62
 74.67     622.00
 74.77     633.00
 74.87     666.00
 74.97     624.00
 75.07     594.05
 75.17     622.00
 75.27     529.00
 75.37     523.00
 75.47     556.51
 75.57     560.51
 75.67     605.00
 75.77     583.00
 75.87     558.00
 75.97     583.49
 76.07     609.00
 76.17     639.51
 76.27     628.00
 76.37     685.00
 76.47     657.00
 76.57     704.08
 76.67     692.00
 76.77     692.00
 76.87     612.00
 76.97     628.00
 77.07     624.00
 77.17     588.60
 77.27     562.00
 77.37     573.00
 77.47     547.00
 77.57     545.00
 77.67     512.00
 77.77     555.11
 77.87     514.00
 77.97     518.00
 78.07     534.29
 78.17     551.53
 78.27     551.66
 78.37     481.74
 78.47     507.00
 78.57     537.00
 78.67     554.29
 78.77     546.00
 78.87     493.00
 78.97     549.93
 79.07     611.00
 79.17     498.00
 79.27     548.00
 79.37     486.03
 79.47     536.94
 79.57     519.78
 79.67     550.00
 79.77     516.48
 79.87     561.00
 79.97     538.16
 80.07     569.00
 80.17     566.50
 80.27     526.90
 80.37     560.00
 80.47     620.34
 80.57     632.77
 80.67     591.88
 80.77     613.00
 80.87     661.99
 80.97     660.00
 81.07     662.00
 81.17     725.89
 81.27     768.00
 81.37     765.22
 81.47     762.00
 81.57     735.00
 81.67     743.31
 81.77     714.69
 81.87     704.68
 81.97     721.00
 82.07     658.51
 82.17     705.90
 82.27     621.00
 82.37     625.64
 82.47     590.00
 82.57     615.85
 82.67     595.79
 82.77     534.77
 82.87     546.00
 82.97     517.00
 83.07     572.00
 83.17     530.00
 83.27     523.54
 83.37     513.61
 83.47     518.86
 83.57     552.00
 83.67     546.00
 83.77     551.00
 83.87     521.00
 83.97     615.00
 84.07     597.31
 84.17     596.00
 84.27     564.13
 84.37     541.00
 84.47     517.70
 84.57     604.98
 84.67     575.00
 84.77     575.59
 84.87     517.95
 84.97     508.00
 85.07     533.00
 85.17     542.26
 85.27     564.00
 85.37     504.00
 85.47     562.70
 85.57     531.40
 85.67     526.00
 85.77     532.00
 85.87     538.00
 85.97     515.00
 86.07     521.00
 86.17     527.00
 86.27     544.00
 86.37     568.00
 86.47     499.00
 86.57     598.00
 86.67     528.62
 86.77     614.75
 86.87     606.00
 86.97     562.54
 87.07     640.00
 87.17     646.00
 87.27     610.33
 87.37     617.67
 87.47     678.00
 87.57     653.00
 87.67     611.15
 87.77     611.00
 87.87     602.70
 87.97     621.83
 88.07     621.00
 88.17     581.00
 88.27     612.00
 88.37     531.58
 88.47     578.00
 88.57     596.00
 88.67     544.49
 88.77     637.00
 88.87     548.62
 88.97     610.00
 89.07     589.44
 89.17     639.02
 89.27     580.92
 89.37     593.70
 89.47     580.00
 89.57     592.00
 89.67     564.06
 89.77     600.00
 89.87     568.00
 89.97     607.57
 90.07     512.00
 90.17     522.95
 90.27     552.76
 90.37     567.96
 90.47     568.00
 90.57     570.00
 90.67     525.00
 90.77     553.00
 90.87     530.73
 90.97     538.00
 91.07     517.00
 91.17     484.00
 91.27     499.00
 91.37     520.96
 91.47     490.00
 91.57     574.21
 91.67     523.93
 91.77     529.38
 91.87     524.00
 91.97     516.45
 92.07     561.00
 92.17     587.67
 92.27     576.75
 92.37     583.00
 92.47     583.21
 92.57     645.00
 92.67     679.85
 92.77     668.00
 92.87     681.00
 92.97     776.46
 93.07     793.00
 93.17     812.35
 93.27     783.00
 93.37     756.00
 93.47     853.67
 93.57     783.73
 93.67     811.00
 93.77     815.00
 93.87     777.00
 93.97     827.00
 94.07     860.85
 94.17     871.00
 94.27     865.04
 94.37     871.00
 94.47     869.24
 94.57     918.42
 94.67     825.06
 94.77     948.00
 94.87     838.86
 94.97     882.00
 95.07     893.00
 95.17     861.00
 95.27     850.00
 95.37     793.00
 95.47     781.00
 95.57     751.00
 95.67     788.00
 95.77     689.00
 95.87     692.97
 95.97     665.04
 96.07     711.00
 96.17     713.13
 96.27     769.00
 96.37     789.00
 96.47     775.00
 96.57     850.00
 96.67     962.00
 96.77     996.00
 96.87    1033.00
 96.97    1075.51
 97.07    1179.58
 97.17    1287.16
 97.27    1306.00
 97.37    1318.00
 97.47    1364.00
 97.57    1434.00
 97.67    1388.99
 97.77    1377.00
 97.87    1321.00
 97.97    1247.00
 98.07    1197.00
 98.17    1139.00
 98.27    1087.00
 98.37    1020.00
 98.47     914.32
 98.57     901.76
 98.67     872.32
 98.77     794.00
 98.87     767.00
 98.97     800.00
 99.07     817.00
 99.17     881.00
 99.27     928.54
 99.37     905.80
 99.47     952.82
 99.57    1128.00
 99.67    1165.66
 99.77    1227.00
 99.87    1413.00
 99.97    1430.95
100.07    1664.00
100.17    1742.00
100.27    1841.00
100.37    1954.00
100.47    2043.00
100.57    2043.00
100.67    2095.12
100.77    2051.00
100.87    2059.00
100.97    1984.00
101.07    1944.00
101.17    1842.00
101.27    1830.00
101.37    1696.00
101.47    1589.00
101.57    1519.00
101.67    1426.00
101.77    1418.03
101.87    1339.07
101.97    1220.00
102.07    1273.75
102.17    1122.92
102.27    1165.58
102.37    1079.42
102.47    1165.52
102.57    1073.00
102.67    1044.92
102.77    1040.35
102.87     981.00
102.97     939.00
103.07     872.42
103.17     907.00
103.27     908.00
103.37     815.00
103.47     821.21
103.57     746.00
103.67     716.15
103.77     748.00
103.87     668.23
103.97     660.56
104.07     611.00
104.17     593.58
104.27     617.00
104.37     562.00
104.47     562.00
104.57     571.00
104.67     500.73
104.77     531.00
104.87     531.00
104.97     541.68
105.07     541.04
105.17     523.00
105.27     579.76
105.37     543.00
105.47     518.00
105.57     523.00
105.67     529.00
105.77     555.00
105.87     559.14
105.97     573.00
106.07     579.00
106.17     603.00
106.27     576.00
106.37     627.75
106.47     574.39
106.57     585.00
106.67     639.00
106.77     708.46
106.87     696.80
106.97     649.00
107.07     666.00
107.17     671.00
107.27     722.07
107.37     676.07
107.47     701.57
107.57     714.93
107.67     748.79
107.77     661.00
107.87     699.00
107.97     701.00
108.07     675.00
108.17     755.27
108.27     737.00
108.37     712.00
108.47     739.00
108.57     691.00
108.67     656.22
108.77     742.00
108.87     724.00
108.97     734.41
109.07     711.00
109.17     622.00
109.27     683.00
109.37     592.00
109.47     604.58
109.57     652.00
109.67     635.00
109.77     659.00
109.87     619.00
109.97     559.83
110.07     590.00
110.17     526.77
110.27     586.00
110.37     580.00
110.47     541.00
110.57     560.00
110.67     563.00
110.77     554.58
110.87     546.00
110.97     515.00
111.07     504.10
111.17     573.00
111.27     588.00
111.37     551.00
111.47     463.00
111.57     517.19
111.67     576.00
111.77     579.00
111.87     550.00
111.97     567.17
112.07     599.24
112.17     593.00
112.27     567.93
112.37     616.00
112.47     601.00
112.57     572.00
112.67     605.00
112.77     616.00
112.87     594.00
112.97     665.00
113.07     659.00
113.17     691.00
113.27     659.32
113.37     759.45
113.47     747.00
113.57     744.64
113.67     851.82
113.77     859.00
113.87     847.00
113.97     928.00
114.07     960.00
114.17    1054.00
114.27    1137.64
114.37    1209.00
114.47    1307.00
114.57    1436.32
114.67    1472.77
114.77    1709.10
114.87    1752.16
114.97    2027.00
115.07    2356.00
115.17    2623.00
115.27    2761.00
115.37    3073.00
115.47    3364.00
115.57    3744.00
115.67    4229.13
115.77    4398.00
115.87    4843.00
115.97    5288.00
116.07    5461.00
116.17    5943.04
116.27    6128.18
116.37    6625.00
116.47    6835.36
116.57    6926.00
116.67    7011.72
116.77    6837.00
116.87    6971.00
116.97    6441.23
117.07    6213.00
117.17    5979.32
117.27    5700.83
117.37    5260.89
117.47    4842.00
117.57    4579.00
117.67    4280.00
117.77    3938.00
117.87    3652.00
117.97    3198.00
118.07    2709.40
118.17    2566.86
118.27    2349.00
118.37    1946.00
118.47    1705.73
118.57    1578.00
118.67    1467.18
118.77    1235.00
118.87    1146.00
118.97    1019.00
119.07     949.00
119.17     950.60
119.27     874.00
119.37     761.00
119.47     741.00
119.57     753.00
119.67     658.00
119.77     692.00
119.87     660.00
119.97     657.00
120.07     594.00
120.17     654.88
120.27     614.00
120.37     606.47
120.47     610.27
120.57     632.90
120.67     564.00
120.77     570.00
120.87     558.00
120.97     550.00
121.07     546.00
121.17     590.00
121.27     615.61
121.37     560.00
121.47     602.00
121.57     616.00
121.67     621.84
121.77     596.00
121.87     636.00
121.97     604.00
122.07     631.00
122.17     599.44
122.27     644.00
122.37     595.00
122.47     594.30
122.57     631.00
122.67     657.36
122.77     633.03
122.87     693.00
122.97     668.29
123.07     690.00
123.17     677.00
123.27     644.00
123.37     665.00
123.47     666.98
123.57     630.22
123.67     611.00
123.77     607.00
123.87     628.23
123.97     648.14
124.07     627.00
124.17     628.55
124.27     609.00
124.37     625.00
124.47     564.79
124.57     590.00
124.67     639.00
124.77     588.13
124.87     541.00
124.97     575.00
