  9.97     615.00
 10.07     598.00
 10.17     649.00
 10.27     607.00
 10.37     580.00
 10.47     587.00
 10.57     575.73
 10.67     595.00
 10.77     585.92
 10.87     597.00
 10.97     576.00
 11.07     552.96
 11.17     583.00
 11.27     603.00
 11.37     573.00
 11.47     573.00
 11.57     601.00
 11.67     596.00
 11.77     656.00
 11.87     618.00
 11.97     656.00
 12.07     689.00
 12.17     695.00
 12.27     697.00
 12.37     619.00
 12.47     610.71
 12.57     633.49
 12.67     585.00
 12.77     585.00
 12.87     554.00
 12.97     563.00
 13.07     559.00
 13.17     604.00
 13.27     534.44
 13.37     543.00
 13.47     563.44
 13.57     591.87
 13.67     562.00
 13.77     528.00
 13.87     553.53
 13.97     607.80
 14.07     616.37
 14.17     594.00
 14.27     590.00
 14.37     559.00
 14.47     597.00
 14.57     546.00
 14.67     588.00
 14.77     573.00
 14.87     539.14
 14.97     539.00
 15.07     561.00
 15.17     613.27
 15.27     547.15
 15.37     563.00
 15.47     564.00
 15.57     558.00
 15.67     531.82
 15.77     590.00
 15.87     568.00
 15.97     588.00
 16.07     590.00
 16.17     606.95
 16.27     586.08
 16.37     552.89
 16.47     569.66
 16.57     553.20
 16.67     577.00
 16.77     579.00
 16.87     541.00
 16.97     494.00
 17.07     523.00
 17.17     588.00
 17.27     581.00
 17.37     603.31
 17.47     541.00
 17.57     554.00
 17.67     536.68
 17.77     556.59
 17.87     555.74
 17.97     581.38
 18.07     558.63
 18.17     540.00
 18.27     522.00
 18.37     560.00
 18.47     521.88
 18.57     557.00
 18.67     574.14
 18.77     553.48
 18.87     571.00
 18.97     541.44
 19.07     544.44
 19.17     560.00
 19.27     531.00
 19.37     585.96
 19.47     527.00
 19.57     557.47
 19.67     582.47
 19.77     526.00
 19.87     541.87
 19.97     543.00
 20.07     559.00
 20.17     520.43
 20.27     572.42
 20.37     556.27
 20.47     562.00
 20.57     512.00
 20.67     524.00
 20.77     565.56
 20.87     576.14
 20.97     578.00
 21.07     566.00
 21.17     528.00
 21.27     530.00
 21.37     579.00
 21.47     582.00
 21.57     537.00
 21.67     511.00
 21.77     581.12
 21.87     612.00
 21.97     539.00
 22.07     546.00
 22.17     559.01
 22.27     586.00
 22.37     587.30
 22.47     564.00
 22.57     572.00
 22.67     584.77
 22.77     560.73
 22.87     549.44
 22.97     536.00
 23.07     594.90
 23.17     536.65
 23.27     533.22
 23.37     535.66
 23.47     569.00
 23.57     549.00
 23.67     566.00
 23.77     584.00
 23.87     504.00
 23.97     536.51
 24.07     534.00
 24.17     554.00
 24.27     581.00
 24.37     531.91
 24.47     566.00
 24.57     596.00
 24.67     636.00
 24.77     661.42
 24.87     620.87
 24.97     616.00
 25.07     551.00
 25.17     589.63
 25.27     564.84
 25.37     530.41
 25.47     575.00
 25.57     556.00
 25.67     560.04
 25.77     537.00
 25.87     521.39
 25.97     574.00
 26.07     557.00
 26.17     501.80
 26.27     530.00
 26.37     520.00
 26.47     517.23
 26.57     579.86
 26.67     517.18
 26.77     504.00
 26.87     547.04
 26.97     537.00
 27.07     515.39
 27.17     536.00
 27.27     535.13
 27.37     578.23
 27.47     576.70
 27.57     594.00
 27.67     598.00
 27.77     654.00
 27.87     584.00
 27.97     666.00
 28.07     771.00
 28.17     941.00
 28.27     922.00
 28.37     871.00
 28.47     837.07
 28.57     684.21
 28.67     747.00
 28.77     709.80
 28.87     797.00
 28.97     885.00
 29.07     774.96
 29.17     677.42
 29.27     638.00
 29.37     615.90
 29.47     665.00
 29.57     627.00
 29.67     613.00
 29.77     610.00
 29.87     582.00
 29.97     597.00
 30.07     595.00
 30.17     506.48
 30.27     567.43
 30.37     537.00
 30.47     568.30
 30.57     536.00
 30.67     549.93
 30.77     622.39
 30.87     642.00
 30.97     628.00
 31.07     571.00
 31.17     575.00
 31.27     559.45
 31.37     566.00
 31.47     558.00
 31.57     562.00
 31.67     534.32
 31.77     493.62
 31.87     504.96
 31.97     536.00
 32.07     533.00
 32.17     550.00
 32.27     516.00
 32.37     550.00
 32.47     556.55
 32.57     559.00
 32.67     519.96
 32.77     536.76
 32.87     492.60
 32.97     571.00
 33.07     523.00
 33.17     546.74
 33.27     513.00
 33.37     565.00
 33.47     548.00
 33.57     539.25
 33.67     627.00
 33.77     718.00
 33.87     902.27
 33.97    1037.00
 34.07    1043.96
 34.17    1032.14
 34.27     896.53
 34.37     746.00
 34.47     602.00
 34.57     544.00
 34.67     575.00
 34.77     557.00
 34.87     513.41
 34.97     521.00
 35.07     546.21
 35.17     493.00
 35.27     557.27
 35.37     509.00
 35.47     541.03
 35.57     512.00
 35.67     576.00
 35.77     539.00
 35.87     528.00
 35.97     527.00
 36.07     503.27
 36.17     524.67
 36.27     512.00
 36.37     506.00
 36.47     535.00
 36.57     500.00
 36.67     502.00
 36.77     523.00
 36.87     571.00
 36.97     476.00
 37.07     510.00
 37.17     530.00
 37.27     521.00
 37.37     514.00
 37.47     492.00
 37.57     541.00
 37.67     563.00
 37.77     567.18
 37.87     510.68
 37.97     534.00
 38.07     498.00
 38.17     532.05
 38.27     458.00
 38.37     526.00
 38.47     506.49
 38.57     494.00
 38.67     518.00
 38.77     500.43
 38.87     468.00
 38.97     557.00
 39.07     481.00
 39.17     557.00
 39.27     492.00
 39.37     518.71
 39.47     467.28
 39.57     489.00
 39.67     499.00
 39.77     525.34
 39.87     470.00
 39.97     535.60
 40.07     519.00
 40.17     539.00
 40.27     499.00
 40.37     530.46
 40.47     522.14
 40.57     489.00
 40.67     485.00
 40.77     473.48
 40.87     490.00
 40.97     479.82
 41.07     466.82
 41.17     484.80
 41.27     467.24
 41.37     468.00
 41.47     501.00
 41.57     512.00
 41.67     526.00
 41.77     525.00
 41.87     551.00
 41.97     473.17
 42.07     551.74
 42.17     519.00
 42.27     496.00
 42.37     557.57
 42.47     543.51
 42.57     590.00
 42.67     570.00
 42.77     599.00
 42.87     552.00
 42.97     580.49
 43.07     590.00
 43.17     513.00
 43.27     555.00
 43.37     498.00
 43.47     522.00
 43.57     496.00
 43.67     508.00
 43.77     516.58
 43.87     546.30
 43.97     500.00
 44.07     555.00
 44.17     536.51
 44.27     511.00
 44.37     535.00
 44.47     455.00
 44.57     515.00
 44.67     498.36
 44.77     474.00
 44.87     536.87
 44.97     486.00
 45.07     516.00
 45.17     483.00
 45.27     505.00
 45.37     493.00
 45.47     506.00
 45.57     505.00
 45.67     506.00
 45.77     523.30
 45.87     513.00
 45.97     500.99
 46.07     530.00
 46.17     505.07
 46.27     519.00
 46.37     512.00
 46.47     494.00
 46.57     499.26
 46.67     485.00
 46.77     562.00
 46.87     526.49
 46.97     510.00
 47.07     512.05
 47.17     497.00
 47.27     531.00
 47.37     563.47
 47.47     573.00
 47.57     497.00
 47.67     596.03
 47.77     558.00
 47.87     627.00
 47.97     563.00
 48.07     545.00
 48.17     579.38
 48.27     554.06
 48.37     554.00
 48.47     516.00
 48.57     536.00
 48.67     499.22
 48.77     550.48
 48.87     549.17
 48.97     515.00
 49.07     547.00
 49.17     585.00
 49.27     637.33
 49.37     671.00
 49.47     745.00
 49.57     827.00
 49.67     936.00
 49.77    1143.00
 49.87    1444.00
 49.97    1853.00
 50.07    2236.00
 50.17    2503.00
 50.27    2506.00
 50.37    2285.00
 50.47    1927.00
 50.57    1436.00
 50.67    1049.00
 50.77     890.27
 50.87     686.00
 50.97     705.60
 51.07     592.46
 51.17     624.00
 51.27     574.15
 51.37     607.07
 51.47     536.64
 51.57     602.00
 51.67     548.00
 51.77     551.00
 51.87     496.32
 51.97     569.00
 52.07     547.91
 52.17     540.87
 52.27     557.00
 52.37     516.09
 52.47     551.91
 52.57     583.00
 52.67     515.39
 52.77     540.53
 52.87     628.16
 52.97     726.00
 53.07     742.98
 53.17     870.00
 53.27    1064.59
 53.37    1155.00
 53.47    1251.38
 53.57    1144.00
 53.67    1091.00
 53.77     970.78
 53.87     837.00
 53.97     754.00
 54.07     679.93
 54.17     624.00
 54.27     574.00
 54.37     565.91
 54.47     565.00
 54.57     537.00
 54.67     540.00
 54.77     542.00
 54.87     572.55
 54.97     566.05
 55.07     535.68
 55.17     533.00
 55.27     541.00
 55.37     587.86
 55.47     563.00
 55.57     530.43
 55.67     624.00
 55.77     620.00
 55.87     573.00
 55.97     628.00
 56.07     689.05
 56.17     756.00
 56.27     873.00
 56.37    1149.00
 56.47    1401.00
 56.57    1865.58
 56.67    2108.00
 56.77    2535.00
 56.87    2601.97
 56.97    2539.00
 57.07    2400.00
 57.17    2046.75
 57.27    1685.00
 57.37    1347.00
 57.47    1014.00
 57.57     859.91
 57.67     804.00
 57.77     680.00
 57.87     698.00
 57.97     710.00
 58.07     705.32
 58.17     716.00
 58.27     768.16
 58.37     831.00
 58.47     947.00
 58.57    1125.45
 58.67    1250.90
 58.77    1399.28
 58.87    1563.01
 58.97    1653.00
 59.07    1702.00
 59.17    1534.85
 59.27    1492.00
 59.37    1351.00
 59.47    1286.00
 59.57    1220.42
 59.67    1154.00
 59.77    1139.33
 59.87    1229.11
 59.97    1357.00
 60.07    1394.02
 60.17    1498.00
 60.27    1602.17
 60.37    1555.31
 60.47    1346.84
 60.57    1186.62
 60.67    1068.00
 60.77     902.44
 60.87     797.00
 60.97     670.08
 61.07     634.33
 61.17     657.00
 61.27     616.00
 61.37     649.00
 61.47     678.00
 61.57     747.50
 61.67     863.00
 61.77     939.00
 61.87    1074.80
 61.97    1319.77
 62.07    1389.00
 62.17    1361.00
 62.27    1404.00
 62.37    1286.00
 62.47    1167.00
 62.57     973.00
 62.67     865.76
 62.77     805.40
 62.87     719.57
 62.97     618.00
 63.07     578.00
 63.17     537.48
 63.27     546.00
 63.37     582.00
 63.47     580.00
 63.57     522.00
 63.67     547.00
 63.77     572.00
 63.87     614.00
 63.97     685.00
 64.07     656.00
 64.17     785.00
 64.27     840.86
 64.37     974.00
 64.47     943.11
 64.57     993.00
 64.67    1031.38
 64.77     984.00
 64.87     987.49
 64.97     865.31
 65.07     887.00
 65.17     828.22
 65.27     735.36
 65.37     673.00
 65.47     709.00
 65.57     641.00
 65.67     604.00
 65.77     599.00
 65.87     617.88
 65.97     590.00
 66.07     598.96
 66.17     587.00
 66.27     568.00
 66.37     569.00
 66.47     553.00
 66.57     560.00
 66.67     589.00
 66.77     595.00
 66.87     606.00
 66.97     641.14
 67.07     682.68
 67.17     713.97
 67.27     714.00
 67.37     898.99
 67.47    1071.00
 67.57    1260.00
 67.67    1550.91
 67.77    1852.62
 67.87    2133.54
 67.97    2269.00
 68.07    2400.61
 68.17    2338.76
 68.27    2264.00
 68.37    1964.92
 68.47    1849.00
 68.57    1472.12
 68.67    1249.00
 68.77     996.42
 68.87     853.65
 68.97     783.65
 69.07     678.16
 69.17     607.29
 69.27     583.00
 69.37     643.00
 69.47     542.01
 69.57     545.18
 69.67     570.00
 69.77     604.63
 69.87     582.18
 69.97     529.78
 70.07     593.13
 70.17     564.00
 70.27     589.29
 70.37     543.00
 70.47     596.77
 70.57     546.89
 70.67     547.00
 70.77     526.00
 70.87     576.00
 70.97     613.00
 71.07     630.02
 71.17     765.37
 71.27     810.00
 71.37     881.00
 71.47    1012.00
 71.57    1244.00
 71.67    1425.37
 71.77    1547.29
 71.87    1730.86
 71.97    1921.00
 72.07    1918.00
 72.17    1828.10
 72.27    1818.00
 72.37    1701.94
 72.47    1449.91
 72.57    1448.00
 72.67    1238.00
 72.77    1048.00
 72.87     984.00
 72.97     847.00
 73.07     817.00
 73.17     780.00
 73.27     744.00
 73.37     668.00
 73.47     666.00
 73.57     657.13
 73.67     592.00
 73.77     591.00
 73.87     607.00
 73.97     577.50
 74.07     626.00
 74.17     633.00
 74.27     617.00
 74.37     607.00
 74.47     609.00
 74.57     636.00
 74.67     614.00
 74.77     591.00
 74.87     637.00
 74.97     640.00
 75.07     556.00
 75.17     602.00
 75.27     561.00
 75.37     513.19
 75.47     542.00
 75.57     517.83
 75.67     547.00
 75.77     599.00
 75.87     613.00
 75.97     639.00
 76.07     657.96
 76.17     681.47
 76.27     658.00
 76.37     661.02
 76.47     670.00
 76.57     719.91
 76.67     750.28
 76.77     649.00
 76.87     671.00
 76.97     654.00
 77.07     637.00
 77.17     620.91
 77.27     555.00
 77.37     545.00
 77.47     542.00
 77.57     564.00
 77.67     559.00
 77.77     518.26
 77.87     497.00
 77.97     548.00
 78.07     559.00
 78.17     560.00
 78.27     513.00
 78.37     497.77
 78.47     561.75
 78.57     526.00
 78.67     561.00
 78.77     520.18
 78.87     534.00
 78.97     478.00
 79.07     490.00
 79.17     569.97
 79.27     522.00
 79.37     549.00
 79.47     516.63
 79.57     523.45
 79.67     513.21
 79.77     568.00
 79.87     522.00
 79.97     516.00
 80.07     503.00
 80.17     598.67
 80.27     583.00
 80.37     559.00
 80.47     573.00
 80.57     592.96
 80.67     600.00
 80.77     630.00
 80.87     666.32
 80.97     693.00
 81.07     690.00
 81.17     707.00
 81.27     796.00
 81.37     711.59
 81.47     789.60
 81.57     742.00
 81.67     705.02
 81.77     700.00
 81.87     720.90
 81.97     719.24
 82.07     664.00
 82.17     641.00
 82.27     658.00
 82.37     627.00
 82.47     616.00
 82.57     585.45
 82.67     593.25
 82.77     586.00
 82.87     572.00
 82.97     553.00
 83.07     550.00
 83.17     540.87
 83.27     565.00
 83.37     555.00
 83.47     521.00
 83.57     550.00
 83.67     560.00
 83.77     561.00
 83.87     535.00
 83.97     553.08
 84.07     591.00
 84.17     573.46
 84.27     546.67
 84.37     571.00
 84.47     526.08
 84.57     521.00
 84.67     546.67
 84.77     558.00
 84.87     566.21
 84.97     537.25
 85.07     550.00
 85.17     532.00
 85.27     507.00
 85.37     519.00
 85.47     530.72
 85.57     553.00
 85.67     557.00
 85.77     505.07
 85.87     494.88
 85.97     533.89
 86.07     523.00
 86.17     519.00
 86.27     544.34
 86.37     533.21
 86.47     587.00
 86.57     594.00
 86.67     543.59
 86.77     570.00
 86.87     592.00
 86.97     624.97
 87.07     577.00
 87.17     588.00
 87.27     627.88
 87.37     588.04
 87.47     669.00
 87.57     662.09
 87.67     634.73
 87.77     631.77
 87.87     653.00
 87.97     630.63
 88.07     596.68
 88.17     600.00
 88.27     582.00
 88.37     536.10
 88.47     601.63
 88.57     591.00
 88.67     615.00
 88.77     610.00
 88.87     620.00
 88.97     595.20
 89.07     621.00
 89.17     600.00
 89.27     591.00
 89.37     557.00
 89.47     628.00
 89.57     559.88
 89.67     581.00
 89.77     598.68
 89.87     541.13
 89.97     535.00
 90.07     606.87
 90.17     534.00
 90.27     549.00
 90.37     567.08
 90.47     515.00
 90.57     494.00
 90.67     518.00
 90.77     518.00
 90.87     512.00
 90.97     565.00
 91.07     523.00
 91.17     517.00
 91.27     554.93
 91.37     522.00
 91.47     533.00
 91.57     526.00
 91.67     515.00
 91.77     581.20
 91.87     533.00
 91.97     563.00
 92.07     541.00
 92.17     583.00
 92.27     568.00
 92.37     624.17
 92.47     640.85
 92.57     644.00
 92.67     692.86
 92.77     676.00
 92.87     737.00
 92.97     748.00
 93.07     732.16
 93.17     788.00
 93.27     794.00
 93.37     787.00
 93.47     803.00
 93.57     850.77
 93.67     859.00
 93.77     786.08
 93.87     842.76
 93.97     892.00
 94.07     934.00
 94.17     823.00
 94.27     837.40
 94.37     880.00
 94.47     894.50
 94.57     904.71
 94.67     965.00
 94.77     900.00
 94.87     912.00
 94.97     931.35
 95.07     901.00
 95.17     838.41
 95.27     769.89
 95.37     864.00
 95.47     813.00
 95.57     699.72
 95.67     744.00
 95.77     714.00
 95.87     672.16
 95.97     644.00
 96.07     657.00
 96.17     672.00
 96.27     711.00
 96.37     780.00
 96.47     794.00
 96.57     878.00
 96.67     902.00
 96.77     942.00
 96.87    1064.00
 96.97    1191.00
 97.07    1165.00
 97.17    1338.18
 97.27    1318.00
 97.37    1397.00
 97.47    1342.00
 97.57    1443.00
 97.67    1459.00
 97.77    1440.95
 97.87    1388.00
 97.97    1336.22
 98.07    1227.00
 98.17    1088.23
 98.27    1072.00
 98.37     999.00
 98.47     945.53
 98.57     854.26
 98.67     833.00
 98.77     854.00
 98.87     775.84
 98.97     762.97
 99.07     761.00
 99.17     794.16
 99.27     874.00
 99.37     917.00
 99.47    1028.39
 99.57    1070.00
 99.67    1133.00
 99.77    1253.26
 99.87    1400.00
 99.97    1559.00
100.07    1705.00
100.17    1741.68
100.27    1818.00
100.37    1951.00
100.47    2061.49
100.57    2193.00
100.67    2090.30
100.77    2105.00
100.87    2095.00
100.97    2058.00
101.07    2076.00
101.17    1959.00
101.27    1846.13
101.37    1686.00
101.47    1604.00
101.57    1466.00
101.67    1442.39
101.77    1382.00
101.87    1345.16
101.97    1244.00
102.07    1232.77
102.17    1131.00
102.27    1106.00
102.37    1078.00
102.47    1146.00
102.57    1043.38
102.67    1035.00
102.77    1076.00
102.87     989.00
102.97     977.44
103.07     914.47
103.17     861.00
103.27     863.00
103.37     826.10
103.47     772.57
103.57     738.00
103.67     732.00
103.77     623.96
103.87     653.46
103.97     624.00
104.07     592.00
104.17     593.00
104.27     593.00
104.37     519.85
104.47     524.09
104.57     550.02
104.67     527.00
104.77     565.42
104.87     528.12
104.97     530.00
105.07     560.96
105.17     531.00
105.27     583.00
105.37     528.58
105.47     548.00
105.57     573.00
105.67     547.59
105.77     559.00
105.87     552.01
105.97     520.41
106.07     589.00
106.17     586.00
106.27     595.97
106.37     585.00
106.47     589.00
106.57     577.00
106.67     610.00
106.77     697.42
106.87     612.00
106.97     703.51
107.07     683.00
107.17     667.00
107.27     714.36
107.37     708.52
107.47     677.00
107.57     690.00
107.67     679.00
107.77     639.00
107.87     650.71
107.97     723.05
108.07     656.00
108.17     618.00
108.27     697.00
108.37     705.36
108.47     701.71
108.57     710.91
108.67     700.99
108.77     664.00
108.87     675.64
108.97     684.40
109.07     707.00
109.17     644.00
109.27     621.77
109.37     635.00
109.47     624.00
109.57     668.00
109.67     589.21
109.77     614.00
109.87     597.00
109.97     654.00
110.07     596.05
110.17     581.00
110.27     595.00
110.37     576.54
110.47     565.00
110.57     587.00
110.67     576.00
110.77     538.00
110.87     575.00
110.97     531.51
111.07     543.15
111.17     570.93
111.27     519.97
111.37     554.00
111.47     548.06
111.57     508.21
111.67     523.72
111.77     529.00
111.87     584.00
111.97     548.00
112.07     586.00
112.17     555.00
112.27     609.66
112.37     580.00
112.47     616.00
112.57     600.47
112.67     619.00
112.77     626.00
112.87     660.00
112.97     675.00
113.07     649.00
113.17     744.20
113.27     783.00
113.37     827.00
113.47     817.00
113.57     839.00
113.67     849.68
113.77     889.37
113.87     950.00
113.97     990.00
114.07    1048.80
114.17    1126.00
114.27    1253.67
114.37    1242.00
114.47    1383.00
114.57    1524.94
114.67    1519.89
114.77    1707.00
114.87    1874.34
114.97    2252.00
115.07    2221.18
115.17    2613.00
115.27    2871.50
115.37    2943.00
115.47    3222.00
115.57    3723.00
115.67    4088.00
115.77    4673.89
115.87    4755.00
115.97    5192.00
116.07    5581.00
116.17    6115.00
116.27    6352.00
116.37    6566.00
116.47    6898.89
116.57    6821.00
116.67    7043.00
116.77    6969.51
116.87    6837.00
116.97    6737.18
117.07    6515.52
117.17    6241.20
117.27    5902.84
117.37    5279.00
117.47    4821.00
117.57    4567.68
117.67    4237.05
117.77    3938.00
117.87    3741.00
117.97    3059.22
118.07    3030.00
118.17    2564.00
118.27    2190.08
118.37    1890.02
118.47    1792.38
118.57    1564.00
118.67    1374.00
118.77    1235.00
118.87    1080.00
118.97     989.27
119.07     929.77
119.17     869.00
119.27     782.16
119.37     788.00
119.47     745.00
119.57     740.79
119.67     644.92
119.77     670.00
119.87     640.00
119.97     629.00
120.07     645.00
120.17     586.42
120.27     575.00
120.37     564.76
120.47     583.00
120.57     529.00
120.67     543.79
120.77     597.00
120.87     564.00
120.97     598.00
121.07     584.75
121.17     564.00
121.27     593.00
121.37     595.00
121.47     545.61
121.57     558.23
121.67     594.40
121.77     585.50
121.87     627.57
121.97     598.00
122.07     629.02
122.17     588.00
122.27     598.00
122.37     639.00
122.47     664.00
122.57     610.00
122.67     643.00
122.77     616.53
122.87     632.00
122.97     683.71
123.07     616.90
123.17     639.00
123.27     637.40
123.37     633.00
123.47     650.00
123.57     645.54
123.67     621.00
123.77     613.00
123.87     593.00
123.97     582.47
124.07     592.49
124.17     595.00
124.27     631.00
124.37     619.00
124.47     625.00
124.57     610.29
124.67     562.71
124.77     618.15
124.87     589.00
124.97     597.00
