  9.97     676.53
 10.07     678.21
 10.17     663.49
 10.27     671.17
 10.37     717.00
 10.47     669.00
 10.57     686.07
 10.67     657.00
 10.77     686.60
 10.87     655.89
 10.97     653.00
 11.07     678.08
 11.17     617.00
 11.27     630.25
 11.37     720.00
 11.47     622.72
 11.57     624.00
 11.67     686.00
 11.77     683.00
 11.87     620.64
 11.97     793.00
 12.07     797.00
 12.17     753.93
 12.27     814.00
 12.37     773.07
 12.47     753.80
 12.57     698.88
 12.67     644.00
 12.77     652.00
 12.87     597.00
 12.97     632.00
 13.07     645.00
 13.17     646.00
 13.27     663.44
 13.37     669.00
 13.47     625.00
 13.57     589.00
 13.67     633.00
 13.77     628.00
 13.87     640.00
 13.97     599.00
 14.07     600.03
 14.17     605.00
 14.27     641.00
 14.37     678.00
 14.47     658.00
 14.57     598.00
 14.67     628.00
 14.77     590.00
 14.87     651.00
 14.97     627.33
 15.07     650.00
 15.17     682.21
 15.27     592.00
 15.37     621.00
 15.47     659.00
 15.57     601.00
 15.67     614.00
 15.77     603.00
 15.87     678.83
 15.97     638.74
 16.07     641.95
 16.17     612.00
 16.27     606.04
 16.37     661.00
 16.47     635.00
 16.57     645.00
 16.67     563.00
 16.77     633.00
 16.87     546.00
 16.97     631.00
 17.07     638.02
 17.17     556.00
 17.27     607.00
 17.37     589.00
 17.47     646.75
 17.57     602.00
 17.67     633.00
 17.77     657.04
 17.87     613.78
 17.97     572.00
 18.07     582.03
 18.17     620.00
 18.27     644.09
 18.37     663.90
 18.47     618.00
 18.57     624.00
 18.67     627.00
 18.77     604.83
 18.87     602.00
 18.97     616.98
 19.07     593.54
 19.17     581.00
 19.27     595.00
 19.37     587.00
 19.47     635.00
 19.57     559.00
 19.67     557.00
 19.77     616.00
 19.87     575.63
 19.97     569.00
 20.07     614.00
 20.17     584.00
 20.27     638.96
 20.37     623.00
 20.47     617.00
 20.57     614.15
 20.67     563.89
 20.77     612.00
 20.87     598.00
 20.97     623.00
 21.07     584.00
 21.17     553.96
 21.27     627.12
 21.37     576.00
 21.47     615.17
 21.57     588.00
 21.67     597.07
 21.77     562.25
 21.87     565.15
 21.97     604.00
 22.07     575.71
 22.17     546.00
 22.27     627.06
 22.37     577.42
 22.47     651.00
 22.57     551.95
 22.67     611.95
 22.77     641.36
 22.87     589.00
 22.97     598.00
 23.07     643.66
 23.17     595.00
 23.27     559.88
 23.37     630.64
 23.47     605.00
 23.57     605.00
 23.67     596.00
 23.77     559.76
 23.87     600.00
 23.97     596.00
 24.07     571.04
 24.17     597.00
 24.27     644.00
 24.37     645.00
 24.47     626.00
 24.57     614.00
 24.67     657.00
 24.77     654.00
 24.87     686.00
 24.97     699.50
 25.07     634.65
 25.17     675.00
 25.27     652.00
 25.37     676.00
 25.47     588.00
 25.57     631.00
 25.67     576.89
 25.77     641.00
 25.87     594.90
 25.97     576.03
 26.07     616.00
 26.17     629.00
 26.27     560.83
 26.37     587.43
 26.47     579.68
 26.57     584.00
 26.67     566.36
 26.77     668.00
 26.87     641.00
 26.97     616.62
 27.07     589.81
 27.17     697.00
 27.27     658.00
 27.37     687.41
 27.47     635.05
 27.57     697.00
 27.67     754.00
 27.77     791.00
 27.87     933.00
 27.97    1081.00
 28.07    1671.54
 28.17    2655.13
 28.27    3465.00
 28.37    4178.00
 28.47    4272.00
 28.57    3436.00
 28.67    2604.00
 28.77    2104.00
 28.87    1976.00
 28.97    2280.00
 29.07    2496.00
 29.17    2492.00
 29.27    2093.00
 29.37    1546.61
 29.47    1229.69
 29.57    1004.00
 29.67     888.00
 29.77     821.00
 29.87     738.31
 29.97     742.00
 30.07     608.57
 30.17     719.00
 30.27     585.90
 30.37     608.33
 30.47     687.00
 30.57     700.00
 30.67     670.01
 30.77     608.47
 30.87     710.57
 30.97     723.00
 31.07     682.00
 31.17     667.42
 31.27     689.00
 31.37     700.00
 31.47     655.00
 31.57     640.00
 31.67     636.00
 31.77     623.00
 31.87     585.00
 31.97     627.00
 32.07     629.45
 32.17     565.00
 32.27     600.00
 32.37     585.16
 32.47     624.77
 32.57     635.00
 32.67     628.00
 32.77     537.86
 32.87     612.00
 32.97     619.39
 33.07     619.53
 33.17     555.25
 33.27     639.00
 33.37     650.00
 33.47     606.00
 33.57     578.00
 33.67     607.35
 33.77     678.66
 33.87     807.00
 33.97     866.60
 34.07     989.00
 34.17    1102.00
 34.27    1105.00
 34.37    1125.70
 34.47     975.00
 34.57     883.02
 34.67     673.00
 34.77     633.00
 34.87     614.00
 34.97     631.00
 35.07     631.00
 35.17     578.29
 35.27     603.18
 35.37     595.91
 35.47     616.09
 35.57     621.83
 35.67     565.31
 35.77     543.00
 35.87     537.00
 35.97     543.00
 36.07     573.00
 36.17     564.00
 36.27     539.00
 36.37     551.00
 36.47     572.00
 36.57     531.21
 36.67     557.41
 36.77     558.00
 36.87     526.78
 36.97     546.00
 37.07     527.00
 37.17     546.00
 37.27     546.87
 37.37     549.00
 37.47     551.62
 37.57     573.00
 37.67     591.00
 37.77     618.00
 37.87     608.00
 37.97     603.88
 38.07     621.00
 38.17     664.00
 38.27     682.79
 38.37     624.00
 38.47     596.00
 38.57     578.93
 38.67     533.00
 38.77     555.00
 38.87     504.00
 38.97     551.00
 39.07     558.00
 39.17     532.00
 39.27     531.00
 39.37     574.94
 39.47     586.00
 39.57     591.00
 39.67     539.00
 39.77     521.00
 39.87     527.63
 39.97     512.00
 40.07     509.68
 40.17     570.00
 40.27     482.00
 40.37     540.00
 40.47     541.00
 40.57     559.62
 40.67     503.00
 40.77     528.00
 40.87     577.11
 40.97     582.94
 41.07     559.00
 41.17     586.28
 41.27     513.00
 41.37     508.00
 41.47     585.00
 41.57     566.84
 41.67     564.00
 41.77     527.63
 41.87     548.05
 41.97     515.00
 42.07     527.00
 42.17     530.84
 42.27     553.00
 42.37     544.00
 42.47     593.65
 42.57     569.00
 42.67     658.36
 42.77     590.69
 42.87     618.00
 42.97     640.76
 43.07     669.78
 43.17     642.00
 43.27     550.00
 43.37     563.00
 43.47     584.00
 43.57     538.00
 43.67     527.01
 43.77     579.00
 43.87     530.81
 43.97     576.00
 44.07     528.00
 44.17     602.00
 44.27     536.00
 44.37     585.04
 44.47     557.19
 44.57     525.00
 44.67     575.15
 44.77     569.00
 44.87     546.00
 44.97     553.00
 45.07     575.00
 45.17     509.00
 45.27     595.00
 45.37     601.00
 45.47     553.00
 45.57     536.88
 45.67     504.00
 45.77     500.12
 45.87     590.06
 45.97     567.00
 46.07     580.00
 46.17     587.59
 46.27     576.00
 46.37     595.00
 46.47     531.82
 46.57     512.00
 46.67     571.00
 46.77     565.00
 46.87     506.00
 46.97     571.61
 47.07     555.00
 47.17     563.11
 47.27     508.00
 47.37     589.70
 47.47     611.00
 47.57     561.00
 47.67     574.00
 47.77     589.72
 47.87     586.00
 47.97     586.17
 48.07     697.00
 48.17     635.00
 48.27     619.26
 48.37     617.70
 48.47     615.00
 48.57     560.32
 48.67     580.71
 48.77     578.00
 48.87     618.00
 48.97     607.28
 49.07     568.00
 49.17     548.00
 49.27     619.08
 49.37     607.00
 49.47     573.00
 49.57     646.00
 49.67     682.00
 49.77     717.00
 49.87     860.00
 49.97    1058.56
 50.07    1382.00
 50.17    1800.00
 50.27    2166.00
 50.37    2556.99
 50.47    2661.38
 50.57    2735.55
 50.67    2319.00
 50.77    1984.00
 50.87    1499.00
 50.97    1176.20
 51.07     966.00
 51.17     802.00
 51.27     784.55
 51.37     726.00
 51.47     715.50
 51.57     688.00
 51.67     703.00
 51.77     662.03
 51.87     656.00
 51.97     645.00
 52.07     652.54
 52.17     628.00
 52.27     652.00
 52.37     675.00
 52.47     608.46
 52.57     592.00
 52.67     643.00
 52.77     622.00
 52.87     586.00
 52.97     624.00
 53.07     707.96
 53.17     698.18
 53.27     806.80
 53.37     828.00
 53.47     938.00
 53.57     987.04
 53.67    1148.00
 53.77    1226.00
 53.87    1257.56
 53.97    1224.00
 54.07    1141.00
 54.17     987.01
 54.27     872.00
 54.37     814.00
 54.47     771.00
 54.57     692.00
 54.67     666.00
 54.77     642.00
 54.87     601.00
 54.97     642.00
 55.07     601.30
 55.17     643.00
 55.27     636.00
 55.37     652.30
 55.47     608.00
 55.57     593.00
 55.67     606.76
 55.77     604.00
 55.87     621.17
 55.97     621.00
 56.07     656.00
 56.17     702.01
 56.27     788.24
 56.37     812.35
 56.47     877.12
 56.57    1036.27
 56.67    1175.00
 56.77    1470.16
 56.87    1859.00
 56.97    2143.00
 57.07    2509.00
 57.17    2605.82
 57.27    2531.14
 57.37    2426.64
 57.47    2188.00
 57.57    1780.00
 57.67    1439.85
 57.77    1190.96
 57.87    1030.56
 57.97     902.00
 58.07     790.00
 58.17     717.96
 58.27     712.00
 58.37     802.00
 58.47     795.56
 58.57     739.00
 58.67     857.00
 58.77     981.00
 58.87    1001.62
 58.97    1091.00
 59.07    1219.00
 59.17    1172.84
 59.27    1317.00
 59.37    1297.00
 59.47    1316.00
 59.57    1264.08
 59.67    1252.00
 59.77    1177.00
 59.87    1221.00
 59.97    1216.96
 60.07    1210.00
 60.17    1313.00
 60.27    1306.00
 60.37    1465.00
 60.47    1602.00
 60.57    1689.00
 60.67    1515.78
 60.77    1372.16
 60.87    1292.03
 60.97    1198.00
 61.07    1133.00
 61.17     985.00
 61.27     868.00
 61.37     809.00
 61.47     713.29
 61.57     826.00
 61.67     781.00
 61.77     768.00
 61.87     858.27
 61.97     933.00
 62.07    1007.00
 62.17    1147.54
 62.27    1344.00
 62.37    1484.00
 62.47    1542.87
 62.57    1421.00
 62.67    1443.62
 62.77    1400.91
 62.87    1216.00
 62.97    1109.00
 63.07     943.63
 63.17     862.36
 63.27     790.33
 63.37     681.00
 63.47     700.00
 63.57     655.35
 63.67     632.00
 63.77     654.00
 63.87     679.68
 63.97     657.38
 64.07     678.00
 64.17     705.00
 64.27     734.00
 64.37     787.00
 64.47     826.00
 64.57     993.00
 64.67    1061.00
 64.77    1114.00
 64.87    1226.00
 64.97    1207.00
 65.07    1178.09
 65.17    1276.00
 65.27    1281.00
 65.37    1081.00
 65.47    1050.48
 65.57     928.09
 65.67     891.00
 65.77     882.39
 65.87     749.00
 65.97     671.00
 66.07     702.02
 66.17     722.17
 66.27     717.00
 66.37     629.00
 66.47     659.00
 66.57     637.00
 66.67     643.00
 66.77     682.25
 66.87     597.00
 66.97     656.00
 67.07     699.91
 67.17     671.06
 67.27     683.55
 67.37     735.40
 67.47     781.00
 67.57     801.00
 67.67     856.00
 67.77    1102.32
 67.87    1187.00
 67.97    1410.00
 68.07    1658.00
 68.17    1880.00
 68.27    2091.00
 68.37    2278.00
 68.47    2381.00
 68.57    2421.00
 68.67    2379.00
 68.77    2154.33
 68.87    1921.55
 68.97    1674.00
 69.07    1364.00
 69.17    1194.05
 69.27    1017.00
 69.37     889.00
 69.47     811.00
 69.57     751.00
 69.67     775.58
 69.77     680.13
 69.87     671.68
 69.97     675.00
 70.07     631.00
 70.17     610.00
 70.27     668.00
 70.37     647.00
 70.47     630.00
 70.57     640.00
 70.67     621.61
 70.77     588.50
 70.87     646.18
 70.97     644.00
 71.07     701.00
 71.17     623.00
 71.27     727.00
 71.37     731.00
 71.47     740.08
 71.57     822.40
 71.67     939.00
 71.77     972.00
 71.87    1173.00
 71.97    1261.00
 72.07    1414.00
 72.17    1597.00
 72.27    1831.00
 72.37    1854.00
 72.47    1868.89
 72.57    1921.00
 72.67    1766.00
 72.77    1687.01
 72.87    1504.21
 72.97    1356.00
 73.07    1181.90
 73.17    1037.00
 73.27     990.00
 73.37     825.19
 73.47     778.00
 73.57     693.39
 73.67     703.00
 73.77     684.54
 73.87     649.00
 73.97     657.00
 74.07     631.00
 74.17     628.00
 74.27     570.49
 74.37     638.00
 74.47     637.00
 74.57     608.00
 74.67     630.00
 74.77     638.00
 74.87     650.00
 74.97     685.00
 75.07     628.26
 75.17     691.00
 75.27     695.00
 75.37     675.00
 75.47     640.28
 75.57     660.00
 75.67     620.16
 75.77     553.09
 75.87     619.28
 75.97     620.00
 76.07     647.00
 76.17     647.00
 76.27     672.00
 76.37     644.62
 76.47     720.00
 76.57     743.00
 76.67     758.00
 76.77     787.00
 76.87     865.83
 76.97     820.00
 77.07     832.39
 77.17     870.10
 77.27     855.25
 77.37     748.00
 77.47     743.76
 77.57     755.42
 77.67     625.00
 77.77     682.06
 77.87     654.00
 77.97     654.39
 78.07     625.00
 78.17     547.00
 78.27     584.13
 78.37     533.00
 78.47     546.00
 78.57     579.00
 78.67     542.00
 78.77     535.00
 78.87     514.00
 78.97     542.00
 79.07     565.00
 79.17     533.00
 79.27     542.53
 79.37     539.00
 79.47     550.86
 79.57     575.50
 79.67     556.00
 79.77     581.98
 79.87     555.00
 79.97     614.00
 80.07     584.00
 80.17     601.57
 80.27     595.00
 80.37     645.00
 80.47     667.66
 80.57     663.27
 80.67     665.14
 80.77     736.93
 80.87     726.74
 80.97     806.00
 81.07     818.00
 81.17     869.98
 81.27     904.00
 81.37     917.88
 81.47    1048.82
 81.57    1074.00
 81.67    1003.00
 81.77    1022.26
 81.87    1009.96
 81.97     995.44
 82.07    1006.00
 82.17     965.63
 82.27     916.00
 82.37     916.05
 82.47     831.00
 82.57     729.63
 82.67     776.39
 82.77     773.12
 82.87     661.63
 82.97     641.00
 83.07     688.76
 83.17     607.00
 83.27     603.00
 83.37     577.00
 83.47     649.22
 83.57     568.00
 83.67     630.55
 83.77     602.00
 83.87     574.00
 83.97     659.21
 84.07     588.00
 84.17     610.83
 84.27     569.00
 84.37     608.39
 84.47     665.49
 84.57     590.10
 84.67     590.00
 84.77     606.58
 84.87     606.00
 84.97     593.00
 85.07     587.00
 85.17     576.00
 85.27     630.37
 85.37     590.00
 85.47     592.75
 85.57     566.09
 85.67     571.00
 85.77     523.00
 85.87     575.00
 85.97     542.52
 86.07     579.00
 86.17     597.00
 86.27     572.20
 86.37     552.00
 86.47     620.00
 86.57     566.00
 86.67     624.25
 86.77     620.00
 86.87     549.65
 86.97     681.00
 87.07     611.56
 87.17     663.00
 87.27     645.00
 87.37     639.00
 87.47     603.44
 87.57     700.00
 87.67     606.40
 87.77     688.00
 87.87     660.48
 87.97     679.00
 88.07     703.44
 88.17     616.95
 88.27     687.00
 88.37     610.63
 88.47     638.00
 88.57     650.60
 88.67     605.00
 88.77     669.63
 88.87     596.00
 88.97     595.00
 89.07     605.00
 89.17     578.96
 89.27     592.73
 89.37     602.00
 89.47     584.00
 89.57     657.00
 89.67     632.10
 89.77     653.00
 89.87     649.82
 89.97     632.00
 90.07     601.00
 90.17     628.00
 90.27     633.00
 90.37     612.00
 90.47     661.16
 90.57     634.00
 90.67     619.95
 90.77     619.60
 90.87     540.00
 90.97     563.00
 91.07     555.00
 91.17     566.75
 91.27     527.00
 91.37     571.00
 91.47     547.47
 91.57     516.00
 91.67     534.14
 91.77     566.00
 91.87     587.38
 91.97     527.00
 92.07     565.00
 92.17     586.00
 92.27     527.00
 92.37     550.00
 92.47     559.00
 92.57     545.00
 92.67     575.00
 92.77     631.67
 92.87     588.74
 92.97     634.00
 93.07     677.76
 93.17     615.00
 93.27     635.00
 93.37     696.22
 93.47     725.00
 93.57     711.00
 93.67     757.00
 93.77     789.54
 93.87     829.10
 93.97     776.00
 94.07     824.00
 94.17     827.00
 94.27     833.00
 94.37     820.11
 94.47     809.04
 94.57     930.19
 94.67     897.19
 94.77     899.00
 94.87     955.24
 94.97     954.00
 95.07     954.00
 95.17     968.00
 95.27     917.00
 95.37     939.00
 95.47     976.00
 95.57     935.00
 95.67     974.23
 95.77     928.33
 95.87     938.00
 95.97     896.96
 96.07     807.75
 96.17     808.00
 96.27     772.22
 96.37     719.78
 96.47     795.00
 96.57     775.22
 96.67     736.00
 96.77     777.00
 96.87     825.66
 96.97     897.00
 97.07     891.90
 97.17     915.00
 97.27     980.00
 97.37     992.01
 97.47    1055.44
 97.57    1167.70
 97.67    1311.60
 97.77    1386.13
 97.87    1446.76
 97.97    1476.00
 98.07    1564.20
 98.17    1549.00
 98.27    1521.00
 98.37    1550.00
 98.47    1450.00
 98.57    1377.00
 98.67    1398.00
 98.77    1292.00
 98.87    1251.00
 98.97    1203.44
 99.07    1178.00
 99.17    1025.23
 99.27    1010.00
 99.37     956.00
 99.47     959.00
 99.57     991.53
 99.67     972.92
 99.77     991.95
 99.87     974.00
 99.97    1086.00
100.07    1120.00
100.17    1112.00
100.27    1178.00
100.37    1328.84
100.47    1298.00
100.57    1457.54
100.67    1586.00
100.77    1592.00
100.87    1696.00
100.97    1840.00
101.07    1866.04
101.17    1888.12
101.27    1947.97
101.37    2053.00
101.47    2017.00
101.57    2136.52
101.67    2112.00
101.77    1949.00
101.87    1965.00
101.97    1906.00
102.07    1812.94
102.17    1830.69
102.27    1752.77
102.37    1560.00
102.47    1497.00
102.57    1386.00
102.67    1358.00
102.77    1308.00
102.87    1380.49
102.97    1253.00
103.07    1238.98
103.17    1160.16
103.27    1135.63
103.37    1128.00
103.47    1114.73
103.57    1070.00
103.67    1051.35
103.77     961.00
103.87     973.00
103.97     973.00
104.07     971.00
104.17     859.00
104.27     828.30
104.37     797.33
104.47     728.84
104.57     715.00
104.67     737.17
104.77     665.00
104.87     688.12
104.97     658.00
105.07     651.03
105.17     643.00
105.27     603.00
105.37     601.00
105.47     630.00
105.57     579.00
105.67     609.00
105.77     583.40
105.87     548.89
105.97     533.31
106.07     562.35
106.17     661.00
106.27     597.00
106.37     581.00
106.47     591.00
106.57     600.36
106.67     619.00
106.77     566.00
106.87     650.00
106.97     621.00
107.07     602.41
107.17     621.73
107.27     648.04
107.37     625.12
107.47     716.00
107.57     692.00
107.67     706.00
107.77     714.00
107.87     714.00
107.97     774.21
108.07     732.37
108.17     731.62
108.27     712.00
108.37     761.66
108.47     699.89
108.57     790.99
108.67     696.00
108.77     706.00
108.87     740.00
108.97     734.00
109.07     660.00
109.17     709.00
109.27     788.13
109.37     738.00
109.47     695.00
109.57     670.00
109.67     749.98
109.77     784.52
109.87     796.00
109.97     777.12
110.07     716.00
110.17     717.00
110.27     706.28
110.37     682.00
110.47     675.00
110.57     650.00
110.67     666.00
110.77     668.28
110.87     653.00
110.97     651.00
111.07     617.00
111.17     622.00
111.27     641.00
111.37     643.50
111.47     566.53
111.57     572.00
111.67     551.46
111.77     589.00
111.87     574.00
111.97     603.00
112.07     556.88
112.17     568.00
112.27     593.00
112.37     587.00
112.47     587.00
112.57     538.00
112.67     569.44
112.77     589.00
112.87     634.00
112.97     605.00
113.07     589.49
113.17     549.85
113.27     574.19
113.37     574.00
113.47     591.00
113.57     585.95
113.67     638.00
113.77     626.00
113.87     625.00
113.97     598.00
114.07     679.00
114.17     709.00
114.27     654.00
114.37     693.26
114.47     714.22
114.57     692.00
114.67     738.14
114.77     784.00
114.87     881.00
114.97     973.00
115.07     933.00
115.17    1021.28
115.27    1137.00
115.37    1276.00
115.47    1452.00
115.57    1654.98
115.67    1836.00
115.77    1994.00
115.87    2248.00
115.97    2600.00
116.07    2809.00
116.17    3265.00
116.27    3513.00
116.37    3876.00
116.47    4282.00
116.57    4558.00
116.67    4840.00
116.77    5387.00
116.87    5704.00
116.97    6024.81
117.07    6332.09
117.17    6831.00
117.27    6985.00
117.37    7358.00
117.47    7273.00
117.57    7242.00
117.67    7372.00
117.77    6962.00
117.87    7134.33
117.97    6791.00
118.07    6465.06
118.17    6101.00
118.27    6024.40
118.37    5503.02
118.47    5131.75
118.57    4784.00
118.67    4397.00
118.77    4039.00
118.87    3634.48
118.97    3350.00
119.07    2943.00
119.17    2754.00
119.27    2498.77
119.37    2290.39
119.47    2003.00
119.57    1794.00
119.67    1561.00
119.77    1536.00
119.87    1380.00
119.97    1201.64
120.07    1183.00
120.17    1070.00
120.27    1007.00
120.37     943.73
120.47     957.00
120.57     824.68
120.67     793.99
120.77     764.14
120.87     760.00
120.97     729.00
121.07     704.97
121.17     697.76
121.27     696.00
121.37     658.08
121.47     645.76
121.57     645.79
121.67     661.00
121.77     624.35
121.87     674.05
121.97     654.00
122.07     605.00
122.17     681.49
122.27     625.00
122.37     701.72
122.47     715.91
122.57     672.00
122.67     660.00
122.77     721.18
122.87     671.00
122.97     690.00
123.07     640.90
123.17     722.00
123.27     685.00
123.37     710.00
123.47     676.00
123.57     696.00
123.67     713.91
123.77     699.61
123.87     737.00
123.97     719.00
124.07     706.00
124.17     738.98
124.27     716.00
124.37     693.00
124.47     756.00
124.57     762.00
124.67     702.00
124.77     682.48
124.87     648.26
124.97     699.00
