  9.97     721.00
 10.07     708.12
 10.17     742.00
 10.27     655.77
 10.37     766.00
 10.47     680.00
 10.57     741.00
 10.67     739.00
 10.77     742.00
 10.87     713.00
 10.97     734.00
 11.07     735.00
 11.17     742.00
 11.27     700.66
 11.37     656.49
 11.47     711.00
 11.57     749.96
 11.67     721.79
 11.77     736.16
 11.87     769.00
 11.97     838.00
 12.07     786.00
 12.17     834.00
 12.27     863.00
 12.37     872.00
 12.47     770.47
 12.57     801.49
 12.67     745.00
 12.77     722.00
 12.87     671.00
 12.97     728.00
 13.07     625.00
 13.17     645.00
 13.27     645.00
 13.37     625.00
 13.47     685.00
 13.57     679.00
 13.67     621.00
 13.77     670.00
 13.87     690.02
 13.97     709.00
 14.07     649.35
 14.17     674.00
 14.27     735.00
 14.37     701.00
 14.47     661.00
 14.57     673.00
 14.67     682.00
 14.77     642.25
 14.87     656.19
 14.97     646.37
 15.07     674.00
 15.17     612.00
 15.27     680.09
 15.37     677.00
 15.47     683.00
 15.57     666.86
 15.67     662.00
 15.77     647.43
 15.87     703.15
 15.97     620.69
 16.07     636.00
 16.17     621.00
 16.27     674.00
 16.37     639.00
 16.47     641.00
 16.57     677.91
 16.67     640.00
 16.77     641.00
 16.87     635.00
 16.97     662.00
 17.07     679.00
 17.17     637.00
 17.27     652.00
 17.37     669.41
 17.47     621.00
 17.57     607.00
 17.67     621.07
 17.77     669.63
 17.87     657.00
 17.97     645.00
 18.07     637.00
 18.17     654.00
 18.27     646.00
 18.37     634.00
 18.47     630.87
 18.57     637.30
 18.67     695.16
 18.77     653.98
 18.87     646.00
 18.97     601.00
 19.07     627.00
 19.17     624.84
 19.27     621.24
 19.37     609.40
 19.47     657.96
 19.57     599.00
 19.67     645.00
 19.77     676.37
 19.87     684.62
 19.97     630.00
 20.07     651.00
 20.17     592.00
 20.27     607.00
 20.37     623.46
 20.47     609.00
 20.57     630.00
 20.67     627.00
 20.77     609.00
 20.87     601.08
 20.97     614.00
 21.07     627.82
 21.17     629.14
 21.27     669.00
 21.37     638.00
 21.47     634.00
 21.57     605.26
 21.67     594.00
 21.77     644.00
 21.87     616.00
 21.97     654.00
 22.07     657.58
 22.17     638.00
 22.27     621.00
 22.37     679.00
 22.47     607.07
 22.57     658.15
 22.67     599.18
 22.77     597.00
 22.87     646.00
 22.97     641.00
 23.07     603.00
 23.17     590.55
 23.27     628.00
 23.37     631.11
 23.47     630.00
 23.57     674.63
 23.67     649.59
 23.77     611.60
 23.87     583.38
 23.97     668.19
 24.07     646.00
 24.17     638.00
 24.27     600.45
 24.37     653.00
 24.47     667.85
 24.57     704.00
 24.67     609.06
 24.77     720.00
 24.87     738.61
 24.97     739.00
 25.07     745.00
 25.17     746.94
 25.27     662.00
 25.37     694.30
 25.47     660.32
 25.57     599.00
 25.67     610.15
 25.77     665.00
 25.87     651.00
 25.97     610.33
 26.07     691.50
 26.17     702.00
 26.27     636.00
 26.37     632.61
 26.47     658.00
 26.57     647.53
 26.67     658.00
 26.77     643.70
 26.87     694.00
 26.97     688.00
 27.07     733.09
 27.17     649.00
 27.27     689.00
 27.37     694.00
 27.47     762.00
 27.57     755.00
 27.67     831.74
 27.77     849.00
 27.87     995.00
 27.97    1358.30
 28.07    1923.00
 28.17    3240.00
 28.27    5271.83
 28.37    7185.00
 28.47    8309.00
 28.57    7429.55
 28.67    5851.00
 28.77    4238.00
 28.87    3418.01
 28.97    3856.00
 29.07    4445.92
 29.17    4504.92
 29.27    4095.00
 29.37    3323.00
 29.47    2262.46
 29.57    1591.00
 29.67    1203.00
 29.77     992.00
 29.87     888.00
 29.97     844.00
 30.07     866.00
 30.17     733.00
 30.27     743.28
 30.37     682.00
 30.47     730.00
 30.57     741.00
 30.67     636.64
 30.77     661.19
 30.87     667.77
 30.97     725.22
 31.07     785.00
 31.17     814.00
 31.27     812.00
 31.37     777.00
 31.47     755.00
 31.57     707.00
 31.67     666.00
 31.77     647.00
 31.87     672.00
 31.97     667.00
 32.07     638.00
 32.17     664.78
 32.27     664.96
 32.37     632.00
 32.47     643.00
 32.57     704.00
 32.67     627.66
 32.77     666.00
 32.87     601.93
 32.97     567.02
 33.07     600.91
 33.17     674.00
 33.27     640.53
 33.37     593.75
 33.47     653.36
 33.57     630.85
 33.67     667.00
 33.77     726.03
 33.87     715.00
 33.97     784.00
 34.07     955.00
 34.17    1095.00
 34.27    1214.00
 34.37    1243.00
 34.47    1188.74
 34.57    1018.00
 34.67     917.12
 34.77     791.00
 34.87     685.24
 34.97     714.00
 35.07     657.06
 35.17     688.53
 35.27     583.78
 35.37     612.00
 35.47     663.68
 35.57     637.00
 35.67     563.00
 35.77     640.00
 35.87     579.00
 35.97     613.58
 36.07     617.00
 36.17     583.00
 36.27     595.00
 36.37     609.00
 36.47     597.00
 36.57     581.00
 36.67     591.00
 36.77     553.60
 36.87     643.40
 36.97     622.00
 37.07     599.00
 37.17     587.00
 37.27     598.00
 37.37     609.00
 37.47     580.57
 37.57     583.00
 37.67     620.00
 37.77     661.78
 37.87     594.28
 37.97     692.00
 38.07     714.00
 38.17     739.00
 38.27     766.25
 38.37     766.00
 38.47     767.00
 38.57     762.79
 38.67     711.00
 38.77     681.04
 38.87     625.92
 38.97     613.00
 39.07     608.00
 39.17     609.00
 39.27     623.00
 39.37     562.15
 39.47     622.37
 39.57     623.00
 39.67     612.86
 39.77     573.00
 39.87     613.00
 39.97     618.00
 40.07     624.00
 40.17     623.44
 40.27     567.00
 40.37     557.00
 40.47     610.00
 40.57     564.25
 40.67     578.87
 40.77     597.24
 40.87     589.00
 40.97     547.39
 41.07     579.00
 41.17     593.39
 41.27     633.99
 41.37     642.24
 41.47     608.67
 41.57     621.94
 41.67     623.81
 41.77     579.96
 41.87     598.00
 41.97     596.00
 42.07     636.31
 42.17     588.32
 42.27     553.44
 42.37     582.00
 42.47     601.00
 42.57     662.99
 42.67     647.00
 42.77     698.71
 42.87     589.00
 42.97     687.00
 43.07     641.00
 43.17     751.00
 43.27     641.73
 43.37     640.00
 43.47     680.82
 43.57     618.00
 43.67     592.41
 43.77     575.00
 43.87     586.35
 43.97     624.58
 44.07     607.00
 44.17     643.15
 44.27     599.00
 44.37     606.00
 44.47     624.00
 44.57     650.00
 44.67     599.00
 44.77     620.00
 44.87     586.00
 44.97     619.00
 45.07     613.00
 45.17     566.40
 45.27     607.00
 45.37     573.00
 45.47     567.00
 45.57     610.00
 45.67     638.00
 45.77     624.00
 45.87     584.00
 45.97     638.00
 46.07     595.00
 46.17     620.69
 46.27     586.75
 46.37     633.62
 46.47     610.00
 46.57     629.00
 46.67     577.00
 46.77     649.88
 46.87     599.45
 46.97     623.00
 47.07     620.00
 47.17     601.68
 47.27     605.00
 47.37     617.00
 47.47     591.00
 47.57     617.00
 47.67     651.00
 47.77     600.07
 47.87     649.00
 47.97     710.00
 48.07     650.00
 48.17     703.00
 48.27     665.05
 48.37     688.00
 48.47     697.00
 48.57     655.00
 48.67     668.91
 48.77     664.00
 48.87     653.00
 48.97     619.28
 49.07     628.00
 49.17     614.16
 49.27     611.52
 49.37     617.00
 49.47     697.87
 49.57     674.00
 49.67     670.17
 49.77     733.00
 49.87     853.31
 49.97     893.00
 50.07    1145.00
 50.17    1471.00
 50.27    2052.00
 50.37    2460.00
 50.47    2874.00
 50.57    3145.00
 50.67    3019.90
 50.77    2717.00
 50.87    2340.00
 50.97    1813.00
 51.07    1301.00
 51.17    1121.00
 51.27     936.75
 51.37     805.00
 51.47     786.42
 51.57     715.51
 51.67     791.74
 51.77     755.00
 51.87     731.00
 51.97     730.00
 52.07     663.69
 52.17     679.00
 52.27     731.00
 52.37     639.52
 52.47     718.00
 52.57     668.95
 52.67     745.00
 52.77     708.00
 52.87     710.00
 52.97     674.00
 53.07     716.00
 53.17     744.00
 53.27     710.00
 53.37     860.00
 53.47     857.00
 53.57     938.00
 53.67    1113.00
 53.77    1144.00
 53.87    1331.77
 53.97    1382.17
 54.07    1318.00
 54.17    1276.65
 54.27    1110.00
 54.37    1001.00
 54.47     906.00
 54.57     826.00
 54.67     766.00
 54.77     735.00
 54.87     730.64
 54.97     680.00
 55.07     686.00
 55.17     722.00
 55.27     714.55
 55.37     712.83
 55.47     682.00
 55.57     669.00
 55.67     675.94
 55.77     664.00
 55.87     662.73
 55.97     694.94
 56.07     686.00
 56.17     701.00
 56.27     719.00
 56.37     770.87
 56.47     841.00
 56.57     884.00
 56.67    1109.68
 56.77    1240.00
 56.87    1536.66
 56.97    1784.00
 57.07    2178.00
 57.17    2420.93
 57.27    2746.00
 57.37    2593.31
 57.47    2645.00
 57.57    2525.00
 57.67    2010.00
 57.77    1663.00
 57.87    1348.32
 57.97    1227.61
 58.07    1049.00
 58.17     961.27
 58.27     794.30
 58.37     778.00
 58.47     810.00
 58.57     814.00
 58.67     859.00
 58.77     872.00
 58.87     994.00
 58.97    1004.37
 59.07    1131.68
 59.17    1214.00
 59.27    1286.00
 59.37    1315.00
 59.47    1343.81
 59.57    1431.28
 59.67    1254.27
 59.77    1346.00
 59.87    1246.03
 59.97    1192.04
 60.07    1276.54
 60.17    1245.25
 60.27    1389.31
 60.37    1379.00
 60.47    1559.00
 60.57    1618.00
 60.67    1684.52
 60.77    1614.00
 60.87    1606.00
 60.97    1452.00
 61.07    1225.00
 61.17    1172.00
 61.27     942.00
 61.37     939.00
 61.47     835.00
 61.57     822.00
 61.67     792.00
 61.77     869.00
 61.87     815.00
 61.97     928.57
 62.07    1007.00
 62.17    1088.79
 62.27    1323.00
 62.37    1399.45
 62.47    1670.40
 62.57    1688.00
 62.67    1881.14
 62.77    1735.00
 62.87    1699.72
 62.97    1550.07
 63.07    1347.39
 63.17    1193.45
 63.27    1034.00
 63.37     924.00
 63.47     846.00
 63.57     741.58
 63.67     767.00
 63.77     683.58
 63.87     728.00
 63.97     710.00
 64.07     674.67
 64.17     741.00
 64.27     766.00
 64.37     795.00
 64.47     867.86
 64.57     926.07
 64.67    1063.65
 64.77    1091.00
 64.87    1247.00
 64.97    1406.00
 65.07    1416.02
 65.17    1555.00
 65.27    1658.00
 65.37    1509.99
 65.47    1525.59
 65.57    1349.00
 65.67    1199.15
 65.77    1140.00
 65.87    1078.00
 65.97     946.67
 66.07     904.00
 66.17     835.00
 66.27     786.00
 66.37     761.00
 66.47     749.00
 66.57     733.00
 66.67     681.00
 66.77     671.00
 66.87     650.00
 66.97     659.00
 67.07     657.25
 67.17     742.21
 67.27     708.00
 67.37     712.53
 67.47     718.51
 67.57     753.52
 67.67     856.00
 67.77     960.70
 67.87     983.77
 67.97    1251.14
 68.07    1356.00
 68.17    1592.00
 68.27    1850.00
 68.37    2020.00
 68.47    2274.00
 68.57    2499.00
 68.67    2517.00
 68.77    2487.00
 68.87    2480.00
 68.97    2145.96
 69.07    2048.00
 69.17    1783.00
 69.27    1467.00
 69.37    1304.00
 69.47    1063.41
 69.57    1031.00
 69.67     849.92
 69.77     861.94
 69.87     753.71
 69.97     828.00
 70.07     747.07
 70.17     772.00
 70.27     747.00
 70.37     687.00
 70.47     648.89
 70.57     657.10
 70.67     698.00
 70.77     726.00
 70.87     697.93
 70.97     706.00
 71.07     706.00
 71.17     705.00
 71.27     750.00
 71.37     724.00
 71.47     750.96
 71.57     823.00
 71.67     807.00
 71.77     872.00
 71.87    1037.23
 71.97    1087.00
 72.07    1283.00
 72.17    1452.96
 72.27    1496.00
 72.37    1788.00
 72.47    1866.48
 72.57    1972.88
 72.67    2118.75
 72.77    1932.41
 72.87    1860.00
 72.97    1809.00
 73.07    1585.00
 73.17    1380.00
 73.27    1218.31
 73.37    1168.60
 73.47    1036.00
 73.57     889.00
 73.67     813.00
 73.77     791.00
 73.87     769.88
 73.97     723.58
 74.07     723.57
 74.17     705.00
 74.27     712.00
 74.37     666.00
 74.47     642.00
 74.57     692.70
 74.67     640.52
 74.77     662.13
 74.87     715.15
 74.97     734.60
 75.07     699.00
 75.17     674.84
 75.27     665.86
 75.37     694.29
 75.47     679.31
 75.57     734.00
 75.67     753.00
 75.77     667.20
 75.87     685.00
 75.97     693.19
 76.07     614.00
 76.17     671.00
 76.27     736.59
 76.37     724.00
 76.47     696.00
 76.57     793.00
 76.67     786.00
 76.77     864.00
 76.87     952.85
 76.97     989.18
 77.07    1012.00
 77.17    1022.94
 77.27     995.45
 77.37     944.75
 77.47    1005.00
 77.57     978.00
 77.67     904.35
 77.77     845.00
 77.87     863.00
 77.97     780.72
 78.07     712.00
 78.17     728.00
 78.27     674.00
 78.37     660.00
 78.47     679.00
 78.57     666.16
 78.67     636.00
 78.77     646.63
 78.87     621.00
 78.97     616.00
 79.07     632.00
 79.17     620.00
 79.27     639.00
 79.37     645.00
 79.47     603.97
 79.57     616.00
 79.67     633.00
 79.77     617.00
 79.87     602.08
 79.97     621.11
 80.07     595.00
 80.17     664.00
 80.27     631.00
 80.37     637.35
 80.47     734.00
 80.57     675.00
 80.67     733.00
 80.77     726.00
 80.87     923.00
 80.97     881.00
 81.07     950.00
 81.17    1068.00
 81.27    1169.00
 81.37    1218.95
 81.47    1322.32
 81.57    1380.00
 81.67    1528.00
 81.77    1413.00
 81.87    1491.00
 81.97    1451.00
 82.07    1333.79
 82.17    1329.00
 82.27    1327.00
 82.37    1257.00
 82.47    1178.69
 82.57    1096.35
 82.67     970.90
 82.77     927.00
 82.87     859.30
 82.97     789.00
 83.07     779.00
 83.17     766.00
 83.27     705.00
 83.37     695.00
 83.47     682.12
 83.57     732.25
 83.67     659.61
 83.77     656.00
 83.87     633.00
 83.97     681.90
 84.07     691.50
 84.17     615.00
 84.27     653.06
 84.37     628.00
 84.47     678.71
 84.57     684.00
 84.67     744.11
 84.77     672.00
 84.87     668.50
 84.97     660.67
 85.07     727.29
 85.17     636.00
 85.27     651.00
 85.37     609.00
 85.47     637.00
 85.57     638.67
 85.67     633.00
 85.77     618.07
 85.87     612.23
 85.97     600.22
 86.07     654.26
 86.17     649.61
 86.27     609.92
 86.37     651.00
 86.47     638.00
 86.57     663.00
 86.67     627.00
 86.77     670.00
 86.87     688.00
 86.97     733.00
 87.07     660.00
 87.17     715.00
 87.27     701.00
 87.37     711.00
 87.47     675.00
 87.57     715.44
 87.67     702.00
 87.77     678.69
 87.87     751.00
 87.97     758.41
 88.07     735.00
 88.17     723.30
 88.27     732.76
 88.37     739.00
 88.47     747.00
 88.57     708.22
 88.67     732.80
 88.77     747.34
 88.87     674.00
 88.97     672.00
 89.07     678.00
 89.17     674.93
 89.27     652.00
 89.37     661.00
 89.47     654.29
 89.57     641.00
 89.67     665.00
 89.77     616.77
 89.87     640.00
 89.97     700.00
 90.07     723.68
 90.17     720.00
 90.27     720.00
 90.37     697.00
 90.47     653.00
 90.57     637.00
 90.67     640.17
 90.77     663.00
 90.87     651.00
 90.97     659.00
 91.07     589.00
 91.17     576.00
 91.27     602.51
 91.37     604.00
 91.47     655.90
 91.57     594.00
 91.67     597.76
 91.77     607.00
 91.87     623.00
 91.97     566.60
 92.07     589.00
 92.17     610.00
 92.27     635.93
 92.37     583.00
 92.47     615.53
 92.57     613.00
 92.67     582.00
 92.77     639.00
 92.87     657.00
 92.97     638.00
 93.07     639.00
 93.17     644.00
 93.27     708.00
 93.37     659.00
 93.47     697.00
 93.57     776.62
 93.67     692.00
 93.77     810.00
 93.87     779.00
 93.97     808.00
 94.07     858.94
 94.17     895.00
 94.27     859.00
 94.37     904.00
 94.47     857.00
 94.57     933.00
 94.67     963.00
 94.77     916.05
 94.87    1008.40
 94.97     964.00
 95.07    1010.81
 95.17     973.02
 95.27    1051.45
 95.37    1035.00
 95.47    1107.14
 95.57    1081.47
 95.67    1025.00
 95.77     976.05
 95.87     994.24
 95.97    1026.00
 96.07    1006.00
 96.17     974.00
 96.27     891.00
 96.37     896.00
 96.47     810.40
 96.57     811.00
 96.67     850.00
 96.77     840.47
 96.87     841.16
 96.97     792.27
 97.07     812.36
 97.17     911.74
 97.27     884.00
 97.37     964.00
 97.47    1005.00
 97.57    1031.00
 97.67    1166.00
 97.77    1121.90
 97.87    1293.00
 97.97    1356.59
 98.07    1393.00
 98.17    1507.21
 98.27    1525.00
 98.37    1514.86
 98.47    1570.69
 98.57    1633.00
 98.67    1536.14
 98.77    1491.00
 98.87    1530.15
 98.97    1491.00
 99.07    1344.95
 99.17    1320.00
 99.27    1251.00
 99.37    1181.00
 99.47    1150.33
 99.57    1088.00
 99.67    1058.42
 99.77    1036.00
 99.87    1050.55
 99.97     964.00
100.07    1007.00
100.17    1022.00
100.27    1065.22
100.37    1076.37
100.47    1230.00
100.57    1272.00
100.67    1342.00
100.77    1504.79
100.87    1506.80
100.97    1585.00
101.07    1796.00
101.17    1830.00
101.27    1903.00
101.37    2029.21
101.47    1948.44
101.57    2112.00
101.67    2065.00
101.77    2106.00
101.87    2155.00
101.97    2069.14
102.07    2189.50
102.17    2014.00
102.27    1988.00
102.37    1931.81
102.47    1901.27
102.57    1862.47
102.67    1669.00
102.77    1636.22
102.87    1579.65
102.97    1452.00
103.07    1421.00
103.17    1473.96
103.27    1365.80
103.37    1321.00
103.47    1278.00
103.57    1305.00
103.67    1228.00
103.77    1197.00
103.87    1170.00
103.97    1118.00
104.07    1161.30
104.17    1063.00
104.27    1065.85
104.37     958.23
104.47     929.00
104.57     937.85
104.67     823.00
104.77     860.00
104.87     779.00
104.97     797.75
105.07     734.78
105.17     678.54
105.27     696.49
105.37     704.00
105.47     665.00
105.57     668.93
105.67     625.00
105.77     638.00
105.87     604.00
105.97     645.00
106.07     612.00
106.17     686.00
106.27     646.00
106.37     643.00
106.47     654.00
106.57     633.00
106.67     640.00
106.77     613.00
106.87     657.16
106.97     619.00
107.07     684.00
107.17     685.00
107.27     723.21
107.37     677.00
107.47     664.00
107.57     690.36
107.67     704.00
107.77     701.00
107.87     735.00
107.97     768.32
108.07     749.00
108.17     793.97
108.27     772.31
108.37     759.00
108.47     787.00
108.57     751.00
108.67     798.00
108.77     850.28
108.87     794.00
108.97     754.40
109.07     779.00
109.17     773.00
109.27     738.00
109.37     739.85
109.47     795.00
109.57     734.00
109.67     785.00
109.77     820.00
109.87     810.00
109.97     786.00
110.07     736.55
110.17     737.00
110.27     724.00
110.37     699.00
110.47     758.83
110.57     789.00
110.67     777.13
110.77     758.00
110.87     731.00
110.97     728.71
111.07     732.00
111.17     701.00
111.27     653.00
111.37     624.00
111.47     725.00
111.57     666.00
111.67     689.00
111.77     703.00
111.87     650.00
111.97     643.00
112.07     570.83
112.17     655.93
112.27     641.00
112.37     583.00
112.47     624.69
112.57     644.15
112.67     626.68
112.77     668.59
112.87     656.00
112.97     603.31
113.07     653.68
113.17     576.24
113.27     614.00
113.37     629.00
113.47     621.00
113.57     629.00
113.67     618.00
113.77     668.00
113.87     649.00
113.97     608.00
114.07     631.00
114.17     654.00
114.27     693.57
114.37     627.46
114.47     727.00
114.57     745.00
114.67     734.00
114.77     744.92
114.87     769.00
114.97     742.26
115.07     861.87
115.17     927.47
115.27     887.00
115.37     980.00
115.47    1073.41
115.57    1218.98
115.67    1242.00
115.77    1422.00
115.87    1564.00
115.97    1843.00
116.07    2038.00
116.17    2271.00
116.27    2419.63
116.37    2702.00
116.47    3057.52
116.57    3309.00
116.67    3671.57
116.77    4213.00
116.87    4462.64
116.97    4890.00
117.07    5276.00
117.17    5871.55
117.27    5890.00
117.37    6573.15
117.47    6659.02
117.57    6968.62
117.67    7173.00
117.77    7547.73
117.87    7481.00
117.97    7708.80
118.07    7652.00
118.17    7496.08
118.27    7502.00
118.37    7013.00
118.47    6651.14
118.57    6522.34
118.67    6162.21
118.77    5644.00
118.87    5395.31
118.97    4890.00
119.07    4712.00
119.17    4323.00
119.27    3868.39
119.37    3440.78
119.47    3170.97
119.57    2963.00
119.67    2628.00
119.77    2457.00
119.87    2168.00
119.97    1975.00
120.07    1732.00
120.17    1629.00
120.27    1502.00
120.37    1358.00
120.47    1237.56
120.57    1156.71
120.67    1089.00
120.77     964.05
120.87     996.00
120.97     949.00
121.07     892.00
121.17     848.00
121.27     805.00
121.37     817.00
121.47     807.00
121.57     814.13
121.67     753.00
121.77     721.28
121.87     692.49
121.97     728.00
122.07     685.00
122.17     706.89
122.27     716.00
122.37     691.00
122.47     716.00
122.57     681.00
122.67     662.00
122.77     758.81
122.87     681.56
122.97     742.67
123.07     743.18
123.17     755.59
123.27     692.00
123.37     753.44
123.47     692.00
123.57     726.00
123.67     771.00
123.77     760.00
123.87     793.00
123.97     779.24
124.07     784.22
124.17     762.00
124.27     818.00
124.37     791.00
124.47     808.36
124.57     791.00
124.67     841.00
124.77     835.00
124.87     782.34
124.97     804.00
