  9.97     702.00
 10.07     724.55
 10.17     735.47
 10.27     731.00
 10.37     732.00
 10.47     743.95
 10.57     673.50
 10.67     711.00
 10.77     720.00
 10.87     701.00
 10.97     684.00
 11.07     696.00
 11.17     670.65
 11.27     702.00
 11.37     737.00
 11.47     723.00
 11.57     679.00
 11.67     783.00
 11.77     727.00
 11.87     719.45
 11.97     804.00
 12.07     788.00
 12.17     729.33
 12.27     789.68
 12.37     785.00
 12.47     830.00
 12.57     729.00
 12.67     762.00
 12.77     698.00
 12.87     685.00
 12.97     609.00
 13.07     646.99
 13.17     654.00
 13.27     698.76
 13.37     677.00
 13.47     656.00
 13.57     679.74
 13.67     658.00
 13.77     698.83
 13.87     677.00
 13.97     708.00
 14.07     666.00
 14.17     705.00
 14.27     618.00
 14.37     642.00
 14.47     668.00
 14.57     703.71
 14.67     654.00
 14.77     607.14
 14.87     679.37
 14.97     651.00
 15.07     606.00
 15.17     655.00
 15.27     682.00
 15.37     682.00
 15.47     657.66
 15.57     644.29
 15.67     620.00
 15.77     614.00
 15.87     604.00
 15.97     644.00
 16.07     650.00
 16.17     607.00
 16.27     612.00
 16.37     625.63
 16.47     619.00
 16.57     630.00
 16.67     605.00
 16.77     609.00
 16.87     653.73
 16.97     646.00
 17.07     668.16
 17.17     629.75
 17.27     630.00
 17.37     635.00
 17.47     646.95
 17.57     622.00
 17.67     629.79
 17.77     589.00
 17.87     617.77
 17.97     628.07
 18.07     591.00
 18.17     630.00
 18.27     612.75
 18.37     609.00
 18.47     635.00
 18.57     635.00
 18.67     637.00
 18.77     649.00
 18.87     678.45
 18.97     645.00
 19.07     626.00
 19.17     593.82
 19.27     592.00
 19.37     601.00
 19.47     608.00
 19.57     585.00
 19.67     618.00
 19.77     654.00
 19.87     594.00
 19.97     607.00
 20.07     580.00
 20.17     635.96
 20.27     585.00
 20.37     602.00
 20.47     607.00
 20.57     588.00
 20.67     634.00
 20.77     563.00
 20.87     606.76
 20.97     619.00
 21.07     612.84
 21.17     578.72
 21.27     593.23
 21.37     598.00
 21.47     606.00
 21.57     614.00
 21.67     617.52
 21.77     594.00
 21.87     638.24
 21.97     661.76
 22.07     637.00
 22.17     611.00
 22.27     581.38
 22.37     564.00
 22.47     658.33
 22.57     581.00
 22.67     582.51
 22.77     620.00
 22.87     560.00
 22.97     597.00
 23.07     639.88
 23.17     645.00
 23.27     570.00
 23.37     660.57
 23.47     641.00
 23.57     655.22
 23.67     623.00
 23.77     606.00
 23.87     605.00
 23.97     613.00
 24.07     622.00
 24.17     598.26
 24.27     661.00
 24.37     611.00
 24.47     643.00
 24.57     625.09
 24.67     670.00
 24.77     647.00
 24.87     640.11
 24.97     663.95
 25.07     737.80
 25.17     685.08
 25.27     676.00
 25.37     649.00
 25.47     591.48
 25.57     618.08
 25.67     643.18
 25.77     624.00
 25.87     573.78
 25.97     634.00
 26.07     634.00
 26.17     649.23
 26.27     658.66
 26.37     634.00
 26.47     663.14
 26.57     622.89
 26.67     600.78
 26.77     592.00
 26.87     631.00
 26.97     688.00
 27.07     640.00
 27.17     642.30
 27.27     727.30
 27.37     709.73
 27.47     710.00
 27.57     764.00
 27.67     845.00
 27.77     835.00
 27.87    1008.00
 27.97    1255.00
 28.07    1924.00
 28.17    3298.13
 28.27    4639.00
 28.37    6377.76
 28.47    6840.00
 28.57    6148.00
 28.67    4259.84
 28.77    3201.50
 28.87    2786.00
 28.97    3285.00
 29.07    3661.00
 29.17    3661.24
 29.27    3309.00
 29.37    2463.35
 29.47    1790.00
 29.57    1371.64
 29.67     996.92
 29.77     916.00
 29.87     837.00
 29.97     827.00
 30.07     753.00
 30.17     687.78
 30.27     722.00
 30.37     685.00
 30.47     735.00
 30.57     660.00
 30.67     669.99
 30.77     704.17
 30.87     695.88
 30.97     737.00
 31.07     729.90
 31.17     758.00
 31.27     724.00
 31.37     697.02
 31.47     624.45
 31.57     641.00
 31.67     696.00
 31.77     603.00
 31.87     678.00
 31.97     664.00
 32.07     643.00
 32.17     628.00
 32.27     605.00
 32.37     655.00
 32.47     590.04
 32.57     617.00
 32.67     608.00
 32.77     638.00
 32.87     643.00
 32.97     669.00
 33.07     623.00
 33.17     630.00
 33.27     619.83
 33.37     630.00
 33.47     652.00
 33.57     669.66
 33.67     666.00
 33.77     702.49
 33.87     732.00
 33.97     791.80
 34.07    1016.00
 34.17    1098.00
 34.27    1169.00
 34.37    1192.35
 34.47    1078.00
 34.57     909.80
 34.67     827.00
 34.77     726.00
 34.87     685.12
 34.97     664.00
 35.07     686.00
 35.17     653.00
 35.27     606.64
 35.37     693.00
 35.47     601.00
 35.57     637.00
 35.67     636.40
 35.77     576.00
 35.87     638.54
 35.97     581.00
 36.07     584.48
 36.17     608.51
 36.27     581.52
 36.37     543.36
 36.47     575.00
 36.57     568.00
 36.67     610.43
 36.77     606.52
 36.87     581.55
 36.97     545.93
 37.07     587.00
 37.17     598.00
 37.27     589.57
 37.37     571.26
 37.47     543.00
 37.57     617.00
 37.67     606.00
 37.77     645.00
 37.87     667.00
 37.97     687.00
 38.07     646.00
 38.17     739.00
 38.27     739.00
 38.37     679.00
 38.47     675.10
 38.57     675.00
 38.67     649.00
 38.77     602.00
 38.87     619.96
 38.97     640.25
 39.07     547.39
 39.17     575.38
 39.27     580.38
 39.37     583.40
 39.47     597.00
 39.57     604.26
 39.67     591.00
 39.77     578.00
 39.87     585.00
 39.97     607.00
 40.07     558.20
 40.17     576.00
 40.27     602.35
 40.37     552.00
 40.47     597.00
 40.57     529.00
 40.67     563.00
 40.77     569.00
 40.87     532.00
 40.97     592.22
 41.07     569.00
 41.17     560.00
 41.27     573.00
 41.37     572.73
 41.47     563.40
 41.57     519.00
 41.67     606.15
 41.77     588.00
 41.87     555.00
 41.97     594.53
 42.07     559.00
 42.17     554.59
 42.27     552.00
 42.37     570.00
 42.47     569.00
 42.57     587.42
 42.67     661.31
 42.77     631.36
 42.87     619.00
 42.97     665.00
 43.07     652.00
 43.17     651.00
 43.27     607.00
 43.37     625.00
 43.47     612.68
 43.57     581.88
 43.67     603.00
 43.77     572.00
 43.87     572.00
 43.97     559.00
 44.07     567.00
 44.17     595.18
 44.27     569.81
 44.37     615.00
 44.47     605.00
 44.57     608.00
 44.67     569.00
 44.77     603.00
 44.87     606.22
 44.97     544.00
 45.07     619.70
 45.17     598.18
 45.27     580.75
 45.37     531.09
 45.47     591.00
 45.57     562.00
 45.67     596.00
 45.77     588.00
 45.87     586.00
 45.97     563.00
 46.07     619.00
 46.17     553.00
 46.27     588.00
 46.37     598.00
 46.47     576.00
 46.57     590.00
 46.67     589.00
 46.77     598.72
 46.87     588.00
 46.97     572.01
 47.07     598.00
 47.17     587.15
 47.27     610.00
 47.37     580.00
 47.47     585.00
 47.57     609.75
 47.67     573.42
 47.77     622.00
 47.87     617.57
 47.97     654.00
 48.07     664.00
 48.17     641.11
 48.27     626.65
 48.37     669.00
 48.47     647.49
 48.57     709.00
 48.67     600.91
 48.77     633.00
 48.87     625.00
 48.97     611.33
 49.07     572.01
 49.17     614.59
 49.27     635.00
 49.37     643.00
 49.47     619.00
 49.57     623.00
 49.67     698.00
 49.77     739.00
 49.87     810.00
 49.97     996.85
 50.07    1376.97
 50.17    1587.00
 50.27    2098.00
 50.37    2617.00
 50.47    2875.00
 50.57    3094.84
 50.67    2918.00
 50.77    2470.00
 50.87    1942.00
 50.97    1466.84
 51.07    1206.00
 51.17     955.06
 51.27     780.00
 51.37     781.31
 51.47     801.00
 51.57     724.32
 51.67     694.00
 51.77     706.76
 51.87     662.29
 51.97     678.00
 52.07     737.00
 52.17     613.38
 52.27     711.00
 52.37     682.51
 52.47     685.00
 52.57     660.00
 52.67     677.00
 52.77     668.00
 52.87     686.75
 52.97     690.00
 53.07     722.00
 53.17     711.00
 53.27     750.00
 53.37     767.00
 53.47     899.62
 53.57    1020.00
 53.67    1178.00
 53.77    1228.00
 53.87    1258.00
 53.97    1272.00
 54.07    1201.26
 54.17    1146.00
 54.27    1105.00
 54.37     877.00
 54.47     815.38
 54.57     755.00
 54.67     704.00
 54.77     660.00
 54.87     626.05
 54.97     661.00
 55.07     717.00
 55.17     633.00
 55.27     661.00
 55.37     614.72
 55.47     688.00
 55.57     655.00
 55.67     607.27
 55.77     638.00
 55.87     616.00
 55.97     711.90
 56.07     706.00
 56.17     712.00
 56.27     740.00
 56.37     738.00
 56.47     806.42
 56.57     923.00
 56.67    1146.00
 56.77    1288.44
 56.87    1666.18
 56.97    1982.00
 57.07    2282.00
 57.17    2529.00
 57.27    2706.38
 57.37    2555.39
 57.47    2324.65
 57.57    2091.00
 57.67    1783.08
 57.77    1470.00
 57.87    1218.00
 57.97    1081.07
 58.07     874.00
 58.17     828.10
 58.27     815.00
 58.37     776.00
 58.47     794.00
 58.57     822.64
 58.67     825.70
 58.77     931.00
 58.87     926.00
 58.97    1110.94
 59.07    1129.00
 59.17    1140.00
 59.27    1266.55
 59.37    1315.13
 59.47    1368.45
 59.57    1328.81
 59.67    1352.00
 59.77    1269.00
 59.87    1240.00
 59.97    1251.71
 60.07    1173.12
 60.17    1269.27
 60.27    1391.00
 60.37    1441.38
 60.47    1482.00
 60.57    1596.00
 60.67    1585.00
 60.77    1527.00
 60.87    1511.00
 60.97    1302.00
 61.07    1226.81
 61.17    1009.00
 61.27     937.00
 61.37     896.00
 61.47     832.28
 61.57     789.10
 61.67     795.30
 61.77     803.47
 61.87     846.00
 61.97     894.00
 62.07    1010.31
 62.17    1079.00
 62.27    1321.00
 62.37    1423.00
 62.47    1606.00
 62.57    1634.21
 62.67    1667.00
 62.77    1573.00
 62.87    1537.23
 62.97    1317.00
 63.07    1155.00
 63.17    1078.00
 63.27     960.32
 63.37     838.00
 63.47     803.29
 63.57     740.09
 63.67     730.00
 63.77     734.58
 63.87     716.00
 63.97     697.00
 64.07     703.00
 64.17     686.00
 64.27     742.00
 64.37     896.00
 64.47     858.00
 64.57     885.00
 64.67     938.83
 64.77    1121.00
 64.87    1248.00
 64.97    1343.00
 65.07    1408.00
 65.17    1435.00
 65.27    1441.67
 65.37    1344.00
 65.47    1220.02
 65.57    1233.00
 65.67    1085.00
 65.77    1044.00
 65.87     867.17
 65.97     860.00
 66.07     750.00
 66.17     737.00
 66.27     696.00
 66.37     726.00
 66.47     689.00
 66.57     703.00
 66.67     695.64
 66.77     616.00
 66.87     700.28
 66.97     678.80
 67.07     711.00
 67.17     727.00
 67.27     723.80
 67.37     692.00
 67.47     796.60
 67.57     775.79
 67.67     912.12
 67.77     943.00
 67.87    1073.55
 67.97    1239.00
 68.07    1438.00
 68.17    1646.66
 68.27    2018.34
 68.37    2137.00
 68.47    2446.97
 68.57    2449.00
 68.67    2509.00
 68.77    2468.00
 68.87    2251.56
 68.97    2043.00
 69.07    1791.64
 69.17    1540.00
 69.27    1294.00
 69.37    1110.37
 69.47     993.00
 69.57     910.00
 69.67     834.00
 69.77     844.00
 69.87     732.83
 69.97     728.70
 70.07     679.00
 70.17     626.34
 70.27     635.46
 70.37     676.43
 70.47     743.00
 70.57     699.00
 70.67     707.28
 70.77     645.00
 70.87     676.00
 70.97     687.00
 71.07     688.00
 71.17     676.60
 71.27     701.52
 71.37     763.00
 71.47     773.00
 71.57     767.00
 71.67     832.00
 71.77     905.88
 71.87    1030.42
 71.97    1198.55
 72.07    1335.00
 72.17    1540.28
 72.27    1593.27
 72.37    1781.00
 72.47    1972.00
 72.57    2027.99
 72.67    2037.28
 72.77    1925.00
 72.87    1725.00
 72.97    1585.00
 73.07    1423.00
 73.17    1259.53
 73.27    1184.94
 73.37    1022.00
 73.47     900.50
 73.57     793.00
 73.67     779.00
 73.77     707.00
 73.87     700.00
 73.97     714.53
 74.07     694.00
 74.17     617.00
 74.27     684.87
 74.37     697.75
 74.47     597.81
 74.57     694.83
 74.67     636.00
 74.77     597.35
 74.87     614.22
 74.97     694.00
 75.07     664.00
 75.17     708.50
 75.27     612.34
 75.37     681.80
 75.47     734.00
 75.57     644.00
 75.67     715.00
 75.77     713.00
 75.87     671.00
 75.97     638.00
 76.07     659.00
 76.17     615.00
 76.27     615.00
 76.37     698.00
 76.47     743.00
 76.57     748.90
 76.67     819.22
 76.77     854.22
 76.87     878.00
 76.97     909.18
 77.07     911.00
 77.17     984.08
 77.27     932.00
 77.37     971.31
 77.47     885.00
 77.57     893.00
 77.67     807.00
 77.77     832.00
 77.87     683.00
 77.97     671.46
 78.07     627.32
 78.17     680.87
 78.27     642.00
 78.37     614.00
 78.47     622.00
 78.57     632.00
 78.67     610.00
 78.77     639.68
 78.87     608.73
 78.97     618.00
 79.07     652.23
 79.17     614.00
 79.27     597.00
 79.37     646.95
 79.47     607.26
 79.57     600.60
 79.67     569.13
 79.77     631.00
 79.87     577.00
 79.97     591.00
 80.07     638.00
 80.17     615.93
 80.27     581.71
 80.37     645.00
 80.47     642.00
 80.57     649.66
 80.67     667.73
 80.77     745.00
 80.87     800.13
 80.97     872.00
 81.07     907.36
 81.17     916.44
 81.27    1130.00
 81.37    1123.00
 81.47    1221.00
 81.57    1270.00
 81.67    1323.00
 81.77    1269.00
 81.87    1261.94
 81.97    1216.05
 82.07    1204.73
 82.17    1136.00
 82.27    1081.31
 82.37     998.00
 82.47     910.87
 82.57     937.26
 82.67     877.61
 82.77     774.00
 82.87     789.00
 82.97     763.00
 83.07     704.84
 83.17     649.00
 83.27     675.00
 83.37     677.92
 83.47     685.88
 83.57     672.78
 83.67     622.00
 83.77     649.12
 83.87     618.00
 83.97     656.33
 84.07     593.72
 84.17     635.20
 84.27     672.92
 84.37     650.28
 84.47     654.00
 84.57     651.46
 84.67     620.00
 84.77     628.00
 84.87     680.44
 84.97     624.00
 85.07     606.00
 85.17     666.33
 85.27     635.30
 85.37     585.60
 85.47     572.75
 85.57     596.00
 85.67     567.00
 85.77     587.10
 85.87     599.00
 85.97     579.00
 86.07     557.00
 86.17     617.00
 86.27     580.00
 86.37     629.00
 86.47     668.00
 86.57     616.00
 86.67     604.00
 86.77     650.00
 86.87     619.05
 86.97     693.00
 87.07     652.00
 87.17     623.00
 87.27     640.00
 87.37     690.00
 87.47     660.00
 87.57     699.00
 87.67     680.00
 87.77     749.00
 87.87     711.00
 87.97     640.11
 88.07     721.20
 88.17     737.00
 88.27     732.00
 88.37     685.00
 88.47     700.00
 88.57     662.71
 88.67     704.00
 88.77     701.52
 88.87     699.64
 88.97     596.37
 89.07     622.62
 89.17     678.14
 89.27     573.00
 89.37     598.00
 89.47     648.40
 89.57     670.00
 89.67     664.00
 89.77     666.00
 89.87     619.54
 89.97     641.00
 90.07     663.00
 90.17     657.00
 90.27     692.00
 90.37     616.21
 90.47     672.41
 90.57     649.20
 90.67     643.00
 90.77     627.73
 90.87     638.02
 90.97     608.00
 91.07     578.31
 91.17     601.70
 91.27     591.00
 91.37     568.00
 91.47     588.00
 91.57     602.00
 91.67     621.18
 91.77     583.81
 91.87     579.00
 91.97     602.57
 92.07     583.38
 92.17     572.00
 92.27     553.11
 92.37     576.00
 92.47     626.00
 92.57     612.36
 92.67     636.00
 92.77     625.00
 92.87     582.16
 92.97     657.00
 93.07     686.20
 93.17     692.15
 93.27     683.61
 93.37     674.00
 93.47     680.84
 93.57     773.73
 93.67     758.00
 93.77     811.85
 93.87     768.00
 93.97     796.00
 94.07     759.00
 94.17     819.00
 94.27     793.00
 94.37     824.00
 94.47     822.41
 94.57     949.33
 94.67     872.86
 94.77     886.00
 94.87     952.00
 94.97     890.00
 95.07     960.00
 95.17     983.00
 95.27    1029.00
 95.37    1012.00
 95.47    1025.00
 95.57    1008.00
 95.67    1031.00
 95.77    1005.00
 95.87     974.72
 95.97     994.00
 96.07     900.17
 96.17     925.71
 96.27     916.00
 96.37     923.00
 96.47     830.00
 96.57     814.00
 96.67     839.00
 96.77     830.82
 96.87     866.00
 96.97     850.66
 97.07     853.00
 97.17     897.00
 97.27     908.51
 97.37     984.36
 97.47    1135.00
 97.57    1131.00
 97.67    1185.00
 97.77    1181.44
 97.87    1319.00
 97.97    1449.54
 98.07    1455.00
 98.17    1487.00
 98.27    1616.00
 98.37    1546.00
 98.47    1488.30
 98.57    1567.00
 98.67    1547.00
 98.77    1437.00
 98.87    1393.00
 98.97    1347.17
 99.07    1238.00
 99.17    1189.00
 99.27    1174.00
 99.37    1142.00
 99.47    1073.00
 99.57     993.00
 99.67     945.00
 99.77     929.00
 99.87     989.00
 99.97    1011.00
100.07    1031.00
100.17    1050.00
100.27    1076.20
100.37    1247.00
100.47    1256.12
100.57    1383.18
100.67    1466.49
100.77    1540.86
100.87    1655.00
100.97    1676.00
101.07    1718.38
101.17    1934.22
101.27    1865.11
101.37    2048.00
101.47    2036.00
101.57    2079.00
101.67    2047.06
101.77    2058.00
101.87    2192.00
101.97    2044.00
102.07    2054.45
102.17    1931.30
102.27    1842.66
102.37    1727.00
102.47    1763.26
102.57    1628.00
102.67    1546.32
102.77    1506.00
102.87    1515.79
102.97    1324.00
103.07    1326.00
103.17    1272.00
103.27    1241.00
103.37    1266.51
103.47    1226.19
103.57    1218.55
103.67    1136.00
103.77    1183.06
103.87    1091.94
103.97    1047.00
104.07    1088.32
104.17     971.79
104.27     928.00
104.37     885.84
104.47     858.00
104.57     828.00
104.67     762.00
104.77     729.00
104.87     790.00
104.97     727.00
105.07     650.11
105.17     691.00
105.27     658.00
105.37     639.00
105.47     635.00
105.57     638.00
105.67     640.00
105.77     568.99
105.87     641.00
105.97     576.00
106.07     650.00
106.17     622.34
106.27     625.32
106.37     628.00
106.47     635.00
106.57     577.81
106.67     584.00
106.77     645.00
106.87     596.00
106.97     631.00
107.07     684.00
107.17     655.00
107.27     636.00
107.37     679.00
107.47     727.38
107.57     703.57
107.67     712.00
107.77     687.00
107.87     735.00
107.97     798.44
108.07     733.00
108.17     719.25
108.27     751.00
108.37     825.00
108.47     730.00
108.57     757.28
108.67     762.00
108.77     818.16
108.87     729.00
108.97     805.00
109.07     755.46
109.17     734.00
109.27     703.00
109.37     741.00
109.47     757.00
109.57     732.62
109.67     769.81
109.77     737.00
109.87     756.00
109.97     748.00
110.07     773.40
110.17     757.00
110.27     795.01
110.37     729.00
110.47     733.00
110.57     739.73
110.67     699.00
110.77     722.99
110.87     642.00
110.97     663.00
111.07     665.09
111.17     599.00
111.27     686.61
111.37     666.49
111.47     672.00
111.57     581.57
111.67     598.07
111.77     644.00
111.87     608.94
111.97     589.24
112.07     626.21
112.17     559.00
112.27     619.00
112.37     614.09
112.47     584.00
112.57     606.00
112.67     600.15
112.77     563.42
112.87     595.00
112.97     609.00
113.07     618.00
113.17     619.20
113.27     633.00
113.37     609.00
113.47     599.16
113.57     600.21
113.67     619.00
113.77     658.46
113.87     636.00
113.97     644.75
114.07     624.00
114.17     677.00
114.27     674.00
114.37     696.72
114.47     705.00
114.57     744.69
114.67     713.60
114.77     699.00
114.87     753.51
114.97     881.00
115.07     893.00
115.17     859.00
115.27     963.00
115.37    1124.59
115.47    1170.00
115.57    1268.00
115.67    1422.00
115.77    1644.00
115.87    1853.00
115.97    1947.75
116.07    2235.00
116.17    2632.25
116.27    2782.00
116.37    3213.99
116.47    3616.57
116.57    3939.00
116.67    4261.00
116.77    4688.88
116.87    5019.00
116.97    5295.00
117.07    5836.80
117.17    6038.25
117.27    6603.00
117.37    6814.60
117.47    6994.00
117.57    7301.84
117.67    7457.00
117.77    7486.00
117.87    7376.00
117.97    7354.00
118.07    7259.00
118.17    7099.34
118.27    6847.93
118.37    6300.00
118.47    6115.00
118.57    5784.69
118.67    5457.00
118.77    5029.00
118.87    4701.00
118.97    4316.00
119.07    3887.89
119.17    3610.00
119.27    3321.00
119.37    2990.81
119.47    2646.83
119.57    2474.00
119.67    2097.07
119.77    1928.71
119.87    1749.19
119.97    1556.00
120.07    1501.00
120.17    1318.73
120.27    1243.00
120.37    1163.00
120.47    1110.00
120.57    1033.45
120.67     973.00
120.77     941.00
120.87     915.00
120.97     839.00
121.07     856.10
121.17     826.00
121.27     737.00
121.37     735.00
121.47     766.55
121.57     749.00
121.67     756.54
121.77     662.24
121.87     697.37
121.97     691.00
122.07     659.00
122.17     700.00
122.27     699.85
122.37     647.43
122.47     660.00
122.57     655.00
122.67     708.71
122.77     718.00
122.87     679.00
122.97     619.00
123.07     719.14
123.17     670.64
123.27     729.00
123.37     711.00
123.47     728.00
123.57     678.00
123.67     742.00
123.77     765.15
123.87     730.13
123.97     770.09
124.07     777.00
124.17     713.81
124.27     778.00
124.37     748.00
124.47     790.00
124.57     781.97
124.67     765.00
124.77     686.37
124.87     777.00
124.97     794.00
