  9.97     593.60
 10.07     622.00
 10.17     710.00
 10.27     675.25
 10.37     640.38
 10.47     671.81
 10.57     677.00
 10.67     672.00
 10.77     613.96
 10.87     664.75
 10.97     651.00
 11.07     694.00
 11.17     666.00
 11.27     676.00
 11.37     646.00
 11.47     736.00
 11.57     672.51
 11.67     621.13
 11.77     707.04
 11.87     698.12
 11.97     726.00
 12.07     770.00
 12.17     788.24
 12.27     793.00
 12.37     729.63
 12.47     745.00
 12.57     750.72
 12.67     678.44
 12.77     660.02
 12.87     698.89
 12.97     651.00
 13.07     650.00
 13.17     677.50
 13.27     648.00
 13.37     672.74
 13.47     597.00
 13.57     597.82
 13.67     612.00
 13.77     628.00
 13.87     622.00
 13.97     607.00
 14.07     617.00
 14.17     679.13
 14.27     660.37
 14.37     680.57
 14.47     621.00
 14.57     579.00
 14.67     634.00
 14.77     627.00
 14.87     633.36
 14.97     619.00
 15.07     617.13
 15.17     635.00
 15.27     585.21
 15.37     595.00
 15.47     608.00
 15.57     629.00
 15.67     605.00
 15.77     633.00
 15.87     655.00
 15.97     608.00
 16.07     599.76
 16.17     587.00
 16.27     603.49
 16.37     622.00
 16.47     622.41
 16.57     656.86
 16.67     642.00
 16.77     618.00
 16.87     632.00
 16.97     602.00
 17.07     581.64
 17.17     604.03
 17.27     609.00
 17.37     585.00
 17.47     602.57
 17.57     605.00
 17.67     611.00
 17.77     658.60
 17.87     593.00
 17.97     626.00
 18.07     645.00
 18.17     574.00
 18.27     583.00
 18.37     581.62
 18.47     587.00
 18.57     674.24
 18.67     609.00
 18.77     619.62
 18.87     597.09
 18.97     623.37
 19.07     608.00
 19.17     635.00
 19.27     636.00
 19.37     620.67
 19.47     602.36
 19.57     601.00
 19.67     618.00
 19.77     537.00
 19.87     610.00
 19.97     627.00
 20.07     585.00
 20.17     652.29
 20.27     634.00
 20.37     619.95
 20.47     595.00
 20.57     632.93
 20.67     587.00
 20.77     608.21
 20.87     583.00
 20.97     592.54
 21.07     612.00
 21.17     554.00
 21.27     556.00
 21.37     624.00
 21.47     600.45
 21.57     634.21
 21.67     644.84
 21.77     642.16
 21.87     594.31
 21.97     603.00
 22.07     606.00
 22.17     657.46
 22.27     593.00
 22.37     650.85
 22.47     575.00
 22.57     655.80
 22.67     635.74
 22.77     631.35
 22.87     595.00
 22.97     658.02
 23.07     641.00
 23.17     621.93
 23.27     654.00
 23.37     579.00
 23.47     562.75
 23.57     594.00
 23.67     620.00
 23.77     627.21
 23.87     590.81
 23.97     628.00
 24.07     651.00
 24.17     598.09
 24.27     647.00
 24.37     691.00
 24.47     608.00
 24.57     641.00
 24.67     713.00
 24.77     654.00
 24.87     740.59
 24.97     682.00
 25.07     682.00
 25.17     620.37
 25.27     702.00
 25.37     635.00
 25.47     656.00
 25.57     624.00
 25.67     654.78
 25.77     657.00
 25.87     650.00
 25.97     661.00
 26.07     642.00
 26.17     664.00
 26.27     578.26
 26.37     686.00
 26.47     693.00
 26.57     660.00
 26.67     665.15
 26.77     718.00
 26.87     684.00
 26.97     576.82
 27.07     626.07
 27.17     653.00
 27.27     598.70
 27.37     664.09
 27.47     728.00
 27.57     693.94
 27.67     731.00
 27.77     764.27
 27.87     860.00
 27.97    1011.50
 28.07    1347.90
 28.17    1669.00
 28.27    2189.00
 28.37    2488.00
 28.47    2351.60
 28.57    2183.00
 28.67    1687.00
 28.77    1420.00
 28.87    1588.88
 28.97    1609.77
 29.07    1709.99
 29.17    1668.00
 29.27    1458.46
 29.37    1181.56
 29.47     932.49
 29.57     813.69
 29.67     789.00
 29.77     780.00
 29.87     733.00
 29.97     633.24
 30.07     657.07
 30.17     719.00
 30.27     653.89
 30.37     585.03
 30.47     691.00
 30.57     666.00
 30.67     587.77
 30.77     601.18
 30.87     646.62
 30.97     698.00
 31.07     766.00
 31.17     741.00
 31.27     644.44
 31.37     653.00
 31.47     675.00
 31.57     664.00
 31.67     568.76
 31.77     635.00
 31.87     601.00
 31.97     624.00
 32.07     563.53
 32.17     539.02
 32.27     566.79
 32.37     630.00
 32.47     624.61
 32.57     572.00
 32.67     626.00
 32.77     614.00
 32.87     628.00
 32.97     575.68
 33.07     647.00
 33.17     587.00
 33.27     558.76
 33.37     636.00
 33.47     619.00
 33.57     633.00
 33.67     614.00
 33.77     694.00
 33.87     783.00
 33.97     904.00
 34.07    1018.00
 34.17    1159.00
 34.27    1060.00
 34.37    1050.03
 34.47     942.00
 34.57     802.87
 34.67     712.09
 34.77     653.00
 34.87     562.00
 34.97     597.00
 35.07     599.00
 35.17     636.00
 35.27     621.00
 35.37     540.01
 35.47     537.70
 35.57     615.32
 35.67     503.00
 35.77     537.84
 35.87     527.40
 35.97     590.00
 36.07     587.42
 36.17     539.00
 36.27     530.00
 36.37     568.61
 36.47     587.86
 36.57     568.73
 36.67     562.08
 36.77     549.10
 36.87     598.62
 36.97     537.00
 37.07     580.00
 37.17     537.00
 37.27     545.08
 37.37     559.00
 37.47     569.00
 37.57     545.00
 37.67     593.00
 37.77     572.00
 37.87     571.00
 37.97     611.00
 38.07     585.87
 38.17     608.13
 38.27     593.00
 38.37     580.00
 38.47     543.00
 38.57     563.17
 38.67     550.00
 38.77     518.00
 38.87     550.00
 38.97     543.00
 39.07     587.25
 39.17     570.00
 39.27     556.49
 39.37     593.43
 39.47     562.00
 39.57     586.32
 39.67     540.00
 39.77     568.00
 39.87     510.42
 39.97     554.00
 40.07     555.18
 40.17     530.93
 40.27     543.00
 40.37     508.00
 40.47     547.00
 40.57     566.54
 40.67     570.00
 40.77     541.00
 40.87     533.00
 40.97     576.35
 41.07     541.00
 41.17     587.38
 41.27     503.70
 41.37     519.00
 41.47     499.00
 41.57     531.10
 41.67     483.00
 41.77     536.00
 41.87     584.97
 41.97     552.00
 42.07     575.29
 42.17     509.00
 42.27     499.00
 42.37     580.00
 42.47     548.51
 42.57     573.01
 42.67     569.00
 42.77     666.00
 42.87     663.36
 42.97     594.00
 43.07     625.14
 43.17     596.00
 43.27     576.76
 43.37     567.00
 43.47     603.36
 43.57     546.00
 43.67     543.00
 43.77     592.00
 43.87     541.00
 43.97     573.00
 44.07     573.00
 44.17     517.77
 44.27     587.73
 44.37     582.58
 44.47     580.61
 44.57     568.11
 44.67     503.00
 44.77     584.82
 44.87     557.00
 44.97     526.90
 45.07     542.00
 45.17     566.00
 45.27     559.00
 45.37     576.00
 45.47     534.00
 45.57     557.00
 45.67     538.00
 45.77     541.00
 45.87     576.87
 45.97     524.97
 46.07     570.00
 46.17     534.00
 46.27     527.35
 46.37     565.00
 46.47     536.04
 46.57     541.00
 46.67     535.00
 46.77     513.96
 46.87     548.00
 46.97     528.00
 47.07     583.00
 47.17     525.13
 47.27     592.45
 47.37     558.00
 47.47     529.18
 47.57     576.00
 47.67     584.00
 47.77     609.00
 47.87     641.35
 47.97     605.00
 48.07     631.72
 48.17     663.00
 48.27     644.00
 48.37     643.30
 48.47     633.00
 48.57     617.00
 48.67     552.02
 48.77     597.00
 48.87     608.89
 48.97     609.63
 49.07     586.00
 49.17     587.00
 49.27     615.00
 49.37     601.06
 49.47     621.46
 49.57     640.00
 49.67     699.00
 49.77     797.12
 49.87     863.00
 49.97    1164.22
 50.07    1406.00
 50.17    1787.99
 50.27    2274.00
 50.37    2418.00
 50.47    2594.75
 50.57    2444.00
 50.67    2135.94
 50.77    1648.00
 50.87    1388.22
 50.97    1001.00
 51.07     896.77
 51.17     789.00
 51.27     729.00
 51.37     669.00
 51.47     716.94
 51.57     656.00
 51.67     671.00
 51.77     583.68
 51.87     630.57
 51.97     662.23
 52.07     648.11
 52.17     636.90
 52.27     669.00
 52.37     565.39
 52.47     628.30
 52.57     556.00
 52.67     668.00
 52.77     624.22
 52.87     619.00
 52.97     613.00
 53.07     640.00
 53.17     756.00
 53.27     817.00
 53.37     848.86
 53.47    1012.00
 53.57    1108.00
 53.67    1196.00
 53.77    1235.00
 53.87    1197.36
 53.97    1234.42
 54.07    1089.93
 54.17    1009.00
 54.27     822.00
 54.37     752.00
 54.47     720.71
 54.57     644.00
 54.67     643.00
 54.77     577.48
 54.87     640.00
 54.97     615.00
 55.07     608.00
 55.17     648.76
 55.27     611.00
 55.37     571.00
 55.47     569.01
 55.57     658.00
 55.67     609.00
 55.77     592.00
 55.87     600.00
 55.97     621.00
 56.07     673.00
 56.17     720.90
 56.27     745.00
 56.37     804.00
 56.47     899.00
 56.57    1040.00
 56.67    1298.74
 56.77    1656.00
 56.87    1993.00
 56.97    2396.00
 57.07    2425.00
 57.17    2620.00
 57.27    2393.09
 57.37    2296.00
 57.47    1966.00
 57.57    1574.00
 57.67    1411.09
 57.77    1159.72
 57.87    1011.12
 57.97     842.00
 58.07     787.36
 58.17     725.00
 58.27     779.00
 58.37     770.00
 58.47     802.00
 58.57     866.49
 58.67     859.00
 58.77     944.70
 58.87     969.90
 58.97    1068.00
 59.07    1156.20
 59.17    1259.00
 59.27    1293.00
 59.37    1188.02
 59.47    1255.00
 59.57    1248.00
 59.67    1240.79
 59.77    1201.00
 59.87    1114.00
 59.97    1199.00
 60.07    1307.00
 60.17    1343.00
 60.27    1394.11
 60.37    1489.00
 60.47    1593.29
 60.57    1539.00
 60.67    1566.00
 60.77    1435.00
 60.87    1197.38
 60.97    1084.84
 61.07    1052.00
 61.17     924.00
 61.27     816.00
 61.37     716.80
 61.47     683.50
 61.57     756.00
 61.67     766.75
 61.77     822.00
 61.87     862.00
 61.97     944.01
 62.07    1059.00
 62.17    1133.00
 62.27    1354.62
 62.37    1335.00
 62.47    1500.54
 62.57    1380.00
 62.67    1303.00
 62.77    1226.00
 62.87    1121.00
 62.97     940.00
 63.07     877.00
 63.17     770.00
 63.27     706.00
 63.37     728.67
 63.47     682.00
 63.57     637.00
 63.67     658.00
 63.77     657.00
 63.87     591.12
 63.97     684.00
 64.07     644.00
 64.17     739.00
 64.27     760.46
 64.37     795.00
 64.47     875.00
 64.57     919.00
 64.67     966.00
 64.77    1081.00
 64.87    1189.00
 64.97    1253.00
 65.07    1198.40
 65.17    1184.00
 65.27    1161.00
 65.37    1006.00
 65.47     895.00
 65.57     837.00
 65.67     831.00
 65.77     740.00
 65.87     674.00
 65.97     690.00
 66.07     631.00
 66.17     658.13
 66.27     653.00
 66.37     630.00
 66.47     595.00
 66.57     590.00
 66.67     592.00
 66.77     601.00
 66.87     663.00
 66.97     664.00
 67.07     671.00
 67.17     635.00
 67.27     710.07
 67.37     738.00
 67.47     817.97
 67.57     930.38
 67.67     918.00
 67.77    1153.43
 67.87    1386.01
 67.97    1534.00
 68.07    1792.00
 68.17    2000.00
 68.27    2310.85
 68.37    2312.00
 68.47    2353.56
 68.57    2327.00
 68.67    2229.81
 68.77    2003.00
 68.87    1729.00
 68.97    1509.00
 69.07    1377.19
 69.17    1098.00
 69.27     922.00
 69.37     892.00
 69.47     836.61
 69.57     755.00
 69.67     724.00
 69.77     711.00
 69.87     622.00
 69.97     635.00
 70.07     649.00
 70.17     637.24
 70.27     600.10
 70.37     594.00
 70.47     600.00
 70.57     605.00
 70.67     653.69
 70.77     645.00
 70.87     621.00
 70.97     613.00
 71.07     681.00
 71.17     711.89
 71.27     714.00
 71.37     773.17
 71.47     789.00
 71.57     814.00
 71.67     945.00
 71.77    1066.00
 71.87    1207.00
 71.97    1307.31
 72.07    1472.04
 72.17    1732.00
 72.27    1798.43
 72.37    1903.00
 72.47    1863.00
 72.57    1897.00
 72.67    1692.11
 72.77    1554.66
 72.87    1475.29
 72.97    1298.00
 73.07    1169.00
 73.17     927.23
 73.27     902.72
 73.37     855.10
 73.47     771.00
 73.57     723.00
 73.67     713.40
 73.77     668.00
 73.87     605.00
 73.97     640.00
 74.07     561.82
 74.17     641.00
 74.27     638.51
 74.37     637.60
 74.47     605.98
 74.57     583.64
 74.67     644.00
 74.77     658.00
 74.87     647.07
 74.97     652.36
 75.07     645.09
 75.17     658.34
 75.27     587.24
 75.37     678.00
 75.47     672.00
 75.57     556.90
 75.67     635.33
 75.77     600.88
 75.87     547.54
 75.97     621.00
 76.07     632.00
 76.17     629.82
 76.27     691.76
 76.37     609.68
 76.47     735.00
 76.57     743.00
 76.67     759.00
 76.77     716.64
 76.87     784.00
 76.97     801.00
 77.07     811.00
 77.17     805.00
 77.27     729.00
 77.37     735.00
 77.47     664.00
 77.57     719.56
 77.67     696.65
 77.77     631.00
 77.87     665.85
 77.97     626.78
 78.07     579.00
 78.17     535.22
 78.27     593.82
 78.37     560.00
 78.47     581.00
 78.57     594.00
 78.67     549.00
 78.77     552.34
 78.87     530.41
 78.97     546.09
 79.07     566.00
 79.17     585.00
 79.27     534.93
 79.37     542.00
 79.47     552.89
 79.57     587.00
 79.67     571.00
 79.77     570.00
 79.87     585.00
 79.97     568.00
 80.07     540.00
 80.17     603.34
 80.27     604.00
 80.37     583.00
 80.47     606.35
 80.57     662.37
 80.67     671.00
 80.77     635.00
 80.87     702.00
 80.97     744.00
 81.07     727.31
 81.17     758.59
 81.27     838.12
 81.37     915.00
 81.47     828.00
 81.57     866.00
 81.67     931.00
 81.77     926.65
 81.87     911.67
 81.97     942.91
 82.07     866.75
 82.17     826.00
 82.27     777.00
 82.37     839.00
 82.47     788.35
 82.57     728.00
 82.67     758.71
 82.77     678.00
 82.87     721.21
 82.97     643.00
 83.07     663.03
 83.17     590.00
 83.27     594.45
 83.37     614.00
 83.47     573.00
 83.57     556.00
 83.67     588.00
 83.77     625.00
 83.87     587.00
 83.97     544.00
 84.07     589.00
 84.17     579.00
 84.27     635.99
 84.37     592.91
 84.47     606.00
 84.57     607.00
 84.67     590.00
 84.77     634.84
 84.87     533.00
 84.97     555.02
 85.07     586.00
 85.17     581.00
 85.27     559.00
 85.37     585.00
 85.47     573.00
 85.57     521.90
 85.67     597.16
 85.77     603.00
 85.87     558.00
 85.97     563.35
 86.07     562.00
 86.17     553.00
 86.27     559.00
 86.37     542.00
 86.47     615.00
 86.57     588.00
 86.67     578.00
 86.77     578.86
 86.87     589.00
 86.97     613.00
 87.07     619.40
 87.17     637.29
 87.27     584.00
 87.37     659.00
 87.47     647.00
 87.57     655.00
 87.67     617.00
 87.77     645.26
 87.87     708.00
 87.97     647.03
 88.07     670.93
 88.17     701.21
 88.27     659.00
 88.37     627.00
 88.47     642.16
 88.57     615.00
 88.67     639.00
 88.77     587.14
 88.87     664.46
 88.97     635.41
 89.07     598.00
 89.17     610.00
 89.27     569.00
 89.37     638.00
 89.47     628.00
 89.57     648.00
 89.67     621.00
 89.77     680.00
 89.87     629.00
 89.97     637.00
 90.07     630.00
 90.17     666.00
 90.27     625.48
 90.37     594.00
 90.47     542.00
 90.57     590.00
 90.67     575.00
 90.77     572.00
 90.87     507.00
 90.97     574.00
 91.07     598.00
 91.17     529.00
 91.27     559.00
 91.37     531.06
 91.47     576.00
 91.57     532.00
 91.67     515.00
 91.77     581.37
 91.87     546.00
 91.97     540.00
 92.07     554.00
 92.17     603.72
 92.27     542.00
 92.37     618.58
 92.47     583.03
 92.57     584.00
 92.67     623.00
 92.77     644.43
 92.87     573.71
 92.97     637.00
 93.07     657.97
 93.17     666.00
 93.27     723.31
 93.37     745.22
 93.47     757.96
 93.57     754.00
 93.67     710.00
 93.77     795.63
 93.87     735.00
 93.97     814.07
 94.07     782.00
 94.17     851.00
 94.27     821.00
 94.37     919.53
 94.47     842.00
 94.57     843.91
 94.67     954.05
 94.77     914.00
 94.87     941.17
 94.97     965.86
 95.07     967.00
 95.17     963.00
 95.27     941.00
 95.37     941.00
 95.47     934.14
 95.57     911.00
 95.67     949.00
 95.77     887.00
 95.87     859.23
 95.97     814.61
 96.07     789.28
 96.17     810.00
 96.27     748.00
 96.37     699.02
 96.47     712.00
 96.57     721.89
 96.67     788.80
 96.77     834.00
 96.87     867.04
 96.97     866.00
 97.07     937.00
 97.17     937.00
 97.27     996.00
 97.37    1117.00
 97.47    1175.00
 97.57    1280.00
 97.67    1284.19
 97.77    1421.00
 97.87    1413.00
 97.97    1502.00
 98.07    1435.18
 98.17    1451.63
 98.27    1553.22
 98.37    1523.19
 98.47    1476.11
 98.57    1452.00
 98.67    1256.00
 98.77    1252.00
 98.87    1220.00
 98.97    1096.00
 99.07    1012.00
 99.17     965.00
 99.27     957.07
 99.37     976.00
 99.47    1000.71
 99.57     947.92
 99.67     936.00
 99.77     937.00
 99.87     977.00
 99.97    1003.00
100.07    1093.00
100.17    1200.13
100.27    1257.00
100.37    1271.15
100.47    1416.00
100.57    1567.10
100.67    1649.00
100.77    1748.82
100.87    1789.00
100.97    1934.00
101.07    1890.72
101.17    1968.00
101.27    2080.00
101.37    2108.24
101.47    2025.00
101.57    2046.74
101.67    1998.00
101.77    1928.56
101.87    1883.00
101.97    1755.00
102.07    1714.00
102.17    1574.00
102.27    1542.00
102.37    1502.84
102.47    1459.00
102.57    1384.24
102.67    1273.73
102.77    1245.00
102.87    1230.00
102.97    1266.90
103.07    1157.43
103.17    1120.74
103.27    1162.95
103.37    1132.00
103.47    1044.00
103.57    1004.00
103.67    1012.00
103.77     984.00
103.87     949.00
103.97     909.00
104.07     904.00
104.17     750.00
104.27     804.00
104.37     781.00
104.47     749.00
104.57     757.00
104.67     691.00
104.77     655.00
104.87     679.33
104.97     601.24
105.07     634.46
105.17     546.96
105.27     606.00
105.37     622.00
105.47     601.84
105.57     529.36
105.67     566.00
105.77     590.00
105.87     621.00
105.97     571.00
106.07     607.00
106.17     576.77
106.27     563.99
106.37     621.20
106.47     599.00
106.57     597.00
106.67     613.20
106.77     629.65
106.87     586.67
106.97     641.00
107.07     652.00
107.17     630.00
107.27     633.00
107.37     688.02
107.47     679.00
107.57     716.93
107.67     684.00
107.77     721.00
107.87     706.00
107.97     763.00
108.07     743.00
108.17     694.13
108.27     693.13
108.37     727.00
108.47     730.60
108.57     706.00
108.67     693.00
108.77     748.00
108.87     756.00
108.97     743.06
109.07     721.00
109.17     688.00
109.27     712.00
109.37     722.70
109.47     689.00
109.57     772.00
109.67     749.00
109.77     724.00
109.87     707.00
109.97     745.99
110.07     649.00
110.17     689.00
110.27     680.00
110.37     731.00
110.47     689.20
110.57     687.79
110.67     626.00
110.77     644.00
110.87     581.00
110.97     645.00
111.07     625.53
111.17     601.00
111.27     584.00
111.37     579.00
111.47     528.12
111.57     522.64
111.67     574.00
111.77     583.00
111.87     563.06
111.97     598.00
112.07     565.00
112.17     578.00
112.27     544.82
112.37     537.51
112.47     573.00
112.57     557.00
112.67     529.00
112.77     591.00
112.87     595.00
112.97     598.47
113.07     636.00
113.17     570.13
113.27     592.67
113.37     567.00
113.47     606.00
113.57     571.83
113.67     567.00
113.77     627.00
113.87     623.00
113.97     634.00
114.07     671.00
114.17     648.90
114.27     662.00
114.37     693.93
114.47     713.00
114.57     784.31
114.67     848.66
114.77     838.00
114.87     912.21
114.97    1009.99
115.07    1039.09
115.17    1251.42
115.27    1310.00
115.37    1521.00
115.47    1658.00
115.57    1846.00
115.67    2135.00
115.77    2389.00
115.87    2585.61
115.97    2847.65
116.07    3103.00
116.17    3495.39
116.27    3914.00
116.37    4274.23
116.47    4619.00
116.57    4996.74
116.67    5451.00
116.77    5572.34
116.87    5938.61
116.97    6379.00
117.07    6592.54
117.17    6858.00
117.27    6980.00
117.37    7135.92
117.47    7097.02
117.57    7267.53
117.67    7091.00
117.77    6900.00
117.87    6665.00
117.97    6096.00
118.07    5819.00
118.17    5661.00
118.27    5354.00
118.37    4987.00
118.47    4562.00
118.57    4467.00
118.67    3858.54
118.77    3649.47
118.87    3280.70
118.97    2985.00
119.07    2548.66
119.17    2364.00
119.27    2221.23
119.37    2015.43
119.47    1772.00
119.57    1533.00
119.67    1411.00
119.77    1351.00
119.87    1225.00
119.97    1060.94
120.07    1050.00
120.17     951.18
120.27     866.55
120.37     898.00
120.47     880.00
120.57     805.00
120.67     740.42
120.77     744.40
120.87     722.00
120.97     700.98
121.07     657.00
121.17     663.00
121.27     636.00
121.37     694.00
121.47     620.30
121.57     640.00
121.67     661.00
121.77     683.72
121.87     600.00
121.97     668.03
122.07     609.76
122.17     685.37
122.27     641.00
122.37     668.00
122.47     628.00
122.57     596.00
122.67     650.00
122.77     624.00
122.87     617.60
122.97     599.00
123.07     665.00
123.17     646.00
123.27     725.66
123.37     649.00
123.47     732.94
123.57     684.00
123.67     696.00
123.77     711.00
123.87     726.00
123.97     640.84
124.07     746.00
124.17     700.00
124.27     673.15
124.37     727.00
124.47     707.00
124.57     701.00
124.67     654.44
124.77     617.00
124.87     678.27
124.97     673.00
