  9.97     598.00
 10.07     588.00
 10.17     637.00
 10.27     626.00
 10.37     617.00
 10.47     575.00
 10.57     617.00
 10.67     583.00
 10.77     590.09
 10.87     596.00
 10.97     574.01
 11.07     588.00
 11.17     586.00
 11.27     550.00
 11.37     585.00
 11.47     560.00
 11.57     647.00
 11.67     639.00
 11.77     619.81
 11.87     603.02
 11.97     685.00
 12.07     653.93
 12.17     743.45
 12.27     658.00
 12.37     671.05
 12.47     621.00
 12.57     597.00
 12.67     565.29
 12.77     603.00
 12.87     580.00
 12.97     592.00
 13.07     574.00
 13.17     554.00
 13.27     600.00
 13.37     596.88
 13.47     556.47
 13.57     550.02
 13.67     577.00
 13.77     586.30
 13.87     527.65
 13.97     551.00
 14.07     571.00
 14.17     549.10
 14.27     596.11
 14.37     551.00
 14.47     580.11
 14.57     536.00
 14.67     560.00
 14.77     617.00
 14.87     564.00
 14.97     535.00
 15.07     547.00
 15.17     582.00
 15.27     577.00
 15.37     548.00
 15.47     556.00
 15.57     573.00
 15.67     558.00
 15.77     589.57
 15.87     551.00
 15.97     576.00
 16.07     551.00
 16.17     585.00
 16.27     567.00
 16.37     549.00
 16.47     575.00
 16.57     569.00
 16.67     521.00
 16.77     605.64
 16.87     581.00
 16.97     552.00
 17.07     572.00
 17.17     554.59
 17.27     520.00
 17.37     569.00
 17.47     588.00
 17.57     544.00
 17.67     581.00
 17.77     601.87
 17.87     612.65
 17.97     558.00
 18.07     521.33
 18.17     539.90
 18.27     563.00
 18.37     571.00
 18.47     580.00
 18.57     577.25
 18.67     616.00
 18.77     588.00
 18.87     561.89
 18.97     547.00
 19.07     506.00
 19.17     546.00
 19.27     533.00
 19.37     544.00
 19.47     606.21
 19.57     535.00
 19.67     526.25
 19.77     600.13
 19.87     556.00
 19.97     521.00
 20.07     605.23
 20.17     541.06
 20.27     548.00
 20.37     579.58
 20.47     539.00
 20.57     576.02
 20.67     547.00
 20.77     563.00
 20.87     547.00
 20.97     518.00
 21.07     554.92
 21.17     559.44
 21.27     522.27
 21.37     542.00
 21.47     527.00
 21.57     539.00
 21.67     550.96
 21.77     544.00
 21.87     531.18
 21.97     542.72
 22.07     555.00
 22.17     527.00
 22.27     543.00
 22.37     578.00
 22.47     549.00
 22.57     572.96
 22.67     559.00
 22.77     553.00
 22.87     573.00
 22.97     551.00
 23.07     586.51
 23.17     573.00
 23.27     533.00
 23.37     570.29
 23.47     543.00
 23.57     575.00
 23.67     528.85
 23.77     521.00
 23.87     589.02
 23.97     553.48
 24.07     539.00
 24.17     579.00
 24.27     564.00
 24.37     521.25
 24.47     580.00
 24.57     569.00
 24.67     596.72
 24.77     610.00
 24.87     628.00
 24.97     605.00
 25.07     590.00
 25.17     578.00
 25.27     598.00
 25.37     544.00
 25.47     572.00
 25.57     559.00
 25.67     542.00
 25.77     545.00
 25.87     566.00
 25.97     549.00
 26.07     576.00
 26.17     569.00
 26.27     520.90
 26.37     553.00
 26.47     536.00
 26.57     505.00
 26.67     549.00
 26.77     575.00
 26.87     566.62
 26.97     563.00
 27.07     510.00
 27.17     538.00
 27.27     542.00
 27.37     583.21
 27.47     522.84
 27.57     571.00
 27.67     553.00
 27.77     572.00
 27.87     618.00
 27.97     685.00
 28.07     740.30
 28.17     848.00
 28.27     949.00
 28.37     960.71
 28.47     806.00
 28.57     712.18
 28.67     742.19
 28.77     727.00
 28.87     845.15
 28.97     833.00
 29.07     763.00
 29.17     774.58
 29.27     634.00
 29.37     610.00
 29.47     634.00
 29.57     608.00
 29.67     604.00
 29.77     562.50
 29.87     570.00
 29.97     578.54
 30.07     544.62
 30.17     574.00
 30.27     564.00
 30.37     555.00
 30.47     550.00
 30.57     520.00
 30.67     573.00
 30.77     573.00
 30.87     584.66
 30.97     572.76
 31.07     571.66
 31.17     606.13
 31.27     572.00
 31.37     519.00
 31.47     546.00
 31.57     495.01
 31.67     586.00
 31.77     531.00
 31.87     526.00
 31.97     522.00
 32.07     548.27
 32.17     489.94
 32.27     562.11
 32.37     520.50
 32.47     503.00
 32.57     530.80
 32.67     519.00
 32.77     535.00
 32.87     544.00
 32.97     502.00
 33.07     573.80
 33.17     514.76
 33.27     509.00
 33.37     563.00
 33.47     533.00
 33.57     568.41
 33.67     675.00
 33.77     741.00
 33.87     878.00
 33.97     947.33
 34.07    1155.00
 34.17    1010.32
 34.27     924.00
 34.37     709.00
 34.47     627.69
 34.57     588.41
 34.67     574.00
 34.77     525.00
 34.87     576.00
 34.97     498.92
 35.07     516.00
 35.17     507.00
 35.27     535.00
 35.37     508.58
 35.47     511.00
 35.57     550.52
 35.67     489.90
 35.77     463.00
 35.87     554.00
 35.97     537.73
 36.07     495.27
 36.17     502.00
 36.27     529.00
 36.37     506.00
 36.47     546.90
 36.57     483.63
 36.67     481.03
 36.77     543.00
 36.87     494.00
 36.97     491.00
 37.07     529.00
 37.17     490.00
 37.27     517.00
 37.37     514.00
 37.47     488.70
 37.57     487.00
 37.67     511.00
 37.77     558.00
 37.87     504.67
 37.97     547.41
 38.07     510.19
 38.17     506.00
 38.27     518.40
 38.37     556.58
 38.47     495.62
 38.57     481.00
 38.67     544.00
 38.77     526.00
 38.87     508.00
 38.97     511.98
 39.07     510.38
 39.17     509.00
 39.27     522.00
 39.37     551.23
 39.47     497.00
 39.57     487.54
 39.67     491.00
 39.77     464.00
 39.87     508.00
 39.97     530.00
 40.07     494.00
 40.17     512.00
 40.27     512.00
 40.37     502.00
 40.47     526.53
 40.57     466.03
 40.67     488.00
 40.77     497.79
 40.87     504.00
 40.97     492.00
 41.07     513.00
 41.17     519.00
 41.27     483.00
 41.37     495.00
 41.47     536.00
 41.57     548.97
 41.67     524.27
 41.77     492.00
 41.87     487.52
 41.97     547.28
 42.07     519.00
 42.17     532.00
 42.27     526.00
 42.37     546.00
 42.47     566.00
 42.57     605.44
 42.67     619.00
 42.77     591.66
 42.87     587.76
 42.97     576.00
 43.07     548.00
 43.17     515.00
 43.27     509.00
 43.37     481.83
 43.47     554.28
 43.57     552.68
 43.67     471.00
 43.77     488.00
 43.87     544.75
 43.97     480.00
 44.07     548.16
 44.17     486.00
 44.27     514.00
 44.37     508.00
 44.47     545.00
 44.57     461.53
 44.67     491.34
 44.77     481.00
 44.87     544.74
 44.97     493.00
 45.07     471.84
 45.17     483.91
 45.27     506.00
 45.37     516.75
 45.47     477.44
 45.57     462.00
 45.67     496.00
 45.77     522.97
 45.87     542.00
 45.97     532.00
 46.07     536.46
 46.17     543.00
 46.27     499.00
 46.37     462.75
 46.47     460.00
 46.57     492.57
 46.67     507.00
 46.77     558.00
 46.87     495.00
 46.97     494.00
 47.07     496.00
 47.17     502.30
 47.27     558.00
 47.37     514.00
 47.47     576.00
 47.57     584.21
 47.67     583.16
 47.77     654.00
 47.87     594.00
 47.97     613.36
 48.07     619.54
 48.17     546.00
 48.27     562.00
 48.37     559.00
 48.47     518.87
 48.57     541.75
 48.67     514.00
 48.77     538.00
 48.87     560.00
 48.97     592.92
 49.07     549.00
 49.17     575.44
 49.27     587.00
 49.37     660.00
 49.47     768.00
 49.57     800.00
 49.67     922.00
 49.77    1180.00
 49.87    1494.00
 49.97    1909.00
 50.07    2254.90
 50.17    2561.99
 50.27    2553.19
 50.37    2301.00
 50.47    1859.10
 50.57    1392.00
 50.67    1069.48
 50.77     845.00
 50.87     751.00
 50.97     696.00
 51.07     670.06
 51.17     586.63
 51.27     585.13
 51.37     552.00
 51.47     568.00
 51.57     559.00
 51.67     589.00
 51.77     569.00
 51.87     517.00
 51.97     555.00
 52.07     502.24
 52.17     544.00
 52.27     574.00
 52.37     568.00
 52.47     555.00
 52.57     560.39
 52.67     559.00
 52.77     595.00
 52.87     640.00
 52.97     710.00
 53.07     808.26
 53.17     964.33
 53.27    1042.00
 53.37    1134.00
 53.47    1161.51
 53.57    1136.00
 53.67    1141.00
 53.77    1033.66
 53.87     907.00
 53.97     764.72
 54.07     657.00
 54.17     652.76
 54.27     607.00
 54.37     558.30
 54.47     554.34
 54.57     548.96
 54.67     574.97
 54.77     615.00
 54.87     570.00
 54.97     546.00
 55.07     516.00
 55.17     523.00
 55.27     517.04
 55.37     567.00
 55.47     584.00
 55.57     568.56
 55.67     536.00
 55.77     617.24
 55.87     612.00
 55.97     554.00
 56.07     719.33
 56.17     728.00
 56.27     910.00
 56.37    1103.72
 56.47    1346.00
 56.57    1757.00
 56.67    2252.70
 56.77    2503.00
 56.87    2611.00
 56.97    2589.02
 57.07    2341.22
 57.17    2082.00
 57.27    1672.00
 57.37    1238.00
 57.47    1044.45
 57.57     864.29
 57.67     764.00
 57.77     712.00
 57.87     701.00
 57.97     689.00
 58.07     677.00
 58.17     683.00
 58.27     842.00
 58.37     856.00
 58.47    1032.30
 58.57    1033.00
 58.67    1204.79
 58.77    1369.00
 58.87    1585.00
 58.97    1540.96
 59.07    1619.00
 59.17    1472.99
 59.27    1406.00
 59.37    1384.00
 59.47    1234.00
 59.57    1209.00
 59.67    1118.00
 59.77    1133.00
 59.87    1225.00
 59.97    1355.00
 60.07    1398.53
 60.17    1591.00
 60.27    1536.62
 60.37    1508.11
 60.47    1434.00
 60.57    1279.00
 60.67    1066.65
 60.77     881.73
 60.87     834.07
 60.97     670.24
 61.07     679.00
 61.17     582.35
 61.27     667.54
 61.37     709.00
 61.47     664.00
 61.57     716.89
 61.67     850.00
 61.77     966.00
 61.87    1032.00
 61.97    1187.00
 62.07    1364.02
 62.17    1396.32
 62.27    1438.00
 62.37    1329.00
 62.47    1250.89
 62.57    1012.02
 62.67     882.36
 62.77     781.00
 62.87     674.00
 62.97     612.00
 63.07     588.00
 63.17     598.00
 63.27     559.00
 63.37     608.17
 63.47     548.00
 63.57     549.00
 63.67     563.00
 63.77     570.00
 63.87     634.48
 63.97     622.00
 64.07     743.00
 64.17     786.00
 64.27     865.00
 64.37     891.24
 64.47     960.00
 64.57    1026.32
 64.67    1019.00
 64.77     992.60
 64.87     956.00
 64.97     911.57
 65.07     903.00
 65.17     831.49
 65.27     763.00
 65.37     699.00
 65.47     647.00
 65.57     594.96
 65.67     590.00
 65.77     568.39
 65.87     556.00
 65.97     586.00
 66.07     589.45
 66.17     555.00
 66.27     605.26
 66.37     585.00
 66.47     587.94
 66.57     572.00
 66.67     590.30
 66.77     548.00
 66.87     591.00
 66.97     649.04
 67.07     677.00
 67.17     712.31
 67.27     811.95
 67.37     890.00
 67.47    1002.96
 67.57    1258.00
 67.67    1508.00
 67.77    1734.00
 67.87    2078.00
 67.97    2275.00
 68.07    2495.08
 68.17    2353.63
 68.27    2298.00
 68.37    2133.56
 68.47    1868.00
 68.57    1532.00
 68.67    1207.55
 68.77    1089.00
 68.87     899.63
 68.97     757.00
 69.07     745.00
 69.17     672.48
 69.27     628.00
 69.37     625.00
 69.47     610.00
 69.57     617.00
 69.67     589.67
 69.77     596.00
 69.87     539.00
 69.97     512.75
 70.07     520.00
 70.17     608.00
 70.27     538.75
 70.37     554.00
 70.47     550.00
 70.57     570.00
 70.67     574.00
 70.77     602.00
 70.87     637.80
 70.97     599.00
 71.07     691.53
 71.17     783.08
 71.27     819.00
 71.37     913.00
 71.47    1060.00
 71.57    1253.00
 71.67    1381.65
 71.77    1627.00
 71.87    1713.34
 71.97    1963.00
 72.07    2002.00
 72.17    1945.93
 72.27    1773.00
 72.37    1674.00
 72.47    1527.00
 72.57    1316.26
 72.67    1182.65
 72.77    1093.12
 72.87     973.00
 72.97     810.00
 73.07     821.60
 73.17     785.00
 73.27     781.29
 73.37     697.55
 73.47     690.98
 73.57     581.00
 73.67     557.00
 73.77     626.67
 73.87     581.12
 73.97     554.00
 74.07     592.83
 74.17     597.00
 74.27     582.65
 74.37     593.00
 74.47     555.83
 74.57     543.17
 74.67     636.00
 74.77     613.66
 74.87     613.06
 74.97     623.00
 75.07     548.30
 75.17     551.42
 75.27     539.52
 75.37     589.00
 75.47     570.00
 75.57     531.00
 75.67     561.00
 75.77     591.00
 75.87     611.47
 75.97     562.26
 76.07     591.00
 76.17     659.00
 76.27     657.00
 76.37     660.06
 76.47     772.00
 76.57     740.00
 76.67     690.00
 76.77     735.20
 76.87     648.00
 76.97     638.00
 77.07     659.00
 77.17     590.00
 77.27     599.64
 77.37     496.00
 77.47     550.00
 77.57     529.00
 77.67     509.93
 77.77     542.00
 77.87     560.53
 77.97     572.36
 78.07     533.26
 78.17     556.77
 78.27     506.00
 78.37     531.81
 78.47     524.00
 78.57     555.00
 78.67     537.00
 78.77     492.00
 78.87     544.00
 78.97     536.00
 79.07     575.00
 79.17     481.00
 79.27     500.00
 79.37     527.00
 79.47     500.53
 79.57     527.00
 79.67     552.92
 79.77     500.00
 79.87     534.33
 79.97     492.00
 80.07     561.96
 80.17     569.00
 80.27     545.00
 80.37     581.00
 80.47     597.10
 80.57     620.00
 80.67     620.34
 80.77     641.00
 80.87     672.11
 80.97     678.00
 81.07     705.66
 81.17     709.62
 81.27     720.30
 81.37     791.00
 81.47     763.00
 81.57     788.00
 81.67     776.00
 81.77     758.00
 81.87     760.00
 81.97     697.00
 82.07     701.42
 82.17     612.00
 82.27     627.00
 82.37     588.00
 82.47     596.00
 82.57     563.15
 82.67     579.00
 82.77     526.05
 82.87     547.00
 82.97     600.83
 83.07     577.46
 83.17     548.00
 83.27     561.89
 83.37     601.73
 83.47     513.96
 83.57     528.00
 83.67     637.00
 83.77     618.38
 83.87     618.04
 83.97     579.39
 84.07     594.00
 84.17     582.54
 84.27     580.44
 84.37     579.07
 84.47     546.29
 84.57     556.00
 84.67     555.00
 84.77     502.33
 84.87     551.00
 84.97     527.00
 85.07     527.39
 85.17     547.00
 85.27     545.00
 85.37     514.00
 85.47     509.00
 85.57     521.00
 85.67     550.00
 85.77     524.00
 85.87     493.00
 85.97     544.80
 86.07     570.41
 86.17     548.00
 86.27     517.00
 86.37     514.06
 86.47     529.00
 86.57     556.59
 86.67     559.00
 86.77     589.38
 86.87     574.37
 86.97     585.00
 87.07     630.00
 87.17     639.62
 87.27     641.00
 87.37     654.05
 87.47     618.85
 87.57     632.00
 87.67     579.30
 87.77     583.36
 87.87     641.00
 87.97     590.73
 88.07     592.00
 88.17     619.53
 88.27     603.00
 88.37     578.00
 88.47     600.00
 88.57     519.54
 88.67     574.00
 88.77     567.00
 88.87     621.00
 88.97     598.00
 89.07     564.56
 89.17     575.00
 89.27     589.00
 89.37     602.00
 89.47     591.77
 89.57     578.00
 89.67     586.00
 89.77     593.00
 89.87     599.12
 89.97     512.00
 90.07     611.00
 90.17     492.00
 90.27     572.00
 90.37     559.18
 90.47     556.23
 90.57     495.31
 90.67     562.53
 90.77     550.60
 90.87     512.15
 90.97     516.00
 91.07     563.06
 91.17     509.00
 91.27     505.25
 91.37     547.32
 91.47     527.00
 91.57     518.00
 91.67     506.08
 91.77     542.00
 91.87     587.86
 91.97     513.43
 92.07     604.22
 92.17     563.01
 92.27     607.00
 92.37     569.00
 92.47     670.41
 92.57     603.00
 92.67     663.58
 92.77     680.00
 92.87     729.00
 92.97     769.49
 93.07     742.00
 93.17     790.00
 93.27     770.00
 93.37     833.72
 93.47     862.00
 93.57     829.00
 93.67     855.93
 93.77     861.37
 93.87     893.00
 93.97     859.00
 94.07     805.00
 94.17     865.00
 94.27     906.71
 94.37     815.29
 94.47     897.00
 94.57     848.68
 94.67     935.00
 94.77     953.23
 94.87     887.00
 94.97     927.00
 95.07     905.46
 95.17     849.00
 95.27     792.16
 95.37     773.00
 95.47     714.21
 95.57     777.00
 95.67     705.00
 95.77     680.26
 95.87     694.24
 95.97     687.00
 96.07     703.00
 96.17     734.00
 96.27     755.00
 96.37     730.00
 96.47     814.00
 96.57     883.01
 96.67     914.00
 96.77     979.00
 96.87    1089.19
 96.97    1198.62
 97.07    1268.57
 97.17    1263.00
 97.27    1394.00
 97.37    1387.00
 97.47    1423.29
 97.57    1408.00
 97.67    1368.36
 97.77    1433.00
 97.87    1338.88
 97.97    1253.73
 98.07    1200.00
 98.17    1136.00
 98.27    1074.00
 98.37    1011.00
 98.47     975.00
 98.57     918.00
 98.67     831.00
 98.77     858.43
 98.87     835.00
 98.97     801.00
 99.07     858.00
 99.17     822.00
 99.27     870.00
 99.37     961.04
 99.47     968.93
 99.57    1107.37
 99.67    1180.00
 99.77    1277.07
 99.87    1382.00
 99.97    1542.93
100.07    1596.93
100.17    1794.00
100.27    1842.00
100.37    1942.00
100.47    2086.00
100.57    2110.47
100.67    2072.72
100.77    2132.00
100.87    2072.00
100.97    2090.00
101.07    2001.54
101.17    1926.00
101.27    1811.00
101.37    1633.89
101.47    1626.02
101.57    1574.00
101.67    1404.00
101.77    1284.00
101.87    1341.40
101.97    1248.39
102.07    1155.00
102.17    1220.54
102.27    1147.92
102.37    1169.00
102.47    1121.00
102.57    1025.00
102.67    1089.00
102.77    1024.00
102.87     961.00
102.97     980.00
103.07     929.35
103.17     821.00
103.27     854.00
103.37     855.38
103.47     714.06
103.57     775.00
103.67     676.00
103.77     719.00
103.87     659.83
103.97     634.00
104.07     593.00
104.17     621.00
104.27     580.65
104.37     559.00
104.47     576.00
104.57     551.00
104.67     511.29
104.77     539.00
104.87     516.11
104.97     560.00
105.07     542.00
105.17     521.77
105.27     540.00
105.37     515.00
105.47     557.00
105.57     512.00
105.67     510.94
105.77     519.58
105.87     571.50
105.97     596.91
106.07     575.00
106.17     572.02
106.27     613.00
106.37     562.42
106.47     599.00
106.57     633.02
106.67     625.00
106.77     686.85
106.87     632.00
106.97     663.00
107.07     710.57
107.17     653.00
107.27     716.00
107.37     705.27
107.47     703.87
107.57     674.00
107.67     642.00
107.77     694.00
107.87     704.00
107.97     725.20
108.07     668.00
108.17     677.00
108.27     715.99
108.37     701.00
108.47     745.91
108.57     661.00
108.67     705.00
108.77     662.00
108.87     680.00
108.97     715.00
109.07     651.00
109.17     647.00
109.27     661.36
109.37     621.72
109.47     615.13
109.57     706.00
109.67     615.00
109.77     577.00
109.87     599.55
109.97     596.61
110.07     627.91
110.17     599.00
110.27     586.66
110.37     589.00
110.47     579.00
110.57     582.67
110.67     543.00
110.77     578.00
110.87     494.86
110.97     560.49
111.07     573.00
111.17     504.00
111.27     540.00
111.37     588.00
111.47     562.00
111.57     587.63
111.67     550.00
111.77     527.00
111.87     610.00
111.97     583.00
112.07     613.00
112.17     543.00
112.27     565.00
112.37     576.02
112.47     570.00
112.57     592.00
112.67     625.00
112.77     639.00
112.87     674.00
112.97     717.00
113.07     704.00
113.17     704.00
113.27     751.01
113.37     754.82
113.47     781.54
113.57     845.00
113.67     923.00
113.77     891.30
113.87     980.70
113.97     995.00
114.07     996.00
114.17    1099.00
114.27    1176.00
114.37    1251.67
114.47    1317.00
114.57    1425.00
114.67    1570.00
114.77    1782.00
114.87    1938.80
114.97    2114.00
115.07    2406.00
115.17    2453.69
115.27    2873.12
115.37    3151.00
115.47    3446.32
115.57    3604.00
115.67    4227.05
115.77    4362.00
115.87    4729.00
115.97    5185.00
116.07    5578.85
116.17    6173.99
116.27    6310.00
116.37    6542.55
116.47    6854.97
116.57    6830.71
116.67    7173.00
116.77    6797.31
116.87    6864.00
116.97    6623.85
117.07    6406.00
117.17    6123.52
117.27    5578.00
117.37    5213.00
117.47    5165.98
117.57    4539.00
117.67    4305.00
117.77    3770.83
117.87    3667.00
117.97    3190.94
118.07    2838.97
118.17    2644.00
118.27    2167.21
118.37    2022.00
118.47    1715.00
118.57    1476.00
118.67    1421.04
118.77    1246.16
118.87    1034.00
118.97    1029.00
119.07     942.08
119.17     887.00
119.27     872.13
119.37     750.00
119.47     717.00
119.57     684.51
119.67     676.32
119.77     642.20
119.87     626.00
119.97     608.00
120.07     662.37
120.17     596.13
120.27     583.00
120.37     588.00
120.47     569.00
120.57     610.89
120.67     616.49
120.77     587.00
120.87     569.00
120.97     595.00
121.07     564.83
121.17     583.00
121.27     591.00
121.37     574.00
121.47     592.66
121.57     621.03
121.67     599.00
121.77     572.12
121.87     588.00
121.97     585.90
122.07     656.94
122.17     662.00
122.27     582.00
122.37     642.00
122.47     676.82
122.57     644.78
122.67     610.00
122.77     630.00
122.87     651.36
122.97     636.99
123.07     648.00
123.17     651.67
123.27     645.02
123.37     617.00
123.47     618.00
123.57     624.00
123.67     678.18
123.77     646.00
123.87     603.00
123.97     605.29
124.07     651.00
124.17     642.00
124.27     633.00
124.37     640.93
124.47     578.81
124.57     607.00
124.67     630.00
124.77     610.00
124.87     604.00
124.97     567.50
