  9.97     602.00
 10.07     572.00
 10.17     610.00
 10.27     556.78
 10.37     615.00
 10.47     581.71
 10.57     603.00
 10.67     547.08
 10.77     599.00
 10.87     636.00
 10.97     544.48
 11.07     573.00
 11.17     572.00
 11.27     570.00
 11.37     612.00
 11.47     597.00
 11.57     603.00
 11.67     608.00
 11.77     614.00
 11.87     622.59
 11.97     635.80
 12.07     649.00
 12.17     700.00
 12.27     696.00
 12.37     647.00
 12.47     626.25
 12.57     606.50
 12.67     638.34
 12.77     509.00
 12.87     574.00
 12.97     542.00
 13.07     529.00
 13.17     605.40
 13.27     557.00
 13.37     564.00
 13.47     576.00
 13.57     551.00
 13.67     554.96
 13.77     584.00
 13.87     549.00
 13.97     554.00
 14.07     547.77
 14.17     595.76
 14.27     559.00
 14.37     528.21
 14.47     561.00
 14.57     544.00
 14.67     557.36
 14.77     580.18
 14.87     535.00
 14.97     520.00
 15.07     552.14
 15.17     621.00
 15.27     537.00
 15.37     568.00
 15.47     615.38
 15.57     585.00
 15.67     603.45
 15.77     543.00
 15.87     575.00
 15.97     538.00
 16.07     527.35
 16.17     556.00
 16.27     546.00
 16.37     550.21
 16.47     577.00
 16.57     575.00
 16.67     537.06
 16.77     567.89
 16.87     574.65
 16.97     535.48
 17.07     542.00
 17.17     610.42
 17.27     581.28
 17.37     611.43
 17.47     520.00
 17.57     535.00
 17.67     601.50
 17.77     557.00
 17.87     558.00
 17.97     560.75
 18.07     576.00
 18.17     578.00
 18.27     571.12
 18.37     568.00
 18.47     572.00
 18.57     571.02
 18.67     579.00
 18.77     558.28
 18.87     589.00
 18.97     538.00
 19.07     601.00
 19.17     577.00
 19.27     598.00
 19.37     525.14
 19.47     532.28
 19.57     593.00
 19.67     583.00
 19.77     583.00
 19.87     593.00
 19.97     578.00
 20.07     593.30
 20.17     547.38
 20.27     583.63
 20.37     529.02
 20.47     566.07
 20.57     560.00
 20.67     548.00
 20.77     602.01
 20.87     568.00
 20.97     579.00
 21.07     540.00
 21.17     599.98
 21.27     553.00
 21.37     528.00
 21.47     546.00
 21.57     540.00
 21.67     580.00
 21.77     523.00
 21.87     521.00
 21.97     566.00
 22.07     569.00
 22.17     583.93
 22.27     554.00
 22.37     577.80
 22.47     585.51
 22.57     538.00
 22.67     522.50
 22.77     574.00
 22.87     580.17
 22.97     583.00
 23.07     520.00
 23.17     591.00
 23.27     599.01
 23.37     594.58
 23.47     533.00
 23.57     540.00
 23.67     536.48
 23.77     558.00
 23.87     532.51
 23.97     536.32
 24.07     506.89
 24.17     545.54
 24.27     543.68
 24.37     518.43
 24.47     587.00
 24.57     608.77
 24.67     648.00
 24.77     676.00
 24.87     563.00
 24.97     636.64
 25.07     578.07
 25.17     545.00
 25.27     565.00
 25.37     563.09
 25.47     567.00
 25.57     547.00
 25.67     547.73
 25.77     589.90
 25.87     508.46
 25.97     579.03
 26.07     541.00
 26.17     533.00
 26.27     520.00
 26.37     553.00
 26.47     535.00
 26.57     516.00
 26.67     582.14
 26.77     514.89
 26.87     547.00
 26.97     586.00
 27.07     544.00
 27.17     585.00
 27.27     597.00
 27.37     583.24
 27.47     560.00
 27.57     568.00
 27.67     577.00
 27.77     530.16
 27.87     595.00
 27.97     710.40
 28.07     801.91
 28.17     938.77
 28.27     928.00
 28.37     890.00
 28.47     710.00
 28.57     733.00
 28.67     686.00
 28.77     725.07
 28.87     734.00
 28.97     838.00
 29.07     769.00
 29.17     668.08
 29.27     610.00
 29.37     559.00
 29.47     620.00
 29.57     602.00
 29.67     643.00
 29.77     574.00
 29.87     586.00
 29.97     594.00
 30.07     543.00
 30.17     588.00
 30.27     567.00
 30.37     563.90
 30.47     556.00
 30.57     533.37
 30.67     579.01
 30.77     581.00
 30.87     610.00
 30.97     598.63
 31.07     598.00
 31.17     563.05
 31.27     559.00
 31.37     557.00
 31.47     495.19
 31.57     565.00
 31.67     508.12
 31.77     517.39
 31.87     541.27
 31.97     498.21
 32.07     531.00
 32.17     536.00
 32.27     561.45
 32.37     504.00
 32.47     568.00
 32.57     520.00
 32.67     518.00
 32.77     518.99
 32.87     554.00
 32.97     514.06
 33.07     562.00
 33.17     500.67
 33.27     520.00
 33.37     522.00
 33.47     599.12
 33.57     613.16
 33.67     610.84
 33.77     798.00
 33.87     849.00
 33.97     990.00
 34.07    1072.00
 34.17    1070.00
 34.27     876.19
 34.37     764.00
 34.47     675.00
 34.57     622.16
 34.67     537.33
 34.77     544.00
 34.87     515.00
 34.97     508.00
 35.07     544.61
 35.17     517.99
 35.27     517.00
 35.37     548.67
 35.47     499.00
 35.57     491.64
 35.67     549.00
 35.77     526.00
 35.87     527.24
 35.97     515.00
 36.07     478.26
 36.17     491.10
 36.27     472.00
 36.37     479.05
 36.47     517.17
 36.57     512.00
 36.67     524.00
 36.77     496.02
 36.87     511.86
 36.97     507.30
 37.07     539.24
 37.17     491.00
 37.27     529.11
 37.37     500.00
 37.47     515.99
 37.57     516.00
 37.67     488.91
 37.77     540.00
 37.87     530.00
 37.97     535.00
 38.07     471.00
 38.17     524.45
 38.27     503.17
 38.37     522.00
 38.47     525.00
 38.57     462.00
 38.67     531.00
 38.77     490.00
 38.87     493.00
 38.97     455.00
 39.07     502.00
 39.17     515.00
 39.27     544.95
 39.37     524.00
 39.47     517.43
 39.57     508.00
 39.67     503.02
 39.77     502.00
 39.87     468.00
 39.97     488.66
 40.07     461.45
 40.17     483.57
 40.27     534.00
 40.37     518.00
 40.47     461.00
 40.57     534.60
 40.67     452.00
 40.77     496.00
 40.87     498.63
 40.97     510.00
 41.07     492.00
 41.17     514.00
 41.27     496.00
 41.37     497.04
 41.47     487.00
 41.57     525.00
 41.67     495.48
 41.77     496.45
 41.87     491.00
 41.97     524.00
 42.07     513.00
 42.17     509.00
 42.27     545.00
 42.37     522.00
 42.47     559.00
 42.57     589.00
 42.67     587.00
 42.77     616.00
 42.87     552.00
 42.97     543.00
 43.07     589.01
 43.17     515.90
 43.27     532.47
 43.37     506.00
 43.47     491.65
 43.57     535.00
 43.67     521.00
 43.77     486.00
 43.87     464.00
 43.97     498.65
 44.07     539.73
 44.17     582.00
 44.27     505.00
 44.37     497.00
 44.47     461.46
 44.57     501.60
 44.67     535.00
 44.77     506.00
 44.87     490.00
 44.97     468.78
 45.07     537.00
 45.17     528.00
 45.27     531.00
 45.37     499.32
 45.47     495.00
 45.57     495.75
 45.67     524.56
 45.77     500.00
 45.87     518.22
 45.97     499.00
 46.07     469.41
 46.17     503.00
 46.27     526.00
 46.37     472.00
 46.47     484.00
 46.57     484.00
 46.67     516.00
 46.77     477.00
 46.87     508.00
 46.97     479.00
 47.07     530.61
 47.17     538.00
 47.27     512.00
 47.37     532.00
 47.47     559.00
 47.57     579.00
 47.67     531.30
 47.77     585.00
 47.87     589.00
 47.97     601.30
 48.07     571.00
 48.17     563.00
 48.27     557.92
 48.37     522.23
 48.47     537.00
 48.57     537.56
 48.67     532.00
 48.77     566.56
 48.87     539.58
 48.97     538.00
 49.07     584.00
 49.17     557.00
 49.27     593.12
 49.37     632.10
 49.47     725.00
 49.57     786.00
 49.67     890.01
 49.77    1153.00
 49.87    1503.00
 49.97    1866.20
 50.07    2309.11
 50.17    2475.00
 50.27    2492.12
 50.37    2213.57
 50.47    1799.00
 50.57    1403.00
 50.67    1092.61
 50.77     830.00
 50.87     704.00
 50.97     625.00
 51.07     579.00
 51.17     617.00
 51.27     581.00
 51.37     620.69
 51.47     585.00
 51.57     559.00
 51.67     575.00
 51.77     570.00
 51.87     508.00
 51.97     593.00
 52.07     539.22
 52.17     559.09
 52.27     580.00
 52.37     558.11
 52.47     563.00
 52.57     563.00
 52.67     593.00
 52.77     555.10
 52.87     672.00
 52.97     696.00
 53.07     804.35
 53.17     843.77
 53.27    1045.00
 53.37    1134.00
 53.47    1191.00
 53.57    1164.16
 53.67    1171.63
 53.77    1022.18
 53.87     825.43
 53.97     780.90
 54.07     644.60
 54.17     631.00
 54.27     612.00
 54.37     597.55
 54.47     573.00
 54.57     550.00
 54.67     563.00
 54.77     555.00
 54.87     542.00
 54.97     539.75
 55.07     534.00
 55.17     563.83
 55.27     588.64
 55.37     586.00
 55.47     567.00
 55.57     591.94
 55.67     559.67
 55.77     555.00
 55.87     557.00
 55.97     655.53
 56.07     638.00
 56.17     739.00
 56.27     911.00
 56.37    1058.00
 56.47    1388.00
 56.57    1780.00
 56.67    2086.00
 56.77    2557.42
 56.87    2632.74
 56.97    2552.00
 57.07    2408.00
 57.17    2064.37
 57.27    1614.00
 57.37    1255.00
 57.47    1037.61
 57.57     898.00
 57.67     770.00
 57.77     757.00
 57.87     712.00
 57.97     677.00
 58.07     664.00
 58.17     663.00
 58.27     774.88
 58.37     905.75
 58.47     969.00
 58.57    1121.00
 58.67    1218.00
 58.77    1425.27
 58.87    1500.00
 58.97    1490.00
 59.07    1550.00
 59.17    1472.07
 59.27    1538.00
 59.37    1371.00
 59.47    1162.00
 59.57    1131.06
 59.67    1180.00
 59.77    1194.00
 59.87    1130.47
 59.97    1343.00
 60.07    1462.00
 60.17    1549.00
 60.27    1607.00
 60.37    1521.45
 60.47    1411.00
 60.57    1312.00
 60.67    1113.25
 60.77     964.00
 60.87     798.00
 60.97     659.00
 61.07     685.00
 61.17     643.00
 61.27     631.00
 61.37     659.77
 61.47     629.00
 61.57     729.15
 61.67     819.00
 61.77    1017.00
 61.87    1143.27
 61.97    1228.00
 62.07    1334.44
 62.17    1400.00
 62.27    1335.00
 62.37    1304.00
 62.47    1186.00
 62.57    1036.00
 62.67     964.33
 62.77     784.00
 62.87     692.00
 62.97     641.00
 63.07     602.50
 63.17     556.00
 63.27     533.43
 63.37     571.71
 63.47     583.00
 63.57     561.00
 63.67     606.95
 63.77     602.00
 63.87     644.00
 63.97     654.42
 64.07     718.13
 64.17     771.00
 64.27     833.00
 64.37     945.38
 64.47    1018.90
 64.57    1015.19
 64.67     974.00
 64.77    1014.00
 64.87     925.11
 64.97     918.91
 65.07     864.00
 65.17     737.00
 65.27     706.00
 65.37     692.00
 65.47     650.00
 65.57     621.00
 65.67     613.00
 65.77     543.00
 65.87     560.00
 65.97     545.00
 66.07     538.65
 66.17     543.00
 66.27     586.13
 66.37     550.45
 66.47     538.00
 66.57     553.36
 66.67     614.25
 66.77     600.00
 66.87     568.46
 66.97     603.00
 67.07     632.00
 67.17     675.00
 67.27     777.00
 67.37     888.57
 67.47    1099.37
 67.57    1266.78
 67.67    1418.00
 67.77    1837.00
 67.87    2141.00
 67.97    2276.24
 68.07    2386.00
 68.17    2370.01
 68.27    2276.00
 68.37    2015.00
 68.47    1767.40
 68.57    1576.00
 68.67    1327.00
 68.77    1031.00
 68.87     844.00
 68.97     767.00
 69.07     739.00
 69.17     699.00
 69.27     651.64
 69.37     628.00
 69.47     601.00
 69.57     618.05
 69.67     551.00
 69.77     555.87
 69.87     560.00
 69.97     561.00
 70.07     592.30
 70.17     566.00
 70.27     624.00
 70.37     540.00
 70.47     542.62
 70.57     617.10
 70.67     555.00
 70.77     578.04
 70.87     644.00
 70.97     596.00
 71.07     635.25
 71.17     706.78
 71.27     804.00
 71.37     938.00
 71.47    1105.78
 71.57    1205.00
 71.67    1396.00
 71.77    1687.00
 71.87    1783.40
 71.97    1914.00
 72.07    1963.00
 72.17    1817.00
 72.27    1825.37
 72.37    1750.00
 72.47    1511.00
 72.57    1337.39
 72.67    1280.00
 72.77    1072.00
 72.87     914.00
 72.97     900.09
 73.07     774.00
 73.17     772.00
 73.27     743.80
 73.37     673.00
 73.47     630.00
 73.57     602.00
 73.67     605.00
 73.77     655.00
 73.87     595.15
 73.97     563.00
 74.07     557.00
 74.17     590.90
 74.27     643.00
 74.37     612.00
 74.47     559.99
 74.57     610.00
 74.67     634.00
 74.77     604.04
 74.87     569.37
 74.97     628.00
 75.07     585.00
 75.17     585.00
 75.27     578.00
 75.37     587.64
 75.47     581.92
 75.57     603.00
 75.67     612.66
 75.77     549.00
 75.87     602.00
 75.97     631.00
 76.07     610.00
 76.17     672.00
 76.27     692.58
 76.37     666.00
 76.47     724.00
 76.57     686.76
 76.67     704.00
 76.77     667.00
 76.87     634.00
 76.97     644.94
 77.07     660.74
 77.17     589.00
 77.27     578.71
 77.37     532.00
 77.47     540.00
 77.57     496.00
 77.67     521.00
 77.77     507.97
 77.87     513.00
 77.97     516.00
 78.07     556.91
 78.17     511.57
 78.27     543.00
 78.37     526.70
 78.47     533.81
 78.57     512.00
 78.67     514.00
 78.77     542.00
 78.87     552.00
 78.97     538.00
 79.07     509.00
 79.17     519.00
 79.27     547.32
 79.37     524.00
 79.47     515.00
 79.57     498.42
 79.67     534.00
 79.77     555.10
 79.87     562.00
 79.97     581.00
 80.07     544.00
 80.17     560.00
 80.27     598.98
 80.37     556.97
 80.47     569.00
 80.57     612.00
 80.67     587.22
 80.77     651.00
 80.87     684.00
 80.97     679.00
 81.07     711.00
 81.17     751.03
 81.27     736.00
 81.37     748.39
 81.47     720.95
 81.57     782.46
 81.67     760.00
 81.77     754.00
 81.87     694.68
 81.97     698.54
 82.07     698.81
 82.17     674.00
 82.27     650.00
 82.37     630.07
 82.47     578.00
 82.57     612.00
 82.67     564.52
 82.77     572.00
 82.87     563.69
 82.97     519.10
 83.07     524.00
 83.17     541.85
 83.27     554.00
 83.37     581.00
 83.47     544.00
 83.57     540.10
 83.67     548.00
 83.77     532.00
 83.87     606.36
 83.97     550.00
 84.07     550.00
 84.17     568.00
 84.27     531.00
 84.37     573.00
 84.47     555.00
 84.57     571.00
 84.67     551.00
 84.77     562.00
 84.87     545.00
 84.97     563.24
 85.07     535.36
 85.17     541.00
 85.27     536.91
 85.37     552.00
 85.47     578.00
 85.57     519.00
 85.67     502.00
 85.77     531.70
 85.87     534.00
 85.97     513.00
 86.07     525.00
 86.17     539.24
 86.27     547.00
 86.37     584.15
 86.47     527.20
 86.57     577.00
 86.67     578.00
 86.77     614.00
 86.87     618.11
 86.97     639.97
 87.07     645.57
 87.17     660.00
 87.27     667.00
 87.37     621.87
 87.47     700.00
 87.57     647.00
 87.67     637.00
 87.77     608.00
 87.87     639.00
 87.97     583.58
 88.07     574.42
 88.17     587.00
 88.27     575.00
 88.37     602.00
 88.47     559.00
 88.57     592.00
 88.67     541.00
 88.77     591.13
 88.87     593.00
 88.97     583.49
 89.07     625.00
 89.17     597.00
 89.27     586.48
 89.37     573.00
 89.47     572.58
 89.57     584.45
 89.67     554.00
 89.77     562.90
 89.87     613.09
 89.97     516.00
 90.07     556.19
 90.17     532.00
 90.27     534.00
 90.37     564.12
 90.47     578.88
 90.57     525.00
 90.67     523.80
 90.77     572.95
 90.87     488.00
 90.97     525.00
 91.07     561.00
 91.17     491.83
 91.27     488.45
 91.37     506.79
 91.47     543.00
 91.57     543.00
 91.67     519.54
 91.77     548.00
 91.87     527.00
 91.97     523.76
 92.07     547.23
 92.17     636.00
 92.27     568.00
 92.37     607.00
 92.47     624.00
 92.57     633.00
 92.67     616.33
 92.77     661.66
 92.87     695.00
 92.97     745.00
 93.07     770.77
 93.17     761.13
 93.27     758.00
 93.37     785.00
 93.47     794.00
 93.57     833.00
 93.67     779.77
 93.77     845.00
 93.87     819.00
 93.97     803.00
 94.07     854.06
 94.17     894.69
 94.27     836.00
 94.37     909.00
 94.47     909.00
 94.57     845.41
 94.67     859.43
 94.77     903.00
 94.87     911.00
 94.97     927.00
 95.07     914.00
 95.17     889.72
 95.27     868.00
 95.37     822.00
 95.47     748.00
 95.57     797.00
 95.67     750.00
 95.77     688.12
 95.87     675.10
 95.97     696.00
 96.07     693.00
 96.17     749.60
 96.27     757.00
 96.37     730.00
 96.47     782.00
 96.57     795.00
 96.67     902.00
 96.77    1036.70
 96.87    1033.17
 96.97    1079.00
 97.07    1261.22
 97.17    1277.00
 97.27    1372.00
 97.37    1403.00
 97.47    1471.89
 97.57    1487.14
 97.67    1464.00
 97.77    1344.00
 97.87    1353.01
 97.97    1348.16
 98.07    1144.00
 98.17    1184.00
 98.27    1071.98
 98.37    1048.04
 98.47     954.00
 98.57     858.48
 98.67     866.00
 98.77     856.41
 98.87     774.00
 98.97     810.00
 99.07     823.00
 99.17     806.00
 99.27     847.00
 99.37     972.61
 99.47     993.39
 99.57    1121.00
 99.67    1156.74
 99.77    1294.06
 99.87    1425.12
 99.97    1576.73
100.07    1618.22
100.17    1762.00
100.27    1879.00
100.37    1906.00
100.47    1973.31
100.57    2107.00
100.67    1987.34
100.77    2052.11
100.87    2145.32
100.97    1938.79
101.07    1997.29
101.17    1881.22
101.27    1870.00
101.37    1794.78
101.47    1607.00
101.57    1520.53
101.67    1480.00
101.77    1361.00
101.87    1280.00
101.97    1247.00
102.07    1220.98
102.17    1162.00
102.27    1135.00
102.37    1137.26
102.47    1143.00
102.57    1013.00
102.67    1030.87
102.77     966.49
102.87    1052.00
102.97     971.00
103.07     906.00
103.17     847.00
103.27     887.58
103.37     857.00
103.47     772.00
103.57     760.15
103.67     651.88
103.77     701.00
103.87     634.08
103.97     575.05
104.07     547.41
104.17     586.00
104.27     553.00
104.37     583.00
104.47     532.00
104.57     583.00
104.67     566.00
104.77     501.40
104.87     533.00
104.97     507.00
105.07     523.00
105.17     599.00
105.27     497.00
105.37     519.00
105.47     562.71
105.57     546.00
105.67     521.49
105.77     556.00
105.87     569.59
105.97     541.18
106.07     538.00
106.17     542.78
106.27     594.00
106.37     598.00
106.47     585.00
106.57     579.00
106.67     616.56
106.77     636.00
106.87     638.00
106.97     682.18
107.07     686.00
107.17     673.00
107.27     686.20
107.37     672.00
107.47     730.49
107.57     589.00
107.67     683.03
107.77     648.84
107.87     683.13
107.97     634.00
108.07     688.00
108.17     682.00
108.27     700.00
108.37     713.12
108.47     656.94
108.57     706.00
108.67     708.00
108.77     699.00
108.87     673.00
108.97     725.06
109.07     687.00
109.17     647.56
109.27     703.00
109.37     623.84
109.47     659.00
109.57     642.00
109.67     626.25
109.77     588.00
109.87     591.00
109.97     540.72
110.07     579.00
110.17     542.13
110.27     579.00
110.37     568.00
110.47     559.00
110.57     597.00
110.67     552.00
110.77     528.00
110.87     500.17
110.97     523.00
111.07     526.26
111.17     553.00
111.27     504.36
111.37     558.00
111.47     551.00
111.57     533.39
111.67     537.92
111.77     550.00
111.87     556.00
111.97     516.00
112.07     577.00
112.17     581.00
112.27     584.00
112.37     524.00
112.47     518.00
112.57     572.00
112.67     591.22
112.77     618.00
112.87     635.00
112.97     641.00
113.07     639.18
113.17     702.00
113.27     753.97
113.37     721.00
113.47     796.70
113.57     795.00
113.67     858.00
113.77     901.00
113.87     929.00
113.97     994.22
114.07    1036.00
114.17    1158.00
114.27    1057.00
114.37    1252.00
114.47    1368.00
114.57    1491.03
114.67    1655.00
114.77    1676.35
114.87    1833.23
114.97    2132.32
115.07    2374.00
115.17    2566.00
115.27    2747.00
115.37    3149.58
115.47    3365.11
115.57    3638.00
115.67    4069.00
115.77    4470.00
115.87    5000.24
115.97    5205.36
116.07    5834.94
116.17    5895.33
116.27    6262.80
116.37    6490.20
116.47    6828.34
116.57    6951.51
116.67    6969.00
116.77    6937.00
116.87    6840.00
116.97    6621.00
117.07    6563.00
117.17    6190.00
117.27    5672.00
117.37    5380.00
117.47    4988.00
117.57    4583.00
117.67    4389.00
117.77    4042.00
117.87    3512.51
117.97    3307.00
118.07    2937.00
118.17    2460.69
118.27    2246.00
118.37    1973.00
118.47    1750.00
118.57    1507.27
118.67    1373.98
118.77    1231.00
118.87    1139.13
118.97    1044.96
119.07    1013.00
119.17     846.38
119.27     811.27
119.37     748.00
119.47     733.00
119.57     725.90
119.67     653.00
119.77     608.00
119.87     668.00
119.97     603.00
120.07     623.01
120.17     597.00
120.27     569.00
120.37     587.00
120.47     515.00
120.57     559.00
120.67     557.51
120.77     577.07
120.87     606.78
120.97     571.00
121.07     542.77
121.17     543.00
121.27     584.00
121.37     571.00
121.47     552.42
121.57     597.88
121.67     591.62
121.77     600.00
121.87     573.00
121.97     616.00
122.07     610.00
122.17     606.00
122.27     634.00
122.37     610.95
122.47     646.60
122.57     682.00
122.67     625.00
122.77     668.99
122.87     695.00
122.97     687.00
123.07     650.00
123.17     607.09
123.27     664.00
123.37     631.65
123.47     678.00
123.57     593.85
123.67     585.28
123.77     685.00
123.87     641.00
123.97     605.19
124.07     571.27
124.17     646.00
124.27     585.53
124.37     663.00
124.47     601.00
124.57     570.00
124.67     556.00
124.77     604.76
124.87     530.00
124.97     567.00
