  9.97     591.00
 10.07     587.00
 10.17     597.23
 10.27     593.00
 10.37     594.00
 10.47     602.83
 10.57     557.15
 10.67     563.00
 10.77     606.05
 10.87     620.00
 10.97     587.35
 11.07     543.59
 11.17     549.08
 11.27     544.94
 11.37     602.00
 11.47     547.42
 11.57     588.00
 11.67     619.00
 11.77     615.00
 11.87     618.74
 11.97     641.92
 12.07     687.00
 12.17     674.00
 12.27     746.54
 12.37     603.00
 12.47     600.00
 12.57     610.00
 12.67     607.00
 12.77     573.63
 12.87     593.00
 12.97     537.00
 13.07     549.00
 13.17     573.00
 13.27     555.00
 13.37     569.00
 13.47     530.30
 13.57     534.14
 13.67     533.00
 13.77     593.08
 13.87     542.00
 13.97     595.00
 14.07     554.90
 14.17     542.28
 14.27     537.00
 14.37     547.59
 14.47     536.00
 14.57     566.41
 14.67     586.74
 14.77     542.00
 14.87     565.00
 14.97     605.00
 15.07     542.10
 15.17     548.00
 15.27     606.00
 15.37     533.00
 15.47     540.86
 15.57     599.98
 15.67     553.49
 15.77     577.00
 15.87     560.00
 15.97     567.00
 16.07     613.00
 16.17     521.00
 16.27     582.42
 16.37     550.57
 16.47     546.70
 16.57     520.00
 16.67     530.00
 16.77     586.78
 16.87     541.00
 16.97     591.00
 17.07     573.00
 17.17     574.00
 17.27     564.00
 17.37     560.00
 17.47     506.00
 17.57     523.52
 17.67     562.00
 17.77     559.00
 17.87     530.00
 17.97     539.01
 18.07     540.00
 18.17     558.00
 18.27     577.75
 18.37     579.00
 18.47     519.00
 18.57     527.00
 18.67     566.00
 18.77     575.00
 18.87     513.00
 18.97     567.24
 19.07     570.42
 19.17     559.03
 19.27     575.00
 19.37     590.63
 19.47     523.87
 19.57     566.25
 19.67     569.00
 19.77     515.00
 19.87     518.00
 19.97     549.00
 20.07     537.00
 20.17     563.00
 20.27     539.00
 20.37     515.00
 20.47     512.00
 20.57     530.00
 20.67     559.00
 20.77     566.00
 20.87     581.47
 20.97     514.00
 21.07     514.61
 21.17     564.00
 21.27     596.00
 21.37     558.00
 21.47     547.00
 21.57     593.00
 21.67     509.34
 21.77     566.00
 21.87     573.79
 21.97     583.92
 22.07     539.00
 22.17     539.00
 22.27     582.00
 22.37     511.03
 22.47     543.92
 22.57     558.58
 22.67     600.00
 22.77     531.11
 22.87     571.00
 22.97     527.23
 23.07     561.00
 23.17     514.00
 23.27     560.00
 23.37     507.60
 23.47     553.00
 23.57     549.53
 23.67     561.92
 23.77     525.35
 23.87     548.00
 23.97     524.09
 24.07     584.54
 24.17     554.00
 24.27     584.79
 24.37     589.00
 24.47     576.00
 24.57     583.97
 24.67     614.00
 24.77     564.00
 24.87     648.00
 24.97     573.63
 25.07     593.70
 25.17     531.00
 25.27     574.00
 25.37     536.54
 25.47     570.00
 25.57     551.00
 25.67     587.05
 25.77     571.58
 25.87     546.03
 25.97     556.00
 26.07     547.00
 26.17     563.00
 26.27     543.66
 26.37     568.00
 26.47     533.00
 26.57     537.00
 26.67     501.61
 26.77     573.00
 26.87     563.00
 26.97     594.00
 27.07     509.00
 27.17     562.00
 27.27     599.00
 27.37     506.80
 27.47     567.00
 27.57     560.00
 27.67     559.00
 27.77     638.00
 27.87     580.00
 27.97     633.29
 28.07     709.00
 28.17     930.00
 28.27     902.76
 28.37     865.99
 28.47     800.00
 28.57     744.90
 28.67     677.00
 28.77     718.00
 28.87     802.18
 28.97     752.00
 29.07     751.00
 29.17     685.00
 29.27     632.00
 29.37     590.00
 29.47     628.80
 29.57     635.00
 29.67     613.00
 29.77     561.29
 29.87     534.08
 29.97     568.00
 30.07     592.06
 30.17     529.00
 30.27     580.00
 30.37     521.00
 30.47     512.19
 30.57     618.00
 30.67     597.00
 30.77     603.14
 30.87     648.00
 30.97     607.00
 31.07     610.00
 31.17     571.12
 31.27     548.00
 31.37     511.00
 31.47     506.00
 31.57     524.00
 31.67     551.02
 31.77     533.00
 31.87     534.00
 31.97     538.13
 32.07     601.00
 32.17     535.76
 32.27     536.00
 32.37     527.00
 32.47     565.29
 32.57     557.80
 32.67     527.00
 32.77     563.00
 32.87     542.00
 32.97     511.00
 33.07     542.00
 33.17     591.00
 33.27     565.00
 33.37     571.50
 33.47     539.00
 33.57     538.88
 33.67     606.23
 33.77     793.00
 33.87     875.00
 33.97     993.00
 34.07    1063.86
 34.17    1047.35
 34.27     937.18
 34.37     747.00
 34.47     605.00
 34.57     613.00
 34.67     595.42
 34.77     516.00
 34.87     514.00
 34.97     565.96
 35.07     530.00
 35.17     542.00
 35.27     518.00
 35.37     479.00
 35.47     547.14
 35.57     521.32
 35.67     498.00
 35.77     546.33
 35.87     506.00
 35.97     526.00
 36.07     542.79
 36.17     544.27
 36.27     534.84
 36.37     538.00
 36.47     561.00
 36.57     528.00
 36.67     518.00
 36.77     508.00
 36.87     537.00
 36.97     511.00
 37.07     509.63
 37.17     540.00
 37.27     514.00
 37.37     537.00
 37.47     492.44
 37.57     517.25
 37.67     522.00
 37.77     548.00
 37.87     512.00
 37.97     515.53
 38.07     553.24
 38.17     503.00
 38.27     509.00
 38.37     519.00
 38.47     514.98
 38.57     515.00
 38.67     497.00
 38.77     504.00
 38.87     510.56
 38.97     473.00
 39.07     480.00
 39.17     509.84
 39.27     552.06
 39.37     522.00
 39.47     503.00
 39.57     502.00
 39.67     475.92
 39.77     513.00
 39.87     480.08
 39.97     485.21
 40.07     497.31
 40.17     495.16
 40.27     529.48
 40.37     455.00
 40.47     560.00
 40.57     532.16
 40.67     547.83
 40.77     511.18
 40.87     528.50
 40.97     491.33
 41.07     507.00
 41.17     579.00
 41.27     462.00
 41.37     525.86
 41.47     519.00
 41.57     520.00
 41.67     488.00
 41.77     494.00
 41.87     550.70
 41.97     552.80
 42.07     524.00
 42.17     494.00
 42.27     557.87
 42.37     512.00
 42.47     606.49
 42.57     622.21
 42.67     660.60
 42.77     640.00
 42.87     581.00
 42.97     589.00
 43.07     507.00
 43.17     533.00
 43.27     508.60
 43.37     543.66
 43.47     510.00
 43.57     483.00
 43.67     488.00
 43.77     498.00
 43.87     499.93
 43.97     522.00
 44.07     531.95
 44.17     466.00
 44.27     504.87
 44.37     501.00
 44.47     487.00
 44.57     521.00
 44.67     508.00
 44.77     485.00
 44.87     528.75
 44.97     508.00
 45.07     525.12
 45.17     473.13
 45.27     530.00
 45.37     564.00
 45.47     471.00
 45.57     496.57
 45.67     476.95
 45.77     524.05
 45.87     528.70
 45.97     514.00
 46.07     540.93
 46.17     500.00
 46.27     498.93
 46.37     549.20
 46.47     517.00
 46.57     508.00
 46.67     487.00
 46.77     489.07
 46.87     466.00
 46.97     513.00
 47.07     518.00
 47.17     534.73
 47.27     539.71
 47.37     545.00
 47.47     542.00
 47.57     532.00
 47.67     590.00
 47.77     549.43
 47.87     568.00
 47.97     608.00
 48.07     583.07
 48.17     595.00
 48.27     558.00
 48.37     532.00
 48.47     491.82
 48.57     541.00
 48.67     546.00
 48.77     541.00
 48.87     545.00
 48.97     568.00
 49.07     534.70
 49.17     552.00
 49.27     660.14
 49.37     694.41
 49.47     743.88
 49.57     773.14
 49.67     870.00
 49.77    1124.69
 49.87    1467.00
 49.97    1793.00
 50.07    2272.09
 50.17    2652.00
 50.27    2474.00
 50.37    2339.00
 50.47    1882.00
 50.57    1528.18
 50.67    1052.59
 50.77     889.15
 50.87     694.00
 50.97     676.00
 51.07     635.08
 51.17     607.29
 51.27     600.00
 51.37     547.46
 51.47     582.00
 51.57     565.00
 51.67     512.00
 51.77     547.00
 51.87     571.90
 51.97     581.00
 52.07     548.44
 52.17     535.00
 52.27     563.00
 52.37     561.00
 52.47     514.33
 52.57     603.00
 52.67     607.00
 52.77     621.44
 52.87     664.00
 52.97     688.02
 53.07     802.00
 53.17     929.26
 53.27    1042.48
 53.37    1087.80
 53.47    1180.00
 53.57    1185.00
 53.67    1045.00
 53.77    1009.00
 53.87     861.36
 53.97     812.00
 54.07     692.00
 54.17     630.00
 54.27     618.00
 54.37     600.00
 54.47     537.33
 54.57     577.00
 54.67     541.00
 54.77     582.41
 54.87     573.00
 54.97     500.17
 55.07     576.00
 55.17     570.33
 55.27     575.00
 55.37     561.00
 55.47     570.00
 55.57     568.00
 55.67     540.79
 55.77     563.00
 55.87     580.00
 55.97     606.00
 56.07     680.00
 56.17     750.00
 56.27     873.00
 56.37    1019.00
 56.47    1420.26
 56.57    1720.00
 56.67    2177.09
 56.77    2388.00
 56.87    2539.00
 56.97    2523.00
 57.07    2328.00
 57.17    1941.99
 57.27    1659.00
 57.37    1266.77
 57.47    1092.70
 57.57     882.00
 57.67     755.00
 57.77     709.00
 57.87     694.00
 57.97     665.56
 58.07     681.00
 58.17     696.00
 58.27     826.35
 58.37     863.00
 58.47     984.81
 58.57    1151.00
 58.67    1282.28
 58.77    1350.25
 58.87    1617.00
 58.97    1618.00
 59.07    1674.50
 59.17    1584.31
 59.27    1448.00
 59.37    1388.00
 59.47    1233.00
 59.57    1178.00
 59.67    1184.00
 59.77    1158.23
 59.87    1119.51
 59.97    1337.15
 60.07    1460.00
 60.17    1530.21
 60.27    1625.00
 60.37    1526.02
 60.47    1521.00
 60.57    1163.09
 60.67    1122.00
 60.77     924.00
 60.87     792.00
 60.97     730.00
 61.07     661.00
 61.17     705.00
 61.27     647.00
 61.37     600.32
 61.47     668.00
 61.57     787.28
 61.67     899.57
 61.77     948.00
 61.87    1082.00
 61.97    1239.29
 62.07    1337.00
 62.17    1362.00
 62.27    1388.00
 62.37    1322.00
 62.47    1149.00
 62.57    1025.00
 62.67     872.00
 62.77     846.18
 62.87     655.00
 62.97     608.00
 63.07     617.00
 63.17     576.00
 63.27     533.85
 63.37     555.00
 63.47     592.04
 63.57     584.00
 63.67     561.00
 63.77     564.00
 63.87     585.45
 63.97     689.94
 64.07     668.82
 64.17     790.99
 64.27     810.00
 64.37     911.00
 64.47     931.00
 64.57     980.00
 64.67    1016.00
 64.77    1054.00
 64.87     955.51
 64.97     872.00
 65.07     854.86
 65.17     840.00
 65.27     777.58
 65.37     725.05
 65.47     687.13
 65.57     629.00
 65.67     644.38
 65.77     583.43
 65.87     583.00
 65.97     567.89
 66.07     599.00
 66.17     565.00
 66.27     575.73
 66.37     608.35
 66.47     518.00
 66.57     575.00
 66.67     556.00
 66.77     542.33
 66.87     537.00
 66.97     625.65
 67.07     666.02
 67.17     724.53
 67.27     807.11
 67.37     861.00
 67.47    1040.00
 67.57    1218.00
 67.67    1525.00
 67.77    1821.00
 67.87    1975.18
 67.97    2306.00
 68.07    2490.00
 68.17    2467.00
 68.27    2316.00
 68.37    1966.27
 68.47    1849.00
 68.57    1525.00
 68.67    1268.68
 68.77     959.00
 68.87     876.00
 68.97     740.48
 69.07     694.00
 69.17     665.00
 69.27     688.00
 69.37     571.00
 69.47     591.00
 69.57     595.38
 69.67     587.00
 69.77     599.07
 69.87     557.57
 69.97     568.95
 70.07     605.00
 70.17     575.45
 70.27     562.00
 70.37     522.00
 70.47     621.00
 70.57     578.00
 70.67     584.24
 70.77     599.52
 70.87     556.00
 70.97     671.79
 71.07     629.00
 71.17     707.00
 71.27     854.49
 71.37     873.00
 71.47    1041.00
 71.57    1280.73
 71.67    1505.32
 71.77    1564.94
 71.87    1775.42
 71.97    1854.31
 72.07    1996.26
 72.17    1917.00
 72.27    1774.00
 72.37    1699.00
 72.47    1582.00
 72.57    1420.57
 72.67    1182.00
 72.77    1123.00
 72.87    1030.00
 72.97     912.38
 73.07     858.53
 73.17     782.00
 73.27     751.00
 73.37     718.81
 73.47     608.00
 73.57     694.60
 73.67     565.00
 73.77     577.00
 73.87     562.00
 73.97     588.64
 74.07     623.00
 74.17     600.00
 74.27     588.00
 74.37     562.90
 74.47     568.12
 74.57     651.00
 74.67     608.00
 74.77     601.00
 74.87     567.02
 74.97     593.22
 75.07     668.00
 75.17     543.00
 75.27     590.00
 75.37     555.34
 75.47     533.00
 75.57     560.02
 75.67     561.00
 75.77     572.00
 75.87     626.00
 75.97     643.00
 76.07     626.00
 76.17     627.00
 76.27     650.00
 76.37     655.00
 76.47     731.00
 76.57     678.51
 76.67     666.00
 76.77     670.00
 76.87     645.00
 76.97     651.00
 77.07     625.00
 77.17     620.00
 77.27     574.00
 77.37     600.82
 77.47     557.83
 77.57     582.00
 77.67     560.00
 77.77     575.27
 77.87     497.00
 77.97     564.35
 78.07     499.00
 78.17     520.00
 78.27     552.65
 78.37     553.76
 78.47     508.00
 78.57     532.00
 78.67     522.00
 78.77     509.00
 78.87     498.00
 78.97     541.92
 79.07     515.00
 79.17     528.00
 79.27     533.31
 79.37     506.00
 79.47     529.00
 79.57     541.00
 79.67     511.00
 79.77     501.00
 79.87     529.00
 79.97     551.00
 80.07     585.00
 80.17     585.94
 80.27     551.29
 80.37     590.99
 80.47     571.00
 80.57     630.37
 80.67     606.00
 80.77     647.60
 80.87     641.49
 80.97     677.00
 81.07     733.00
 81.17     757.64
 81.27     737.00
 81.37     756.00
 81.47     783.18
 81.57     774.00
 81.67     758.03
 81.77     737.00
 81.87     720.31
 81.97     726.00
 82.07     639.56
 82.17     645.00
 82.27     638.10
 82.37     591.00
 82.47     601.00
 82.57     591.00
 82.67     556.30
 82.77     522.00
 82.87     547.95
 82.97     560.00
 83.07     562.00
 83.17     578.00
 83.27     552.00
 83.37     562.00
 83.47     529.00
 83.57     574.47
 83.67     570.00
 83.77     514.00
 83.87     550.32
 83.97     588.00
 84.07     600.33
 84.17     575.00
 84.27     553.00
 84.37     536.00
 84.47     550.00
 84.57     531.06
 84.67     517.00
 84.77     577.00
 84.87     501.79
 84.97     531.33
 85.07     527.00
 85.17     512.38
 85.27     553.17
 85.37     516.13
 85.47     539.28
 85.57     489.29
 85.67     530.00
 85.77     533.00
 85.87     568.42
 85.97     517.51
 86.07     551.00
 86.17     531.48
 86.27     542.06
 86.37     579.00
 86.47     566.00
 86.57     581.00
 86.67     513.00
 86.77     589.00
 86.87     603.98
 86.97     616.00
 87.07     623.00
 87.17     657.00
 87.27     668.00
 87.37     619.44
 87.47     612.32
 87.57     684.00
 87.67     612.00
 87.77     626.00
 87.87     626.00
 87.97     596.00
 88.07     622.00
 88.17     625.00
 88.27     570.72
 88.37     538.00
 88.47     551.24
 88.57     599.00
 88.67     612.00
 88.77     624.00
 88.87     649.00
 88.97     571.00
 89.07     630.00
 89.17     653.00
 89.27     641.66
 89.37     590.00
 89.47     569.00
 89.57     576.62
 89.67     576.12
 89.77     576.00
 89.87     566.00
 89.97     560.00
 90.07     586.17
 90.17     547.00
 90.27     496.00
 90.37     571.66
 90.47     582.86
 90.57     553.12
 90.67     509.97
 90.77     554.00
 90.87     530.66
 90.97     562.87
 91.07     562.50
 91.17     561.00
 91.27     525.03
 91.37     523.00
 91.47     538.00
 91.57     516.00
 91.67     538.00
 91.77     576.00
 91.87     503.00
 91.97     609.00
 92.07     563.85
 92.17     548.67
 92.27     598.26
 92.37     563.00
 92.47     647.84
 92.57     645.00
 92.67     689.00
 92.77     676.00
 92.87     654.00
 92.97     778.00
 93.07     815.00
 93.17     757.53
 93.27     850.00
 93.37     780.00
 93.47     845.00
 93.57     850.00
 93.67     847.00
 93.77     810.00
 93.87     805.86
 93.97     817.19
 94.07     911.00
 94.17     848.25
 94.27     892.00
 94.37     857.90
 94.47     918.95
 94.57     838.92
 94.67     838.24
 94.77     902.00
 94.87     838.01
 94.97     864.35
 95.07     870.00
 95.17     852.00
 95.27     863.00
 95.37     819.00
 95.47     801.00
 95.57     760.00
 95.67     729.00
 95.77     691.00
 95.87     702.02
 95.97     677.00
 96.07     643.45
 96.17     699.24
 96.27     739.00
 96.37     783.27
 96.47     768.00
 96.57     859.00
 96.67     898.28
 96.77     946.77
 96.87    1086.47
 96.97    1147.11
 97.07    1234.00
 97.17    1285.00
 97.27    1375.75
 97.37    1450.75
 97.47    1349.23
 97.57    1419.00
 97.67    1447.00
 97.77    1374.00
 97.87    1389.00
 97.97    1328.00
 98.07    1242.00
 98.17    1148.00
 98.27    1050.20
 98.37    1019.00
 98.47     978.03
 98.57     909.00
 98.67     827.20
 98.77     827.08
 98.87     803.00
 98.97     829.93
 99.07     839.86
 99.17     856.00
 99.27     839.14
 99.37     952.00
 99.47    1026.00
 99.57    1147.00
 99.67    1182.00
 99.77    1263.00
 99.87    1419.00
 99.97    1495.00
100.07    1594.08
100.17    1704.00
100.27    1845.00
100.37    1844.19
100.47    2069.00
100.57    2096.00
100.67    1997.18
100.77    2153.00
100.87    2136.11
100.97    2143.00
101.07    1938.76
101.17    1995.00
101.27    1805.00
101.37    1784.62
101.47    1531.00
101.57    1509.00
101.67    1523.79
101.77    1379.00
101.87    1295.00
101.97    1215.00
102.07    1163.00
102.17    1206.64
102.27    1110.00
102.37    1150.58
102.47    1112.52
102.57    1027.00
102.67    1080.00
102.77     992.06
102.87    1042.92
102.97     925.20
103.07     926.00
103.17     835.00
103.27     796.72
103.37     818.00
103.47     791.99
103.57     702.00
103.67     752.00
103.77     685.58
103.87     639.00
103.97     661.00
104.07     570.95
104.17     557.00
104.27     597.00
104.37     580.03
104.47     575.00
104.57     576.57
104.67     580.00
104.77     574.48
104.87     576.23
104.97     538.00
105.07     547.48
105.17     530.00
105.27     541.00
105.37     513.35
105.47     568.00
105.57     532.00
105.67     573.00
105.77     510.48
105.87     574.15
105.97     582.12
106.07     583.00
106.17     528.00
106.27     569.00
106.37     632.00
106.47     598.34
106.57     635.00
106.67     658.00
106.77     628.00
106.87     648.00
106.97     678.00
107.07     689.89
107.17     662.00
107.27     709.50
107.37     705.00
107.47     694.58
107.57     659.00
107.67     649.16
107.77     634.00
107.87     682.00
107.97     737.67
108.07     660.01
108.17     676.00
108.27     672.00
108.37     737.12
108.47     682.64
108.57     664.00
108.67     690.00
108.77     676.00
108.87     706.22
108.97     717.51
109.07     639.00
109.17     664.00
109.27     683.00
109.37     626.00
109.47     677.27
109.57     674.00
109.67     620.00
109.77     594.00
109.87     624.00
109.97     595.00
110.07     581.03
110.17     591.33
110.27     566.00
110.37     546.00
110.47     533.96
110.57     576.00
110.67     550.00
110.77     534.33
110.87     531.00
110.97     550.68
111.07     578.99
111.17     545.55
111.27     512.02
111.37     568.40
111.47     537.00
111.57     521.00
111.67     548.00
111.77     573.00
111.87     534.00
111.97     535.00
112.07     618.00
112.17     554.00
112.27     546.99
112.37     551.00
112.47     594.00
112.57     574.30
112.67     608.00
112.77     625.19
112.87     636.00
112.97     693.00
113.07     712.00
113.17     708.00
113.27     766.28
113.37     732.00
113.47     821.00
113.57     841.00
113.67     892.41
113.77     923.00
113.87     981.72
113.97    1039.00
114.07    1104.56
114.17    1165.00
114.27    1213.00
114.37    1258.00
114.47    1391.00
114.57    1460.00
114.67    1679.00
114.77    1818.00
114.87    1870.84
114.97    2062.00
115.07    2360.00
115.17    2586.00
115.27    2856.00
115.37    3228.39
115.47    3360.00
115.57    3748.00
115.67    4148.11
115.77    4554.96
115.87    5009.59
115.97    5105.00
116.07    5534.00
116.17    5994.00
116.27    6438.00
116.37    6539.81
116.47    6711.00
116.57    7047.04
116.67    6864.00
116.77    6964.00
116.87    7001.00
116.97    6794.00
117.07    6433.00
117.17    6021.93
117.27    5645.00
117.37    5426.00
117.47    5152.66
117.57    4604.00
117.67    4464.00
117.77    3760.27
117.87    3692.00
117.97    3193.00
118.07    2868.90
118.17    2617.00
118.27    2279.23
118.37    2007.00
118.47    1778.00
118.57    1600.95
118.67    1418.40
118.77    1183.00
118.87    1134.00
118.97     975.00
119.07     935.94
119.17     872.00
119.27     834.35
119.37     777.00
119.47     661.00
119.57     670.00
119.67     640.68
119.77     608.36
119.87     638.45
119.97     588.19
120.07     577.57
120.17     602.00
120.27     546.00
120.37     548.00
120.47     612.00
120.57     551.40
120.67     570.13
120.77     614.67
120.87     541.00
120.97     619.00
121.07     560.00
121.17     599.00
121.27     579.74
121.37     596.21
121.47     558.55
121.57     585.00
121.67     573.00
121.77     624.00
121.87     549.59
121.97     614.48
122.07     567.00
122.17     648.38
122.27     581.64
122.37     622.00
122.47     604.00
122.57     625.00
122.67     610.00
122.77     590.00
122.87     660.00
122.97     622.00
123.07     647.00
123.17     663.88
123.27     657.00
123.37     683.00
123.47     613.00
123.57     652.00
123.67     586.64
123.77     641.00
123.87     631.00
123.97     608.00
124.07     627.00
124.17     572.53
124.27     600.00
124.37     619.00
124.47     632.10
124.57     581.00
124.67     641.00
124.77     569.00
124.87     601.00
124.97     614.32
