  9.97     601.00
 10.07     541.25
 10.17     603.00
 10.27     589.65
 10.37     568.00
 10.47     604.00
 10.57     542.00
 10.67     600.00
 10.77     616.00
 10.87     582.27
 10.97     567.00
 11.07     613.00
 11.17     579.62
 11.27     616.00
 11.37     580.00
 11.47     540.45
 11.57     586.00
 11.67     624.73
 11.77     573.00
 11.87     566.63
 11.97     657.00
 12.07     655.58
 12.17     656.21
 12.27     720.00
 12.37     664.00
 12.47     645.00
 12.57     606.20
 12.67     626.00
 12.77     615.00
 12.87     576.75
 12.97     539.00
 13.07     599.00
 13.17     594.39
 13.27     555.00
 13.37     568.00
 13.47     556.00
 13.57     565.00
 13.67     587.31
 13.77     555.69
 13.87     585.00
 13.97     616.00
 14.07     528.00
 14.17     527.00
 14.27     555.00
 14.37     560.00
 14.47     568.00
 14.57     575.00
 14.67     586.00
 14.77     552.37
 14.87     563.00
 14.97     602.85
 15.07     538.75
 15.17     584.91
 15.27     592.11
 15.37     529.00
 15.47     575.00
 15.57     584.80
 15.67     611.60
 15.77     567.00
 15.87     621.00
 15.97     593.00
 16.07     583.00
 16.17     566.00
 16.27     525.00
 16.37     550.00
 16.47     526.00
 16.57     608.00
 16.67     587.67
 16.77     535.00
 16.87     578.06
 16.97     558.00
 17.07     548.00
 17.17     550.00
 17.27     569.05
 17.37     529.72
 17.47     553.00
 17.57     578.00
 17.67     573.94
 17.77     556.00
 17.87     546.00
 17.97     548.08
 18.07     520.00
 18.17     557.00
 18.27     582.54
 18.37     540.00
 18.47     568.03
 18.57     573.00
 18.67     552.00
 18.77     600.74
 18.87     526.28
 18.97     602.28
 19.07     515.55
 19.17     546.00
 19.27     537.19
 19.37     561.00
 19.47     544.07
 19.57     557.00
 19.67     542.00
 19.77     531.61
 19.87     499.00
 19.97     589.81
 20.07     537.00
 20.17     587.70
 20.27     511.15
 20.37     545.00
 20.47     574.90
 20.57     556.53
 20.67     599.00
 20.77     548.00
 20.87     578.00
 20.97     534.90
 21.07     507.00
 21.17     565.00
 21.27     505.00
 21.37     531.57
 21.47     531.00
 21.57     588.23
 21.67     570.00
 21.77     514.17
 21.87     591.51
 21.97     531.00
 22.07     525.32
 22.17     553.00
 22.27     581.33
 22.37     516.55
 22.47     533.00
 22.57     579.00
 22.67     527.19
 22.77     512.00
 22.87     542.15
 22.97     542.00
 23.07     528.00
 23.17     579.00
 23.27     518.75
 23.37     552.00
 23.47     561.00
 23.57     579.00
 23.67     547.00
 23.77     530.00
 23.87     551.00
 23.97     540.00
 24.07     533.81
 24.17     561.00
 24.27     597.06
 24.37     578.33
 24.47     590.39
 24.57     584.00
 24.67     601.00
 24.77     607.00
 24.87     641.00
 24.97     635.00
 25.07     625.97
 25.17     594.00
 25.27     558.40
 25.37     526.00
 25.47     527.94
 25.57     565.00
 25.67     576.00
 25.77     562.42
 25.87     509.00
 25.97     567.94
 26.07     569.95
 26.17     572.00
 26.27     537.59
 26.37     541.00
 26.47     562.00
 26.57     555.00
 26.67     545.00
 26.77     513.48
 26.87     532.00
 26.97     561.00
 27.07     557.00
 27.17     554.17
 27.27     570.00
 27.37     543.00
 27.47     524.70
 27.57     534.52
 27.67     557.00
 27.77     611.00
 27.87     613.00
 27.97     644.89
 28.07     741.80
 28.17     841.00
 28.27     920.00
 28.37     867.00
 28.47     808.88
 28.57     741.00
 28.67     643.04
 28.77     751.00
 28.87     838.52
 28.97     885.00
 29.07     810.00
 29.17     764.21
 29.27     681.00
 29.37     580.00
 29.47     535.00
 29.57     575.00
 29.67     585.00
 29.77     607.00
 29.87     512.67
 29.97     496.43
 30.07     545.54
 30.17     555.00
 30.27     545.00
 30.37     578.17
 30.47     578.00
 30.57     558.00
 30.67     567.00
 30.77     601.00
 30.87     616.00
 30.97     570.00
 31.07     565.00
 31.17     600.57
 31.27     560.00
 31.37     567.20
 31.47     575.00
 31.57     525.61
 31.67     484.00
 31.77     502.60
 31.87     574.00
 31.97     586.00
 32.07     548.00
 32.17     578.00
 32.27     549.00
 32.37     534.93
 32.47     561.00
 32.57     541.87
 32.67     532.00
 32.77     564.00
 32.87     549.00
 32.97     561.00
 33.07     555.00
 33.17     490.44
 33.27     563.00
 33.37     583.64
 33.47     609.11
 33.57     583.42
 33.67     686.62
 33.77     700.93
 33.87     873.83
 33.97    1004.00
 34.07     987.07
 34.17    1006.00
 34.27     912.00
 34.37     849.00
 34.47     655.00
 34.57     691.00
 34.67     576.00
 34.77     546.00
 34.87     581.00
 34.97     534.00
 35.07     552.00
 35.17     471.00
 35.27     514.00
 35.37     532.00
 35.47     477.00
 35.57     537.00
 35.67     504.00
 35.77     459.00
 35.87     504.85
 35.97     495.00
 36.07     476.99
 36.17     490.00
 36.27     504.00
 36.37     493.00
 36.47     486.00
 36.57     531.00
 36.67     476.02
 36.77     477.09
 36.87     492.00
 36.97     491.00
 37.07     528.13
 37.17     450.00
 37.27     484.00
 37.37     532.62
 37.47     497.00
 37.57     536.00
 37.67     537.95
 37.77     535.00
 37.87     537.00
 37.97     568.00
 38.07     539.00
 38.17     551.00
 38.27     477.00
 38.37     515.00
 38.47     502.00
 38.57     502.35
 38.67     511.00
 38.77     498.00
 38.87     548.94
 38.97     474.00
 39.07     473.00
 39.17     483.00
 39.27     503.00
 39.37     478.60
 39.47     508.00
 39.57     522.80
 39.67     495.00
 39.77     497.96
 39.87     546.00
 39.97     483.00
 40.07     517.00
 40.17     549.29
 40.27     499.00
 40.37     500.00
 40.47     504.25
 40.57     536.28
 40.67     536.75
 40.77     526.23
 40.87     509.75
 40.97     482.04
 41.07     499.00
 41.17     485.78
 41.27     464.85
 41.37     458.00
 41.47     478.53
 41.57     549.39
 41.67     521.00
 41.77     507.00
 41.87     516.00
 41.97     468.00
 42.07     507.00
 42.17     511.91
 42.27     538.00
 42.37     550.99
 42.47     554.00
 42.57     603.00
 42.67     585.00
 42.77     564.00
 42.87     603.00
 42.97     573.49
 43.07     575.87
 43.17     583.00
 43.27     549.82
 43.37     547.18
 43.47     520.00
 43.57     506.70
 43.67     515.00
 43.77     486.00
 43.87     528.00
 43.97     537.27
 44.07     507.00
 44.17     506.90
 44.27     483.00
 44.37     481.00
 44.47     512.00
 44.57     499.00
 44.67     471.08
 44.77     475.57
 44.87     524.00
 44.97     475.00
 45.07     486.00
 45.17     503.17
 45.27     526.00
 45.37     471.03
 45.47     507.00
 45.57     488.85
 45.67     499.13
 45.77     518.00
 45.87     543.44
 45.97     471.00
 46.07     548.21
 46.17     511.00
 46.27     531.00
 46.37     483.00
 46.47     528.00
 46.57     546.98
 46.67     492.00
 46.77     549.66
 46.87     516.00
 46.97     501.00
 47.07     480.32
 47.17     495.00
 47.27     513.00
 47.37     515.00
 47.47     522.00
 47.57     521.01
 47.67     579.00
 47.77     567.31
 47.87     584.00
 47.97     582.00
 48.07     601.00
 48.17     582.00
 48.27     555.63
 48.37     552.00
 48.47     536.00
 48.57     506.00
 48.67     467.00
 48.77     538.00
 48.87     567.00
 48.97     525.00
 49.07     561.75
 49.17     587.00
 49.27     527.00
 49.37     612.00
 49.47     597.37
 49.57     690.00
 49.67     817.00
 49.77    1038.00
 49.87    1288.45
 49.97    1757.00
 50.07    2080.00
 50.17    2468.00
 50.27    2448.38
 50.37    2250.58
 50.47    1849.00
 50.57    1582.54
 50.67    1125.00
 50.77     834.00
 50.87     809.95
 50.97     689.00
 51.07     617.00
 51.17     650.00
 51.27     660.00
 51.37     601.00
 51.47     617.00
 51.57     598.00
 51.67     543.00
 51.77     517.82
 51.87     592.00
 51.97     536.00
 52.07     604.00
 52.17     561.56
 52.27     559.30
 52.37     562.95
 52.47     538.00
 52.57     534.50
 52.67     585.00
 52.77     606.19
 52.87     631.00
 52.97     629.83
 53.07     790.00
 53.17     873.00
 53.27    1003.71
 53.37    1181.21
 53.47    1147.89
 53.57    1199.00
 53.67    1128.00
 53.77    1022.09
 53.87     893.00
 53.97     805.00
 54.07     709.45
 54.17     660.70
 54.27     625.30
 54.37     562.36
 54.47     591.12
 54.57     541.39
 54.67     553.81
 54.77     550.00
 54.87     600.00
 54.97     566.27
 55.07     542.00
 55.17     589.00
 55.27     564.00
 55.37     586.00
 55.47     546.96
 55.57     520.00
 55.67     612.79
 55.77     578.00
 55.87     637.00
 55.97     616.02
 56.07     705.00
 56.17     774.00
 56.27     870.00
 56.37    1105.00
 56.47    1421.44
 56.57    1715.00
 56.67    2004.00
 56.77    2339.35
 56.87    2570.07
 56.97    2559.00
 57.07    2373.00
 57.17    2124.74
 57.27    1823.41
 57.37    1469.00
 57.47    1215.26
 57.57     938.00
 57.67     850.00
 57.77     777.00
 57.87     666.08
 57.97     658.76
 58.07     718.00
 58.17     650.00
 58.27     713.25
 58.37     825.48
 58.47     873.00
 58.57     926.00
 58.67    1056.00
 58.77    1104.00
 58.87    1273.00
 58.97    1306.68
 59.07    1359.00
 59.17    1362.00
 59.27    1352.00
 59.37    1314.00
 59.47    1170.92
 59.57    1141.00
 59.67    1198.00
 59.77    1157.82
 59.87    1166.21
 59.97    1322.00
 60.07    1402.37
 60.17    1500.00
 60.27    1575.45
 60.37    1446.08
 60.47    1437.00
 60.57    1262.00
 60.67    1181.70
 60.77     992.00
 60.87     819.00
 60.97     720.63
 61.07     714.00
 61.17     643.17
 61.27     613.41
 61.37     664.12
 61.47     671.14
 61.57     738.41
 61.67     773.00
 61.77     934.00
 61.87    1034.37
 61.97    1232.79
 62.07    1264.24
 62.17    1388.00
 62.27    1344.00
 62.37    1353.35
 62.47    1169.23
 62.57    1083.00
 62.67     899.00
 62.77     865.37
 62.87     703.00
 62.97     727.66
 63.07     631.78
 63.17     610.00
 63.27     580.29
 63.37     587.00
 63.47     574.00
 63.57     568.53
 63.67     586.00
 63.77     601.00
 63.87     570.42
 63.97     672.35
 64.07     738.77
 64.17     718.00
 64.27     809.00
 64.37     890.00
 64.47     966.00
 64.57    1019.67
 64.67    1006.00
 64.77     984.00
 64.87     982.57
 64.97     909.00
 65.07     829.33
 65.17     787.00
 65.27     747.81
 65.37     679.00
 65.47     665.60
 65.57     665.16
 65.67     607.00
 65.77     640.50
 65.87     573.00
 65.97     540.15
 66.07     556.28
 66.17     518.00
 66.27     544.00
 66.37     553.00
 66.47     573.02
 66.57     591.00
 66.67     508.00
 66.77     601.00
 66.87     564.54
 66.97     638.92
 67.07     612.00
 67.17     695.00
 67.27     771.26
 67.37     838.84
 67.47    1055.39
 67.57    1237.00
 67.67    1475.00
 67.77    1684.00
 67.87    2037.00
 67.97    2226.00
 68.07    2411.00
 68.17    2478.56
 68.27    2342.97
 68.37    2135.00
 68.47    1856.00
 68.57    1657.52
 68.67    1348.40
 68.77    1167.55
 68.87     967.00
 68.97     823.00
 69.07     760.00
 69.17     665.00
 69.27     623.07
 69.37     632.00
 69.47     604.00
 69.57     580.00
 69.67     545.00
 69.77     620.67
 69.87     585.72
 69.97     528.00
 70.07     583.00
 70.17     572.00
 70.27     512.00
 70.37     595.46
 70.47     562.00
 70.57     542.62
 70.67     547.00
 70.77     577.66
 70.87     571.00
 70.97     648.07
 71.07     683.35
 71.17     743.37
 71.27     833.00
 71.37     880.00
 71.47     993.29
 71.57    1214.38
 71.67    1392.00
 71.77    1545.00
 71.87    1767.00
 71.97    1900.98
 72.07    1825.00
 72.17    1790.20
 72.27    1776.65
 72.37    1718.00
 72.47    1602.00
 72.57    1257.14
 72.67    1204.00
 72.77    1043.00
 72.87     920.00
 72.97     820.00
 73.07     769.00
 73.17     716.00
 73.27     680.00
 73.37     651.00
 73.47     677.78
 73.57     612.00
 73.67     619.22
 73.77     624.00
 73.87     609.00
 73.97     556.00
 74.07     607.00
 74.17     609.00
 74.27     541.92
 74.37     651.00
 74.47     568.75
 74.57     588.48
 74.67     598.81
 74.77     585.00
 74.87     605.00
 74.97     632.00
 75.07     588.43
 75.17     539.00
 75.27     590.00
 75.37     518.53
 75.47     548.68
 75.57     569.92
 75.67     608.90
 75.77     558.00
 75.87     591.75
 75.97     641.33
 76.07     668.14
 76.17     656.00
 76.27     664.00
 76.37     699.50
 76.47     685.00
 76.57     688.00
 76.67     754.00
 76.77     708.00
 76.87     679.00
 76.97     651.00
 77.07     660.00
 77.17     633.00
 77.27     578.00
 77.37     555.00
 77.47     575.00
 77.57     542.00
 77.67     570.46
 77.77     524.51
 77.87     552.00
 77.97     493.00
 78.07     511.00
 78.17     563.03
 78.27     537.80
 78.37     486.00
 78.47     537.82
 78.57     507.70
 78.67     503.00
 78.77     541.00
 78.87     466.00
 78.97     495.00
 79.07     485.00
 79.17     509.00
 79.27     548.01
 79.37     494.00
 79.47     508.00
 79.57     491.79
 79.67     499.00
 79.77     526.00
 79.87     562.52
 79.97     524.00
 80.07     527.59
 80.17     580.85
 80.27     560.00
 80.37     543.00
 80.47     583.00
 80.57     614.49
 80.67     624.24
 80.77     608.00
 80.87     663.00
 80.97     699.00
 81.07     717.01
 81.17     726.00
 81.27     748.31
 81.37     772.01
 81.47     779.00
 81.57     726.00
 81.67     776.58
 81.77     812.00
 81.87     720.00
 81.97     711.00
 82.07     704.62
 82.17     668.46
 82.27     618.00
 82.37     600.84
 82.47     616.00
 82.57     606.93
 82.67     559.00
 82.77     561.00
 82.87     577.00
 82.97     558.00
 83.07     586.00
 83.17     548.00
 83.27     544.00
 83.37     579.92
 83.47     588.00
 83.57     521.00
 83.67     586.00
 83.77     577.00
 83.87     547.00
 83.97     522.88
 84.07     529.00
 84.17     614.00
 84.27     508.00
 84.37     562.52
 84.47     568.00
 84.57     486.00
 84.67     542.00
 84.77     545.00
 84.87     547.00
 84.97     551.00
 85.07     539.00
 85.17     564.00
 85.27     543.00
 85.37     581.00
 85.47     523.00
 85.57     515.14
 85.67     487.80
 85.77     513.33
 85.87     563.00
 85.97     493.81
 86.07     538.00
 86.17     489.00
 86.27     514.00
 86.37     527.59
 86.47     588.00
 86.57     584.00
 86.67     576.59
 86.77     542.85
 86.87     589.00
 86.97     639.00
 87.07     623.00
 87.17     637.00
 87.27     614.61
 87.37     630.01
 87.47     595.31
 87.57     613.00
 87.67     570.68
 87.77     586.93
 87.87     564.50
 87.97     593.00
 88.07     589.00
 88.17     613.00
 88.27     606.91
 88.37     569.00
 88.47     575.00
 88.57     572.73
 88.67     571.00
 88.77     591.00
 88.87     569.00
 88.97     570.00
 89.07     603.00
 89.17     571.00
 89.27     636.08
 89.37     563.00
 89.47     564.94
 89.57     626.00
 89.67     558.00
 89.77     559.66
 89.87     578.00
 89.97     566.35
 90.07     608.03
 90.17     552.00
 90.27     572.90
 90.37     502.06
 90.47     573.28
 90.57     509.00
 90.67     558.00
 90.77     494.43
 90.87     540.25
 90.97     532.00
 91.07     483.00
 91.17     483.42
 91.27     518.00
 91.37     531.97
 91.47     566.29
 91.57     517.16
 91.67     558.36
 91.77     520.00
 91.87     540.23
 91.97     584.96
 92.07     558.00
 92.17     585.04
 92.27     560.25
 92.37     553.84
 92.47     605.00
 92.57     586.00
 92.67     660.00
 92.77     619.71
 92.87     714.75
 92.97     716.00
 93.07     680.00
 93.17     717.29
 93.27     749.00
 93.37     716.00
 93.47     786.81
 93.57     808.93
 93.67     808.00
 93.77     844.36
 93.87     744.00
 93.97     796.42
 94.07     793.00
 94.17     872.00
 94.27     810.34
 94.37     825.00
 94.47     863.38
 94.57     905.67
 94.67     852.00
 94.77     899.30
 94.87     916.00
 94.97     937.00
 95.07     937.00
 95.17     880.00
 95.27     848.00
 95.37     815.00
 95.47     856.00
 95.57     792.00
 95.67     781.00
 95.77     703.00
 95.87     714.00
 95.97     716.88
 96.07     647.11
 96.17     672.00
 96.27     676.00
 96.37     800.70
 96.47     778.00
 96.57     843.00
 96.67     864.00
 96.77     945.00
 96.87    1080.94
 96.97    1084.89
 97.07    1219.00
 97.17    1205.00
 97.27    1363.00
 97.37    1389.57
 97.47    1376.00
 97.57    1410.00
 97.67    1462.46
 97.77    1432.35
 97.87    1336.00
 97.97    1360.13
 98.07    1253.00
 98.17    1244.00
 98.27    1085.43
 98.37    1108.00
 98.47     980.00
 98.57     950.00
 98.67     885.86
 98.77     847.77
 98.87     873.64
 98.97     812.00
 99.07     817.62
 99.17     867.00
 99.27     906.00
 99.37     934.37
 99.47    1004.00
 99.57    1086.00
 99.67    1128.00
 99.77    1189.00
 99.87    1399.23
 99.97    1416.00
100.07    1493.00
100.17    1706.94
100.27    1703.29
100.37    1798.80
100.47    1984.00
100.57    1966.00
100.67    2007.00
100.77    1983.00
100.87    2165.00
100.97    2040.00
101.07    1934.00
101.17    1823.06
101.27    1826.63
101.37    1782.57
101.47    1679.00
101.57    1608.00
101.67    1462.00
101.77    1408.00
101.87    1356.00
101.97    1262.00
102.07    1247.00
102.17    1208.00
102.27    1140.45
102.37    1129.47
102.47    1186.88
102.57    1163.07
102.67    1132.62
102.77    1057.00
102.87     981.00
102.97     977.51
103.07     896.00
103.17     953.91
103.27     882.74
103.37     883.00
103.47     826.84
103.57     717.06
103.67     753.00
103.77     746.00
103.87     658.00
103.97     650.00
104.07     611.00
104.17     568.72
104.27     623.93
104.37     559.55
104.47     586.00
104.57     583.00
104.67     555.00
104.77     527.00
104.87     587.00
104.97     507.86
105.07     561.00
105.17     570.00
105.27     546.85
105.37     495.37
105.47     516.00
105.57     594.00
105.67     543.00
105.77     527.00
105.87     554.00
105.97     524.00
106.07     608.00
106.17     545.00
106.27     595.00
106.37     640.57
106.47     636.64
106.57     612.00
106.67     611.00
106.77     596.07
106.87     633.00
106.97     644.42
107.07     722.52
107.17     695.00
107.27     739.52
107.37     730.33
107.47     671.00
107.57     749.31
107.67     649.00
107.77     734.86
107.87     699.00
107.97     654.03
108.07     699.46
108.17     639.00
108.27     683.00
108.37     687.00
108.47     688.00
108.57     650.50
108.67     693.00
108.77     726.00
108.87     658.00
108.97     671.00
109.07     632.00
109.17     708.00
109.27     741.00
109.37     654.00
109.47     677.00
109.57     702.00
109.67     647.00
109.77     674.00
109.87     656.00
109.97     625.00
110.07     559.00
110.17     599.00
110.27     569.00
110.37     572.00
110.47     560.00
110.57     586.00
110.67     539.00
110.77     568.00
110.87     545.00
110.97     523.29
111.07     558.00
111.17     579.28
111.27     580.00
111.37     582.00
111.47     511.00
111.57     543.00
111.67     596.00
111.77     551.14
111.87     591.49
111.97     559.00
112.07     538.00
112.17     551.00
112.27     554.00
112.37     533.59
112.47     576.00
112.57     580.00
112.67     560.00
112.77     597.00
112.87     597.08
112.97     592.00
113.07     626.00
113.17     604.00
113.27     661.38
113.37     680.00
113.47     657.60
113.57     654.00
113.67     673.12
113.77     733.00
113.87     748.00
113.97     802.12
114.07     853.31
114.17     923.00
114.27     985.95
114.37     996.00
114.47    1054.00
114.57    1245.00
114.67    1378.24
114.77    1521.51
114.87    1636.62
114.97    1905.00
115.07    2160.00
115.17    2384.00
115.27    2452.76
115.37    2930.11
115.47    3224.00
115.57    3578.03
115.67    3849.00
115.77    4249.00
115.87    4445.00
115.97    4908.00
116.07    5322.00
116.17    5659.00
116.27    6154.00
116.37    6348.00
116.47    6621.00
116.57    6695.00
116.67    6785.00
116.77    6910.00
116.87    6847.00
116.97    6807.55
117.07    6504.00
117.17    6258.91
117.27    5766.00
117.37    5683.00
117.47    5438.82
117.57    5066.33
117.67    4554.00
117.77    4203.00
117.87    3969.00
117.97    3497.35
118.07    3173.52
118.17    2918.00
118.27    2484.00
118.37    2299.84
118.47    2020.00
118.57    1873.00
118.67    1697.87
118.77    1451.00
118.87    1274.00
118.97    1153.11
119.07    1112.24
119.17     945.19
119.27     939.55
119.37     901.24
119.47     842.00
119.57     754.00
119.67     725.59
119.77     717.00
119.87     709.00
119.97     634.00
120.07     631.00
120.17     582.57
120.27     586.21
120.37     610.80
120.47     566.00
120.57     615.17
120.67     623.00
120.77     543.00
120.87     559.00
120.97     577.54
121.07     546.00
121.17     586.00
121.27     627.05
121.37     567.00
121.47     605.00
121.57     572.67
121.67     588.00
121.77     592.00
121.87     574.00
121.97     643.95
122.07     569.96
122.17     620.00
122.27     580.89
122.37     653.00
122.47     598.96
122.57     596.00
122.67     599.68
122.77     626.00
122.87     663.00
122.97     639.91
123.07     662.00
123.17     627.00
123.27     672.00
123.37     591.13
123.47     656.51
123.57     655.00
123.67     607.00
123.77     656.00
123.87     588.00
123.97     625.90
124.07     610.00
124.17     571.03
124.27     653.00
124.37     579.00
124.47     620.57
124.57     596.21
124.67     622.00
124.77     554.00
124.87     554.00
124.97     616.00
