  9.97     601.00
 10.07     535.73
 10.17     623.00
 10.27     590.89
 10.37     596.82
 10.47     596.00
 10.57     572.78
 10.67     576.00
 10.77     639.00
 10.87     580.00
 10.97     591.00
 11.07     601.00
 11.17     613.00
 11.27     566.00
 11.37     548.37
 11.47     529.84
 11.57     599.33
 11.67     604.00
 11.77     624.33
 11.87     635.00
 11.97     668.00
 12.07     658.00
 12.17     683.00
 12.27     629.00
 12.37     661.26
 12.47     676.00
 12.57     582.41
 12.67     540.00
 12.77     593.53
 12.87     556.00
 12.97     549.45
 13.07     554.00
 13.17     543.00
 13.27     534.00
 13.37     517.00
 13.47     530.00
 13.57     567.06
 13.67     564.00
 13.77     540.00
 13.87     520.00
 13.97     590.00
 14.07     528.98
 14.17     585.35
 14.27     542.00
 14.37     528.00
 14.47     556.00
 14.57     594.00
 14.67     537.00
 14.77     579.68
 14.87     551.00
 14.97     598.00
 15.07     542.87
 15.17     551.00
 15.27     600.85
 15.37     548.00
 15.47     539.00
 15.57     539.00
 15.67     575.90
 15.77     552.00
 15.87     571.84
 15.97     573.22
 16.07     518.79
 16.17     517.86
 16.27     536.00
 16.37     538.00
 16.47     529.56
 16.57     541.00
 16.67     532.26
 16.77     555.51
 16.87     534.00
 16.97     576.00
 17.07     601.00
 17.17     521.20
 17.27     544.18
 17.37     510.00
 17.47     535.00
 17.57     545.00
 17.67     536.00
 17.77     596.23
 17.87     559.00
 17.97     576.22
 18.07     528.59
 18.17     525.72
 18.27     591.00
 18.37     561.00
 18.47     580.00
 18.57     575.00
 18.67     518.00
 18.77     528.00
 18.87     557.00
 18.97     567.80
 19.07     579.00
 19.17     533.21
 19.27     544.00
 19.37     517.00
 19.47     513.94
 19.57     527.34
 19.67     531.00
 19.77     575.00
 19.87     538.00
 19.97     566.00
 20.07     568.00
 20.17     513.77
 20.27     545.00
 20.37     531.04
 20.47     526.00
 20.57     585.26
 20.67     561.88
 20.77     569.66
 20.87     553.00
 20.97     563.00
 21.07     533.67
 21.17     515.28
 21.27     531.00
 21.37     552.00
 21.47     532.96
 21.57     551.00
 21.67     556.00
 21.77     547.00
 21.87     551.00
 21.97     525.95
 22.07     504.20
 22.17     553.00
 22.27     514.30
 22.37     566.00
 22.47     524.24
 22.57     595.00
 22.67     520.00
 22.77     581.31
 22.87     556.00
 22.97     532.81
 23.07     520.00
 23.17     538.00
 23.27     523.00
 23.37     591.36
 23.47     518.08
 23.57     583.00
 23.67     574.10
 23.77     593.40
 23.87     561.00
 23.97     599.16
 24.07     539.00
 24.17     567.00
 24.27     576.00
 24.37     569.00
 24.47     583.00
 24.57     635.00
 24.67     566.32
 24.77     589.00
 24.87     619.00
 24.97     572.86
 25.07     597.00
 25.17     559.09
 25.27     597.61
 25.37     576.00
 25.47     572.00
 25.57     544.00
 25.67     567.45
 25.77     618.00
 25.87     520.00
 25.97     538.00
 26.07     498.90
 26.17     524.00
 26.27     511.45
 26.37     544.00
 26.47     543.00
 26.57     573.00
 26.67     547.00
 26.77     581.95
 26.87     498.47
 26.97     521.00
 27.07     559.00
 27.17     534.98
 27.27     501.17
 27.37     587.00
 27.47     571.00
 27.57     557.00
 27.67     596.00
 27.77     584.00
 27.87     611.00
 27.97     669.00
 28.07     736.00
 28.17     928.00
 28.27     908.00
 28.37     895.00
 28.47     795.00
 28.57     738.15
 28.67     677.73
 28.77     763.00
 28.87     810.24
 28.97     813.00
 29.07     738.00
 29.17     687.96
 29.27     657.00
 29.37     614.89
 29.47     605.00
 29.57     571.18
 29.67     546.00
 29.77     552.00
 29.87     563.00
 29.97     595.00
 30.07     553.00
 30.17     553.58
 30.27     493.36
 30.37     590.00
 30.47     546.00
 30.57     581.00
 30.67     571.00
 30.77     566.00
 30.87     549.12
 30.97     557.61
 31.07     595.00
 31.17     629.00
 31.27     566.00
 31.37     564.00
 31.47     533.00
 31.57     548.64
 31.67     508.26
 31.77     541.00
 31.87     572.00
 31.97     539.00
 32.07     557.53
 32.17     549.00
 32.27     550.00
 32.37     576.00
 32.47     522.21
 32.57     574.69
 32.67     543.00
 32.77     533.87
 32.87     488.48
 32.97     565.00
 33.07     544.00
 33.17     548.00
 33.27     526.54
 33.37     613.00
 33.47     588.13
 33.57     619.61
 33.67     662.98
 33.77     733.00
 33.87     882.00
 33.97    1050.00
 34.07     973.29
 34.17    1023.00
 34.27     938.00
 34.37     812.00
 34.47     654.75
 34.57     631.00
 34.67     548.00
 34.77     551.79
 34.87     570.33
 34.97     540.00
 35.07     539.00
 35.17     527.00
 35.27     503.00
 35.37     534.58
 35.47     560.00
 35.57     571.00
 35.67     547.53
 35.77     527.00
 35.87     516.00
 35.97     541.00
 36.07     556.25
 36.17     526.23
 36.27     505.00
 36.37     480.00
 36.47     512.00
 36.57     507.00
 36.67     511.00
 36.77     527.00
 36.87     507.00
 36.97     528.00
 37.07     504.00
 37.17     499.00
 37.27     536.00
 37.37     523.84
 37.47     522.00
 37.57     541.00
 37.67     524.00
 37.77     506.00
 37.87     544.05
 37.97     527.81
 38.07     518.00
 38.17     449.00
 38.27     539.09
 38.37     513.00
 38.47     502.05
 38.57     487.76
 38.67     492.00
 38.77     497.00
 38.87     531.00
 38.97     508.00
 39.07     492.00
 39.17     482.64
 39.27     497.66
 39.37     535.60
 39.47     483.00
 39.57     485.00
 39.67     485.00
 39.77     472.00
 39.87     503.00
 39.97     514.00
 40.07     492.06
 40.17     498.00
 40.27     542.38
 40.37     480.35
 40.47     480.00
 40.57     521.26
 40.67     460.00
 40.77     505.00
 40.87     509.84
 40.97     515.95
 41.07     482.00
 41.17     480.00
 41.27     484.00
 41.37     528.19
 41.47     468.00
 41.57     489.14
 41.67     506.00
 41.77     561.00
 41.87     507.00
 41.97     474.00
 42.07     553.33
 42.17     494.00
 42.27     533.00
 42.37     525.00
 42.47     547.00
 42.57     626.35
 42.67     615.00
 42.77     581.00
 42.87     645.32
 42.97     585.00
 43.07     538.00
 43.17     542.00
 43.27     554.00
 43.37     512.00
 43.47     493.18
 43.57     501.00
 43.67     505.00
 43.77     494.45
 43.87     541.00
 43.97     494.00
 44.07     466.00
 44.17     521.00
 44.27     495.00
 44.37     525.00
 44.47     506.00
 44.57     468.75
 44.67     516.15
 44.77     463.00
 44.87     497.00
 44.97     499.00
 45.07     478.00
 45.17     469.20
 45.27     515.68
 45.37     444.00
 45.47     478.00
 45.57     535.00
 45.67     521.08
 45.77     490.69
 45.87     517.00
 45.97     520.00
 46.07     489.00
 46.17     471.00
 46.27     518.00
 46.37     499.00
 46.47     465.40
 46.57     491.00
 46.67     476.75
 46.77     483.00
 46.87     482.35
 46.97     514.00
 47.07     509.00
 47.17     543.21
 47.27     523.00
 47.37     539.00
 47.47     507.00
 47.57     549.00
 47.67     584.00
 47.77     545.08
 47.87     619.00
 47.97     592.00
 48.07     575.00
 48.17     565.00
 48.27     563.00
 48.37     538.00
 48.47     495.32
 48.57     509.00
 48.67     534.00
 48.77     531.82
 48.87     520.52
 48.97     483.00
 49.07     562.00
 49.17     584.00
 49.27     590.12
 49.37     578.00
 49.47     547.00
 49.57     680.29
 49.67     823.00
 49.77     957.99
 49.87    1197.52
 49.97    1620.05
 50.07    1986.00
 50.17    2330.00
 50.27    2379.00
 50.37    2182.00
 50.47    1913.00
 50.57    1587.56
 50.67    1137.89
 50.77     917.00
 50.87     746.00
 50.97     670.19
 51.07     676.00
 51.17     589.05
 51.27     641.40
 51.37     576.00
 51.47     597.00
 51.57     570.00
 51.67     561.00
 51.77     522.00
 51.87     493.14
 51.97     591.00
 52.07     545.65
 52.17     572.00
 52.27     535.00
 52.37     593.00
 52.47     540.83
 52.57     515.03
 52.67     568.00
 52.77     631.00
 52.87     627.00
 52.97     704.00
 53.07     761.67
 53.17     834.42
 53.27     952.64
 53.37    1120.00
 53.47    1132.00
 53.57    1194.00
 53.67    1191.37
 53.77    1078.00
 53.87     902.07
 53.97     855.71
 54.07     730.00
 54.17     680.52
 54.27     647.00
 54.37     606.00
 54.47     592.00
 54.57     590.07
 54.67     564.00
 54.77     504.28
 54.87     601.00
 54.97     531.00
 55.07     620.00
 55.17     605.00
 55.27     552.00
 55.37     584.66
 55.47     584.00
 55.57     585.00
 55.67     566.00
 55.77     595.00
 55.87     613.00
 55.97     657.00
 56.07     666.00
 56.17     785.26
 56.27     855.00
 56.37    1078.00
 56.47    1311.00
 56.57    1596.00
 56.67    1973.31
 56.77    2306.00
 56.87    2499.72
 56.97    2502.91
 57.07    2391.00
 57.17    2160.00
 57.27    1779.00
 57.37    1421.75
 57.47    1213.00
 57.57     939.00
 57.67     827.10
 57.77     745.83
 57.87     739.00
 57.97     664.81
 58.07     638.61
 58.17     729.00
 58.27     709.26
 58.37     810.00
 58.47     797.00
 58.57     927.00
 58.67     996.27
 58.77    1167.84
 58.87    1222.00
 58.97    1284.09
 59.07    1362.95
 59.17    1363.00
 59.27    1199.68
 59.37    1285.00
 59.47    1162.00
 59.57    1080.20
 59.67    1176.16
 59.77    1078.77
 59.87    1184.00
 59.97    1289.00
 60.07    1421.00
 60.17    1509.00
 60.27    1534.34
 60.37    1492.00
 60.47    1459.00
 60.57    1281.00
 60.67    1085.58
 60.77    1033.00
 60.87     817.00
 60.97     781.00
 61.07     664.00
 61.17     650.56
 61.27     654.00
 61.37     608.78
 61.47     667.00
 61.57     763.47
 61.67     777.00
 61.77     899.00
 61.87    1040.00
 61.97    1116.00
 62.07    1293.00
 62.17    1362.00
 62.27    1411.19
 62.37    1252.00
 62.47    1261.88
 62.57    1065.00
 62.67     931.00
 62.77     892.89
 62.87     750.00
 62.97     679.00
 63.07     664.30
 63.17     579.88
 63.27     578.53
 63.37     594.67
 63.47     603.00
 63.57     589.77
 63.67     582.00
 63.77     614.30
 63.87     641.00
 63.97     688.00
 64.07     658.00
 64.17     707.88
 64.27     811.00
 64.37     907.00
 64.47     973.00
 64.57     984.00
 64.67    1045.00
 64.77     975.16
 64.87    1050.00
 64.97     978.00
 65.07     897.00
 65.17     778.00
 65.27     797.00
 65.37     707.32
 65.47     684.00
 65.57     611.00
 65.67     584.00
 65.77     584.00
 65.87     581.00
 65.97     612.88
 66.07     592.00
 66.17     542.00
 66.27     541.00
 66.37     563.00
 66.47     593.00
 66.57     508.00
 66.67     602.00
 66.77     625.49
 66.87     571.55
 66.97     630.00
 67.07     630.00
 67.17     666.80
 67.27     755.19
 67.37     860.00
 67.47    1054.19
 67.57    1253.09
 67.67    1407.00
 67.77    1594.00
 67.87    1901.00
 67.97    2269.00
 68.07    2280.14
 68.17    2392.00
 68.27    2350.00
 68.37    2095.19
 68.47    2032.00
 68.57    1763.00
 68.67    1459.00
 68.77    1169.00
 68.87     967.00
 68.97     851.00
 69.07     739.00
 69.17     697.00
 69.27     692.27
 69.37     601.92
 69.47     587.00
 69.57     588.00
 69.67     581.00
 69.77     578.00
 69.87     610.00
 69.97     562.00
 70.07     594.00
 70.17     555.09
 70.27     534.00
 70.37     585.00
 70.47     529.38
 70.57     565.00
 70.67     625.26
 70.77     601.00
 70.87     599.78
 70.97     660.04
 71.07     648.03
 71.17     730.00
 71.27     768.00
 71.37     929.00
 71.47     999.00
 71.57    1161.00
 71.67    1351.00
 71.77    1474.83
 71.87    1655.00
 71.97    1803.00
 72.07    1961.70
 72.17    1956.97
 72.27    1836.60
 72.37    1594.84
 72.47    1451.98
 72.57    1305.00
 72.67    1165.00
 72.77    1006.68
 72.87     998.00
 72.97     822.00
 73.07     775.27
 73.17     697.49
 73.27     698.00
 73.37     620.41
 73.47     698.00
 73.57     668.00
 73.67     597.00
 73.77     566.00
 73.87     621.00
 73.97     588.00
 74.07     632.16
 74.17     610.00
 74.27     617.63
 74.37     619.00
 74.47     606.04
 74.57     581.29
 74.67     627.00
 74.77     572.26
 74.87     552.67
 74.97     549.66
 75.07     544.01
 75.17     588.00
 75.27     554.00
 75.37     598.09
 75.47     569.26
 75.57     579.00
 75.67     608.00
 75.77     565.00
 75.87     554.00
 75.97     610.00
 76.07     570.15
 76.17     609.27
 76.27     659.00
 76.37     682.71
 76.47     690.00
 76.57     652.00
 76.67     721.46
 76.77     696.35
 76.87     663.00
 76.97     661.00
 77.07     648.00
 77.17     604.00
 77.27     605.11
 77.37     605.13
 77.47     579.00
 77.57     508.71
 77.67     543.11
 77.77     559.52
 77.87     532.00
 77.97     572.08
 78.07     525.00
 78.17     501.06
 78.27     529.00
 78.37     479.62
 78.47     506.00
 78.57     484.00
 78.67     495.00
 78.77     477.00
 78.87     512.15
 78.97     516.00
 79.07     517.00
 79.17     540.86
 79.27     513.00
 79.37     527.67
 79.47     493.92
 79.57     535.30
 79.67     509.92
 79.77     526.00
 79.87     567.00
 79.97     536.00
 80.07     583.00
 80.17     584.00
 80.27     512.25
 80.37     607.00
 80.47     559.89
 80.57     601.24
 80.67     635.00
 80.77     659.00
 80.87     683.00
 80.97     662.00
 81.07     742.72
 81.17     679.82
 81.27     763.71
 81.37     710.00
 81.47     728.51
 81.57     782.00
 81.67     699.00
 81.77     733.00
 81.87     703.50
 81.97     684.19
 82.07     667.00
 82.17     690.00
 82.27     636.00
 82.37     646.00
 82.47     579.00
 82.57     594.00
 82.67     614.64
 82.77     559.17
 82.87     555.00
 82.97     535.00
 83.07     560.00
 83.17     576.00
 83.27     562.00
 83.37     548.00
 83.47     527.00
 83.57     535.00
 83.67     515.31
 83.77     521.31
 83.87     509.00
 83.97     604.18
 84.07     616.21
 84.17     604.92
 84.27     567.45
 84.37     579.06
 84.47     595.59
 84.57     583.41
 84.67     564.00
 84.77     497.75
 84.87     533.00
 84.97     492.44
 85.07     535.00
 85.17     546.00
 85.27     533.00
 85.37     542.00
 85.47     554.95
 85.57     560.78
 85.67     528.00
 85.77     564.00
 85.87     527.00
 85.97     516.57
 86.07     548.00
 86.17     532.00
 86.27     483.77
 86.37     504.00
 86.47     535.00
 86.57     574.00
 86.67     553.00
 86.77     527.00
 86.87     558.61
 86.97     585.39
 87.07     544.62
 87.17     620.45
 87.27     636.62
 87.37     680.00
 87.47     631.00
 87.57     632.97
 87.67     607.16
 87.77     668.00
 87.87     621.00
 87.97     607.00
 88.07     563.00
 88.17     575.00
 88.27     591.00
 88.37     631.00
 88.47     605.14
 88.57     524.02
 88.67     521.00
 88.77     565.00
 88.87     610.00
 88.97     558.00
 89.07     590.85
 89.17     578.67
 89.27     590.00
 89.37     596.00
 89.47     617.49
 89.57     567.17
 89.67     615.58
 89.77     590.00
 89.87     609.96
 89.97     567.00
 90.07     575.58
 90.17     498.00
 90.27     499.00
 90.37     521.00
 90.47     484.00
 90.57     486.00
 90.67     491.65
 90.77     501.00
 90.87     532.00
 90.97     478.23
 91.07     509.00
 91.17     551.00
 91.27     546.50
 91.37     509.35
 91.47     527.00
 91.57     496.00
 91.67     554.29
 91.77     529.00
 91.87     529.00
 91.97     536.25
 92.07     473.00
 92.17     548.44
 92.27     557.00
 92.37     534.00
 92.47     628.00
 92.57     656.00
 92.67     609.00
 92.77     619.00
 92.87     620.12
 92.97     665.00
 93.07     674.09
 93.17     743.00
 93.27     749.00
 93.37     727.00
 93.47     732.57
 93.57     767.00
 93.67     803.00
 93.77     828.00
 93.87     848.00
 93.97     853.00
 94.07     870.00
 94.17     880.64
 94.27     813.00
 94.37     826.00
 94.47     879.36
 94.57     868.00
 94.67     849.00
 94.77     920.06
 94.87     940.00
 94.97     867.00
 95.07     890.00
 95.17     943.00
 95.27     830.00
 95.37     818.00
 95.47     796.00
 95.57     756.00
 95.67     731.38
 95.77     726.00
 95.87     658.07
 95.97     669.29
 96.07     663.00
 96.17     666.00
 96.27     757.35
 96.37     783.00
 96.47     760.00
 96.57     787.32
 96.67     833.95
 96.77     959.00
 96.87    1038.38
 96.97    1120.00
 97.07    1201.55
 97.17    1255.91
 97.27    1213.00
 97.37    1322.00
 97.47    1379.00
 97.57    1364.48
 97.67    1393.00
 97.77    1436.00
 97.87    1430.00
 97.97    1388.00
 98.07    1226.00
 98.17    1259.00
 98.27    1165.00
 98.37    1151.87
 98.47    1030.00
 98.57    1021.25
 98.67     895.00
 98.77     925.00
 98.87     832.00
 98.97     898.34
 99.07     831.00
 99.17     906.31
 99.27     860.00
 99.37     888.00
 99.47     999.83
 99.57    1021.00
 99.67    1168.42
 99.77    1166.18
 99.87    1279.00
 99.97    1459.00
100.07    1488.68
100.17    1592.00
100.27    1694.00
100.37    1877.99
100.47    1822.00
100.57    1908.00
100.67    2079.00
100.77    1909.00
100.87    2057.00
100.97    1959.49
101.07    2006.00
101.17    1948.00
101.27    1793.00
101.37    1767.00
101.47    1722.00
101.57    1672.71
101.67    1501.19
101.77    1486.57
101.87    1391.00
101.97    1330.00
102.07    1267.00
102.17    1213.84
102.27    1252.00
102.37    1169.00
102.47    1148.48
102.57    1085.00
102.67    1089.00
102.77    1144.00
102.87    1030.22
102.97    1014.00
103.07     935.32
103.17     998.44
103.27     850.59
103.37     872.00
103.47     848.00
103.57     832.00
103.67     786.00
103.77     735.00
103.87     723.00
103.97     671.00
104.07     611.00
104.17     618.00
104.27     574.64
104.37     570.00
104.47     597.66
104.57     585.77
104.67     570.00
104.77     532.00
104.87     564.91
104.97     511.81
105.07     474.81
105.17     499.11
105.27     512.00
105.37     485.12
105.47     572.00
105.57     540.59
105.67     551.27
105.77     545.00
105.87     530.00
105.97     574.45
106.07     557.70
106.17     558.00
106.27     546.00
106.37     590.81
106.47     564.00
106.57     604.00
106.67     618.00
106.77     668.38
106.87     619.00
106.97     631.00
107.07     645.71
107.17     683.00
107.27     651.00
107.37     651.00
107.47     658.02
107.57     702.00
107.67     659.00
107.77     651.97
107.87     702.00
107.97     688.26
108.07     689.00
108.17     729.96
108.27     672.00
108.37     705.00
108.47     671.77
108.57     668.28
108.67     657.00
108.77     693.00
108.87     652.00
108.97     653.14
109.07     727.00
109.17     664.85
109.27     660.00
109.37     654.00
109.47     694.00
109.57     693.69
109.67     643.00
109.77     649.00
109.87     604.00
109.97     619.00
110.07     586.00
110.17     612.30
110.27     576.00
110.37     578.22
110.47     578.00
110.57     550.00
110.67     522.32
110.77     552.39
110.87     564.39
110.97     563.00
111.07     524.00
111.17     539.34
111.27     487.41
111.37     558.00
111.47     524.73
111.57     506.87
111.67     530.00
111.77     573.00
111.87     557.00
111.97     580.46
112.07     571.76
112.17     600.18
112.27     524.70
112.37     570.80
112.47     570.00
112.57     600.58
112.67     565.00
112.77     565.00
112.87     563.00
112.97     592.00
113.07     625.00
113.17     585.56
113.27     634.00
113.37     678.00
113.47     627.23
113.57     718.39
113.67     707.54
113.77     689.94
113.87     715.00
113.97     739.43
114.07     855.16
114.17     832.00
114.27     979.59
114.37     986.00
114.47    1070.00
114.57    1207.00
114.67    1347.00
114.77    1443.00
114.87    1560.00
114.97    1842.00
115.07    1951.91
115.17    2260.00
115.27    2418.27
115.37    2754.00
115.47    2942.00
115.57    3375.00
115.67    3646.81
115.77    4238.00
115.87    4372.18
115.97    4779.00
116.07    5141.00
116.17    5452.92
116.27    5857.00
116.37    6260.00
116.47    6384.73
116.57    6502.33
116.67    6714.00
116.77    6761.32
116.87    6847.01
116.97    6813.00
117.07    6437.01
117.17    6282.54
117.27    6060.00
117.37    5793.22
117.47    5530.70
117.57    4841.00
117.67    4653.00
117.77    4284.00
117.87    4064.00
117.97    3768.00
118.07    3279.53
118.17    3035.00
118.27    2587.42
118.37    2391.00
118.47    2162.00
118.57    1861.00
118.67    1662.00
118.77    1575.03
118.87    1398.00
118.97    1308.13
119.07    1087.21
119.17    1009.63
119.27     968.04
119.37     940.00
119.47     860.38
119.57     793.00
119.67     739.00
119.77     755.11
119.87     648.00
119.97     710.36
120.07     628.00
120.17     640.00
120.27     596.00
120.37     607.00
120.47     605.00
120.57     628.19
120.67     601.70
120.77     537.00
120.87     624.25
120.97     586.40
121.07     585.00
121.17     589.00
121.27     580.00
121.37     578.00
121.47     532.00
121.57     541.56
121.67     605.00
121.77     593.93
121.87     617.37
121.97     629.00
122.07     610.72
122.17     640.34
122.27     636.00
122.37     618.29
122.47     578.30
122.57     672.00
122.67     634.00
122.77     621.00
122.87     683.00
122.97     573.00
123.07     682.09
123.17     628.00
123.27     587.83
123.37     680.62
123.47     609.00
123.57     594.62
123.67     614.00
123.77     614.70
123.87     619.00
123.97     630.00
124.07     652.00
124.17     632.00
124.27     606.00
124.37     644.00
124.47     653.00
124.57     610.00
124.67     613.00
124.77     620.00
124.87     597.38
124.97     553.00
