  9.97     602.00
 10.07     619.00
 10.17     562.48
 10.27     646.00
 10.37     594.00
 10.47     572.48
 10.57     601.00
 10.67     542.00
 10.77     611.00
 10.87     606.00
 10.97     557.00
 11.07     607.00
 11.17     519.72
 11.27     583.09
 11.37     557.00
 11.47     569.26
 11.57     574.00
 11.67     612.00
 11.77     593.00
 11.87     546.54
 11.97     655.79
 12.07     673.00
 12.17     722.00
 12.27     669.00
 12.37     683.52
 12.47     628.11
 12.57     627.00
 12.67     581.00
 12.77     576.63
 12.87     535.50
 12.97     604.00
 13.07     541.00
 13.17     523.61
 13.27     529.26
 13.37     533.00
 13.47     533.00
 13.57     542.00
 13.67     597.01
 13.77     559.00
 13.87     524.14
 13.97     531.50
 14.07     569.00
 14.17     552.00
 14.27     550.95
 14.37     537.96
 14.47     593.60
 14.57     528.00
 14.67     535.00
 14.77     552.00
 14.87     561.52
 14.97     515.00
 15.07     521.06
 15.17     521.00
 15.27     586.02
 15.37     524.67
 15.47     527.00
 15.57     528.17
 15.67     595.26
 15.77     487.00
 15.87     569.00
 15.97     543.05
 16.07     530.00
 16.17     592.00
 16.27     534.00
 16.37     541.00
 16.47     563.51
 16.57     579.32
 16.67     538.00
 16.77     553.00
 16.87     589.02
 16.97     546.00
 17.07     585.32
 17.17     556.00
 17.27     548.00
 17.37     600.26
 17.47     545.00
 17.57     541.00
 17.67     551.00
 17.77     585.59
 17.87     511.00
 17.97     538.00
 18.07     593.00
 18.17     600.00
 18.27     575.00
 18.37     559.93
 18.47     520.00
 18.57     558.00
 18.67     590.75
 18.77     576.00
 18.87     528.00
 18.97     557.00
 19.07     545.00
 19.17     564.00
 19.27     538.00
 19.37     576.00
 19.47     549.00
 19.57     551.00
 19.67     526.00
 19.77     560.00
 19.87     568.00
 19.97     558.00
 20.07     551.00
 20.17     501.00
 20.27     530.00
 20.37     564.89
 20.47     537.00
 20.57     520.00
 20.67     571.00
 20.77     548.33
 20.87     531.00
 20.97     543.00
 21.07     544.00
 21.17     561.00
 21.27     536.00
 21.37     577.00
 21.47     513.00
 21.57     495.00
 21.67     548.00
 21.77     549.84
 21.87     555.33
 21.97     548.00
 22.07     525.00
 22.17     547.69
 22.27     531.21
 22.37     533.00
 22.47     550.00
 22.57     539.00
 22.67     514.06
 22.77     548.00
 22.87     528.24
 22.97     551.00
 23.07     572.00
 23.17     590.00
 23.27     578.22
 23.37     546.00
 23.47     530.11
 23.57     558.00
 23.67     564.00
 23.77     549.00
 23.87     585.86
 23.97     536.00
 24.07     561.13
 24.17     566.58
 24.27     579.25
 24.37     530.70
 24.47     555.42
 24.57     609.00
 24.67     644.00
 24.77     650.20
 24.87     676.00
 24.97     649.00
 25.07     616.00
 25.17     579.00
 25.27     561.00
 25.37     559.22
 25.47     535.76
 25.57     564.00
 25.67     589.00
 25.77     563.00
 25.87     584.00
 25.97     591.00
 26.07     545.18
 26.17     565.00
 26.27     568.00
 26.37     540.00
 26.47     549.00
 26.57     564.00
 26.67     526.46
 26.77     499.82
 26.87     516.17
 26.97     519.37
 27.07     512.21
 27.17     585.00
 27.27     544.00
 27.37     559.00
 27.47     591.00
 27.57     538.66
 27.67     556.80
 27.77     569.00
 27.87     605.00
 27.97     610.00
 28.07     751.00
 28.17     790.00
 28.27     914.00
 28.37     952.00
 28.47     848.39
 28.57     723.03
 28.67     748.00
 28.77     689.00
 28.87     816.00
 28.97     829.15
 29.07     811.71
 29.17     696.00
 29.27     728.00
 29.37     653.60
 29.47     573.34
 29.57     531.01
 29.67     588.00
 29.77     504.00
 29.87     567.09
 29.97     573.00
 30.07     545.00
 30.17     558.00
 30.27     586.00
 30.37     582.00
 30.47     549.00
 30.57     556.00
 30.67     552.00
 30.77     585.00
 30.87     550.10
 30.97     619.00
 31.07     582.00
 31.17     586.00
 31.27     565.00
 31.37     596.91
 31.47     569.00
 31.57     556.00
 31.67     528.74
 31.77     498.00
 31.87     498.39
 31.97     495.53
 32.07     486.29
 32.17     528.00
 32.27     482.45
 32.37     583.00
 32.47     497.52
 32.57     567.00
 32.67     554.00
 32.77     535.14
 32.87     513.19
 32.97     533.00
 33.07     534.00
 33.17     503.00
 33.27     515.63
 33.37     580.74
 33.47     599.57
 33.57     596.91
 33.67     623.00
 33.77     746.55
 33.87     751.00
 33.97     937.00
 34.07     955.28
 34.17     990.00
 34.27     912.33
 34.37     788.97
 34.47     713.00
 34.57     593.00
 34.67     568.00
 34.77     557.00
 34.87     547.00
 34.97     561.87
 35.07     502.00
 35.17     513.00
 35.27     518.00
 35.37     540.00
 35.47     532.00
 35.57     502.00
 35.67     544.13
 35.77     540.00
 35.87     525.00
 35.97     470.00
 36.07     502.36
 36.17     554.00
 36.27     550.00
 36.37     491.00
 36.47     473.25
 36.57     506.61
 36.67     529.00
 36.77     510.00
 36.87     515.00
 36.97     474.00
 37.07     492.00
 37.17     512.00
 37.27     461.00
 37.37     503.00
 37.47     475.00
 37.57     497.00
 37.67     504.00
 37.77     530.00
 37.87     518.00
 37.97     525.00
 38.07     483.13
 38.17     480.00
 38.27     523.00
 38.37     513.26
 38.47     493.00
 38.57     501.61
 38.67     497.00
 38.77     502.21
 38.87     477.52
 38.97     448.00
 39.07     503.00
 39.17     506.00
 39.27     488.00
 39.37     491.84
 39.47     521.16
 39.57     462.00
 39.67     471.66
 39.77     477.00
 39.87     482.00
 39.97     493.66
 40.07     526.00
 40.17     522.00
 40.27     469.09
 40.37     534.20
 40.47     504.00
 40.57     489.00
 40.67     505.39
 40.77     468.00
 40.87     526.06
 40.97     493.77
 41.07     492.00
 41.17     490.00
 41.27     490.75
 41.37     480.00
 41.47     486.00
 41.57     480.31
 41.67     492.00
 41.77     524.00
 41.87     519.00
 41.97     519.13
 42.07     558.00
 42.17     532.00
 42.27     518.53
 42.37     558.88
 42.47     564.00
 42.57     562.00
 42.67     617.00
 42.77     553.00
 42.87     561.16
 42.97     563.54
 43.07     541.22
 43.17     507.00
 43.27     496.00
 43.37     524.00
 43.47     509.00
 43.57     472.00
 43.67     470.62
 43.77     468.00
 43.87     477.49
 43.97     490.00
 44.07     507.00
 44.17     518.00
 44.27     494.75
 44.37     482.00
 44.47     484.00
 44.57     485.00
 44.67     488.00
 44.77     505.00
 44.87     485.00
 44.97     510.00
 45.07     496.00
 45.17     493.14
 45.27     485.21
 45.37     513.00
 45.47     479.00
 45.57     467.46
 45.67     503.82
 45.77     482.05
 45.87     476.00
 45.97     503.00
 46.07     480.00
 46.17     470.41
 46.27     536.00
 46.37     519.53
 46.47     498.00
 46.57     517.91
 46.67     467.00
 46.77     490.85
 46.87     535.57
 46.97     457.98
 47.07     488.00
 47.17     501.00
 47.27     503.00
 47.37     504.92
 47.47     492.00
 47.57     555.41
 47.67     481.00
 47.77     565.00
 47.87     556.00
 47.97     540.95
 48.07     585.81
 48.17     534.79
 48.27     592.80
 48.37     517.00
 48.47     508.06
 48.57     515.00
 48.67     504.00
 48.77     460.00
 48.87     491.01
 48.97     510.05
 49.07     536.71
 49.17     533.00
 49.27     512.42
 49.37     578.00
 49.47     594.00
 49.57     671.00
 49.67     795.00
 49.77     924.56
 49.87    1124.23
 49.97    1512.82
 50.07    1834.00
 50.17    2066.48
 50.27    2340.00
 50.37    2272.00
 50.47    2169.00
 50.57    1684.80
 50.67    1351.00
 50.77    1028.00
 50.87     852.00
 50.97     780.47
 51.07     699.00
 51.17     610.00
 51.27     564.15
 51.37     602.99
 51.47     624.00
 51.57     540.00
 51.67     554.00
 51.77     545.00
 51.87     517.00
 51.97     492.00
 52.07     517.77
 52.17     567.00
 52.27     537.00
 52.37     564.00
 52.47     571.00
 52.57     561.00
 52.67     527.83
 52.77     601.00
 52.87     629.00
 52.97     649.96
 53.07     671.93
 53.17     786.00
 53.27     924.00
 53.37     973.08
 53.47    1163.20
 53.57    1129.00
 53.67    1238.60
 53.77    1119.19
 53.87    1027.00
 53.97     923.00
 54.07     800.95
 54.17     669.06
 54.27     603.32
 54.37     568.38
 54.47     605.00
 54.57     561.00
 54.67     568.00
 54.77     513.68
 54.87     557.00
 54.97     580.22
 55.07     601.00
 55.17     571.00
 55.27     583.00
 55.37     533.90
 55.47     557.00
 55.57     510.62
 55.67     546.00
 55.77     562.00
 55.87     627.91
 55.97     609.00
 56.07     662.00
 56.17     720.00
 56.27     774.00
 56.37     858.00
 56.47    1177.00
 56.57    1463.00
 56.67    1805.22
 56.77    2098.00
 56.87    2340.57
 56.97    2478.00
 57.07    2482.00
 57.17    2292.00
 57.27    1962.00
 57.37    1724.00
 57.47    1342.00
 57.57    1120.00
 57.67     890.81
 57.77     864.30
 57.87     695.00
 57.97     704.00
 58.07     701.00
 58.17     702.00
 58.27     666.75
 58.37     762.00
 58.47     816.00
 58.57     909.00
 58.67     975.00
 58.77    1057.15
 58.87    1102.00
 58.97    1221.16
 59.07    1256.00
 59.17    1239.29
 59.27    1267.00
 59.37    1250.00
 59.47    1236.00
 59.57    1217.00
 59.67    1101.53
 59.77    1103.46
 59.87    1238.00
 59.97    1264.00
 60.07    1413.00
 60.17    1447.87
 60.27    1513.00
 60.37    1514.61
 60.47    1493.00
 60.57    1354.00
 60.67    1244.00
 60.77    1052.10
 60.87     913.00
 60.97     854.92
 61.07     707.55
 61.17     682.00
 61.27     711.00
 61.37     628.00
 61.47     690.00
 61.57     687.00
 61.67     822.60
 61.77     845.22
 61.87     994.08
 61.97    1096.00
 62.07    1169.00
 62.17    1262.00
 62.27    1342.00
 62.37    1403.68
 62.47    1319.99
 62.57    1223.00
 62.67     958.00
 62.77     854.00
 62.87     819.07
 62.97     650.00
 63.07     664.00
 63.17     591.00
 63.27     601.00
 63.37     591.03
 63.47     581.00
 63.57     593.00
 63.67     587.74
 63.77     592.00
 63.87     654.00
 63.97     593.00
 64.07     617.10
 64.17     705.00
 64.27     801.00
 64.37     798.00
 64.47     912.30
 64.57     878.70
 64.67     974.59
 64.77     978.20
 64.87     977.70
 64.97     964.84
 65.07     956.44
 65.17     850.00
 65.27     810.00
 65.37     738.07
 65.47     675.28
 65.57     634.29
 65.67     667.00
 65.77     561.00
 65.87     561.00
 65.97     583.07
 66.07     573.00
 66.17     580.00
 66.27     551.00
 66.37     590.00
 66.47     552.00
 66.57     517.62
 66.67     594.00
 66.77     585.37
 66.87     565.00
 66.97     593.00
 67.07     569.00
 67.17     640.82
 67.27     735.17
 67.37     742.78
 67.47     891.01
 67.57    1046.00
 67.67    1226.00
 67.77    1538.95
 67.87    1761.00
 67.97    2030.93
 68.07    2186.54
 68.17    2332.00
 68.27    2377.00
 68.37    2222.54
 68.47    2167.00
 68.57    1845.61
 68.67    1676.00
 68.77    1393.00
 68.87    1165.00
 68.97     965.95
 69.07     878.00
 69.17     789.00
 69.27     669.00
 69.37     659.00
 69.47     649.00
 69.57     591.19
 69.67     546.50
 69.77     529.18
 69.87     558.00
 69.97     598.88
 70.07     570.00
 70.17     547.43
 70.27     576.00
 70.37     560.79
 70.47     545.58
 70.57     573.00
 70.67     536.00
 70.77     578.52
 70.87     632.57
 70.97     616.00
 71.07     635.78
 71.17     651.92
 71.27     796.00
 71.37     795.71
 71.47     985.87
 71.57    1014.00
 71.67    1287.98
 71.77    1436.00
 71.87    1567.00
 71.97    1746.00
 72.07    1827.77
 72.17    1869.00
 72.27    1823.00
 72.37    1737.00
 72.47    1632.25
 72.57    1450.00
 72.67    1300.00
 72.77    1186.28
 72.87     980.00
 72.97     876.00
 73.07     835.00
 73.17     742.00
 73.27     668.34
 73.37     661.00
 73.47     649.00
 73.57     624.84
 73.67     595.92
 73.77     628.00
 73.87     599.00
 73.97     599.00
 74.07     612.33
 74.17     602.00
 74.27     576.01
 74.37     610.16
 74.47     530.90
 74.57     625.00
 74.67     606.00
 74.77     594.00
 74.87     656.00
 74.97     639.00
 75.07     560.06
 75.17     585.00
 75.27     576.00
 75.37     607.00
 75.47     503.29
 75.57     507.63
 75.67     554.76
 75.77     578.00
 75.87     597.00
 75.97     581.00
 76.07     623.34
 76.17     610.00
 76.27     665.00
 76.37     690.79
 76.47     667.00
 76.57     718.00
 76.67     681.95
 76.77     708.00
 76.87     638.00
 76.97     679.00
 77.07     653.00
 77.17     657.41
 77.27     639.87
 77.37     587.00
 77.47     568.00
 77.57     579.76
 77.67     553.70
 77.77     537.04
 77.87     532.00
 77.97     502.00
 78.07     494.00
 78.17     482.00
 78.27     489.00
 78.37     504.38
 78.47     498.00
 78.57     539.08
 78.67     544.85
 78.77     480.38
 78.87     512.00
 78.97     479.00
 79.07     488.00
 79.17     485.00
 79.27     509.88
 79.37     506.00
 79.47     544.47
 79.57     506.00
 79.67     530.00
 79.77     535.00
 79.87     539.36
 79.97     518.17
 80.07     515.00
 80.17     544.46
 80.27     524.00
 80.37     579.66
 80.47     528.15
 80.57     585.26
 80.67     618.94
 80.77     617.93
 80.87     614.00
 80.97     693.70
 81.07     681.00
 81.17     663.34
 81.27     718.67
 81.37     721.94
 81.47     732.61
 81.57     752.00
 81.67     781.07
 81.77     746.00
 81.87     710.00
 81.97     720.00
 82.07     692.00
 82.17     630.00
 82.27     641.84
 82.37     682.11
 82.47     659.00
 82.57     568.00
 82.67     628.00
 82.77     537.80
 82.87     599.62
 82.97     532.00
 83.07     536.15
 83.17     500.00
 83.27     495.00
 83.37     520.00
 83.47     565.77
 83.57     536.00
 83.67     533.00
 83.77     545.62
 83.87     510.97
 83.97     499.00
 84.07     500.00
 84.17     536.00
 84.27     581.00
 84.37     547.00
 84.47     523.10
 84.57     527.00
 84.67     539.08
 84.77     551.24
 84.87     538.00
 84.97     491.00
 85.07     470.00
 85.17     533.21
 85.27     497.00
 85.37     495.00
 85.47     504.00
 85.57     514.67
 85.67     516.00
 85.77     530.78
 85.87     537.18
 85.97     518.00
 86.07     547.18
 86.17     503.00
 86.27     516.16
 86.37     479.00
 86.47     518.00
 86.57     494.00
 86.67     516.00
 86.77     508.92
 86.87     515.52
 86.97     581.00
 87.07     593.00
 87.17     601.00
 87.27     565.00
 87.37     551.04
 87.47     598.00
 87.57     618.00
 87.67     585.22
 87.77     646.00
 87.87     590.52
 87.97     557.55
 88.07     550.21
 88.17     621.00
 88.27     529.14
 88.37     573.54
 88.47     572.97
 88.57     561.00
 88.67     538.00
 88.77     566.02
 88.87     583.96
 88.97     587.00
 89.07     587.53
 89.17     575.50
 89.27     562.00
 89.37     539.22
 89.47     607.00
 89.57     541.58
 89.67     562.00
 89.77     574.00
 89.87     544.00
 89.97     546.30
 90.07     607.00
 90.17     541.22
 90.27     530.00
 90.37     527.00
 90.47     533.00
 90.57     558.00
 90.67     539.00
 90.77     485.38
 90.87     480.00
 90.97     528.00
 91.07     488.00
 91.17     505.00
 91.27     527.09
 91.37     466.00
 91.47     537.00
 91.57     503.00
 91.67     555.63
 91.77     549.00
 91.87     534.00
 91.97     560.11
 92.07     524.14
 92.17     503.00
 92.27     513.00
 92.37     547.00
 92.47     609.00
 92.57     615.93
 92.67     632.00
 92.77     659.42
 92.87     617.00
 92.97     662.00
 93.07     705.08
 93.17     696.00
 93.27     706.00
 93.37     723.75
 93.47     752.00
 93.57     784.00
 93.67     787.00
 93.77     830.00
 93.87     749.05
 93.97     861.00
 94.07     822.00
 94.17     765.36
 94.27     828.00
 94.37     842.00
 94.47     888.00
 94.57     871.06
 94.67     907.62
 94.77     879.00
 94.87     860.00
 94.97     894.00
 95.07     887.00
 95.17     862.70
 95.27     839.23
 95.37     844.24
 95.47     786.66
 95.57     771.00
 95.67     745.00
 95.77     709.16
 95.87     740.00
 95.97     740.43
 96.07     693.00
 96.17     724.00
 96.27     738.78
 96.37     747.26
 96.47     728.54
 96.57     819.00
 96.67     767.65
 96.77     842.00
 96.87     901.00
 96.97     997.00
 97.07    1052.31
 97.17    1168.00
 97.27    1216.00
 97.37    1194.00
 97.47    1326.00
 97.57    1438.70
 97.67    1387.08
 97.77    1322.00
 97.87    1403.00
 97.97    1444.00
 98.07    1396.26
 98.17    1267.00
 98.27    1239.78
 98.37    1146.00
 98.47    1056.78
 98.57    1028.45
 98.67    1022.19
 98.77     980.80
 98.87     918.00
 98.97     805.00
 99.07     847.00
 99.17     853.00
 99.27     860.00
 99.37     865.00
 99.47     922.00
 99.57     916.00
 99.67    1022.00
 99.77    1158.00
 99.87    1168.27
 99.97    1240.47
100.07    1384.30
100.17    1416.00
100.27    1579.00
100.37    1603.00
100.47    1781.00
100.57    1846.00
100.67    1827.79
100.77    1968.00
100.87    1965.00
100.97    2033.00
101.07    1946.96
101.17    1985.00
101.27    1887.00
101.37    1909.00
101.47    1836.00
101.57    1672.00
101.67    1620.00
101.77    1534.00
101.87    1490.68
101.97    1409.00
102.07    1341.00
102.17    1223.00
102.27    1270.00
102.37    1215.42
102.47    1223.74
102.57    1137.00
102.67    1184.00
102.77    1083.75
102.87    1042.00
102.97    1115.00
103.07    1020.00
103.17    1001.00
103.27     962.00
103.37     966.44
103.47     846.27
103.57     851.00
103.67     850.00
103.77     779.00
103.87     783.00
103.97     658.00
104.07     662.00
104.17     608.64
104.27     598.33
104.37     592.00
104.47     576.00
104.57     604.00
104.67     574.61
104.77     523.00
104.87     516.42
104.97     568.52
105.07     553.00
105.17     572.00
105.27     582.00
105.37     589.00
105.47     557.00
105.57     568.00
105.67     529.00
105.77     537.00
105.87     491.22
105.97     567.02
106.07     530.00
106.17     532.85
106.27     575.00
106.37     578.00
106.47     531.21
106.57     583.00
106.67     579.00
106.77     565.48
106.87     611.29
106.97     675.57
107.07     666.00
107.17     695.79
107.27     664.00
107.37     681.00
107.47     612.00
107.57     702.00
107.67     726.00
107.77     659.00
107.87     686.82
107.97     665.00
108.07     702.00
108.17     641.42
108.27     673.00
108.37     664.00
108.47     663.00
108.57     704.00
108.67     701.00
108.77     639.00
108.87     648.38
108.97     645.00
109.07     727.00
109.17     673.38
109.27     700.38
109.37     704.91
109.47     648.33
109.57     704.00
109.67     656.00
109.77     648.00
109.87     673.00
109.97     670.61
110.07     657.30
110.17     573.16
110.27     609.00
110.37     562.00
110.47     562.00
110.57     585.85
110.67     560.00
110.77     557.35
110.87     567.00
110.97     554.00
111.07     556.69
111.17     535.00
111.27     497.09
111.37     550.69
111.47     582.00
111.57     544.00
111.67     562.88
111.77     513.29
111.87     530.00
111.97     522.00
112.07     581.00
112.17     508.00
112.27     563.58
112.37     580.00
112.47     580.00
112.57     551.00
112.67     585.00
112.77     558.00
112.87     530.00
112.97     580.00
113.07     607.00
113.17     623.33
113.27     631.48
113.37     647.10
113.47     633.00
113.57     622.25
113.67     683.00
113.77     607.00
113.87     712.00
113.97     708.78
114.07     705.00
114.17     805.00
114.27     817.00
114.37     916.00
114.47     979.00
114.57     984.00
114.67    1213.00
114.77    1224.00
114.87    1412.00
114.97    1534.00
115.07    1618.01
115.17    1916.00
115.27    2025.13
115.37    2386.00
115.47    2613.00
115.57    2953.00
115.67    3279.00
115.77    3688.08
115.87    3961.69
115.97    4236.83
116.07    4637.01
116.17    5174.57
116.27    5457.00
116.37    5728.00
116.47    6006.00
116.57    6341.10
116.67    6586.00
116.77    6676.00
116.87    6757.12
116.97    6936.00
117.07    6863.00
117.17    6782.00
117.27    6704.00
117.37    6232.00
117.47    5911.00
117.57    5727.86
117.67    5337.00
117.77    5033.00
117.87    4615.00
117.97    4255.00
118.07    3909.69
118.17    3468.00
118.27    3329.00
118.37    3062.00
118.47    2712.71
118.57    2410.00
118.67    2198.82
118.77    1772.00
118.87    1635.69
118.97    1594.06
119.07    1335.00
119.17    1222.00
119.27    1142.94
119.37    1048.00
119.47     960.57
119.57     930.00
119.67     918.00
119.77     797.00
119.87     755.00
119.97     674.97
120.07     737.00
120.17     658.00
120.27     639.00
120.37     635.00
120.47     615.00
120.57     638.99
120.67     564.18
120.77     616.35
120.87     578.00
120.97     608.00
121.07     565.00
121.17     588.91
121.27     578.00
121.37     560.67
121.47     588.18
121.57     526.00
121.67     569.00
121.77     600.00
121.87     566.26
121.97     552.52
122.07     576.77
122.17     618.88
122.27     610.00
122.37     621.00
122.47     591.00
122.57     661.00
122.67     615.00
122.77     595.47
122.87     620.87
122.97     645.00
123.07     650.00
123.17     672.72
123.27     617.00
123.37     665.65
123.47     610.00
123.57     643.00
123.67     636.00
123.77     617.42
123.87     624.00
123.97     614.27
124.07     624.62
124.17     600.15
124.27     607.87
124.37     609.00
124.47     606.00
124.57     560.00
124.67     612.16
124.77     545.46
124.87     533.02
124.97     607.00
