  9.97     619.00
 10.07     579.33
 10.17     579.39
 10.27     614.00
 10.37     639.43
 10.47     593.90
 10.57     600.00
 10.67     622.65
 10.77     594.00
 10.87     625.00
 10.97     644.00
 11.07     603.00
 11.17     640.00
 11.27     547.07
 11.37     643.00
 11.47     594.00
 11.57     600.12
 11.67     618.00
 11.77     625.00
 11.87     679.00
 11.97     634.78
 12.07     726.26
 12.17     768.00
 12.27     739.00
 12.37     679.83
 12.47     672.00
 12.57     681.63
 12.67     636.00
 12.77     661.34
 12.87     572.00
 12.97     584.86
 13.07     658.26
 13.17     593.00
 13.27     648.44
 13.37     594.82
 13.47     558.67
 13.57     593.00
 13.67     614.00
 13.77     595.00
 13.87     638.22
 13.97     583.00
 14.07     588.00
 14.17     592.75
 14.27     587.00
 14.37     556.00
 14.47     557.93
 14.57     593.41
 14.67     634.87
 14.77     577.00
 14.87     641.89
 14.97     586.00
 15.07     578.00
 15.17     605.00
 15.27     591.00
 15.37     611.04
 15.47     587.00
 15.57     597.00
 15.67     588.76
 15.77     555.00
 15.87     576.63
 15.97     573.00
 16.07     546.00
 16.17     550.00
 16.27     638.86
 16.37     593.00
 16.47     605.00
 16.57     523.00
 16.67     543.00
 16.77     596.68
 16.87     587.00
 16.97     596.00
 17.07     629.75
 17.17     548.00
 17.27     620.10
 17.37     590.16
 17.47     611.00
 17.57     560.00
 17.67     592.78
 17.77     602.92
 17.87     606.91
 17.97     592.00
 18.07     574.00
 18.17     590.00
 18.27     555.37
 18.37     563.70
 18.47     578.00
 18.57     593.00
 18.67     648.30
 18.77     596.00
 18.87     570.00
 18.97     601.00
 19.07     604.00
 19.17     593.00
 19.27     590.00
 19.37     567.64
 19.47     565.00
 19.57     615.66
 19.67     566.00
 19.77     593.35
 19.87     592.00
 19.97     595.00
 20.07     600.00
 20.17     616.95
 20.27     531.00
 20.37     621.42
 20.47     574.00
 20.57     532.00
 20.67     562.53
 20.77     593.00
 20.87     565.00
 20.97     555.00
 21.07     583.00
 21.17     589.00
 21.27     592.00
 21.37     629.46
 21.47     598.00
 21.57     524.00
 21.67     614.00
 21.77     558.00
 21.87     644.13
 21.97     610.00
 22.07     582.00
 22.17     552.00
 22.27     569.00
 22.37     588.00
 22.47     624.00
 22.57     587.84
 22.67     565.10
 22.77     596.00
 22.87     576.00
 22.97     648.00
 23.07     558.00
 23.17     584.00
 23.27     635.00
 23.37     567.00
 23.47     576.14
 23.57     551.31
 23.67     559.00
 23.77     589.00
 23.87     581.20
 23.97     570.14
 24.07     596.00
 24.17     580.00
 24.27     594.89
 24.37     628.05
 24.47     636.00
 24.57     642.05
 24.67     629.00
 24.77     655.00
 24.87     726.00
 24.97     633.35
 25.07     672.62
 25.17     620.63
 25.27     593.50
 25.37     662.07
 25.47     590.19
 25.57     587.41
 25.67     626.00
 25.77     602.91
 25.87     547.41
 25.97     642.77
 26.07     634.00
 26.17     589.00
 26.27     638.00
 26.37     575.00
 26.47     614.00
 26.57     636.00
 26.67     632.00
 26.77     587.82
 26.87     614.05
 26.97     650.00
 27.07     609.00
 27.17     669.00
 27.27     637.00
 27.37     612.50
 27.47     649.00
 27.57     656.00
 27.67     712.00
 27.77     668.00
 27.87     606.11
 27.97     694.00
 28.07     752.00
 28.17     817.00
 28.27     962.00
 28.37     886.66
 28.47     945.00
 28.57     868.44
 28.67     864.00
 28.77     747.00
 28.87     769.63
 28.97     851.00
 29.07     916.00
 29.17     787.24
 29.27     780.00
 29.37     724.00
 29.47     731.00
 29.57     681.00
 29.67     683.00
 29.77     639.00
 29.87     678.00
 29.97     672.00
 30.07     692.00
 30.17     630.06
 30.27     653.00
 30.37     630.00
 30.47     642.00
 30.57     688.00
 30.67     639.00
 30.77     587.93
 30.87     667.00
 30.97     673.00
 31.07     710.00
 31.17     692.00
 31.27     642.00
 31.37     619.60
 31.47     677.00
 31.57     609.00
 31.67     585.00
 31.77     596.00
 31.87     613.53
 31.97     586.18
 32.07     629.00
 32.17     569.00
 32.27     605.00
 32.37     609.86
 32.47     602.00
 32.57     531.80
 32.67     571.00
 32.77     563.00
 32.87     572.00
 32.97     535.00
 33.07     571.19
 33.17     504.00
 33.27     545.00
 33.37     570.97
 33.47     625.00
 33.57     582.64
 33.67     663.00
 33.77     706.66
 33.87     784.53
 33.97     880.36
 34.07     916.89
 34.17    1100.75
 34.27    1045.00
 34.37     884.93
 34.47     816.00
 34.57     747.00
 34.67     626.00
 34.77     634.00
 34.87     603.00
 34.97     568.00
 35.07     582.00
 35.17     558.00
 35.27     582.00
 35.37     539.87
 35.47     532.00
 35.57     587.00
 35.67     568.00
 35.77     556.00
 35.87     541.00
 35.97     538.00
 36.07     540.00
 36.17     559.00
 36.27     581.68
 36.37     541.59
 36.47     544.38
 36.57     518.00
 36.67     522.00
 36.77     548.54
 36.87     557.00
 36.97     525.15
 37.07     552.02
 37.17     509.00
 37.27     509.02
 37.37     523.00
 37.47     567.00
 37.57     529.00
 37.67     551.00
 37.77     536.00
 37.87     550.00
 37.97     553.17
 38.07     598.09
 38.17     513.10
 38.27     542.00
 38.37     520.22
 38.47     494.00
 38.57     518.00
 38.67     502.00
 38.77     547.79
 38.87     543.65
 38.97     552.00
 39.07     578.78
 39.17     506.25
 39.27     524.00
 39.37     485.55
 39.47     555.00
 39.57     551.00
 39.67     523.00
 39.77     537.30
 39.87     487.09
 39.97     535.13
 40.07     550.26
 40.17     509.93
 40.27     567.24
 40.37     541.81
 40.47     507.00
 40.57     537.90
 40.67     549.00
 40.77     523.00
 40.87     507.00
 40.97     554.04
 41.07     532.00
 41.17     463.00
 41.27     526.00
 41.37     514.00
 41.47     547.00
 41.57     478.00
 41.67     520.00
 41.77     534.00
 41.87     530.00
 41.97     542.51
 42.07     525.00
 42.17     500.00
 42.27     477.00
 42.37     510.27
 42.47     605.75
 42.57     550.00
 42.67     550.00
 42.77     584.61
 42.87     590.00
 42.97     587.00
 43.07     584.34
 43.17     582.00
 43.27     551.84
 43.37     512.43
 43.47     532.00
 43.57     475.00
 43.67     516.00
 43.77     521.00
 43.87     518.00
 43.97     512.00
 44.07     531.39
 44.17     550.69
 44.27     478.00
 44.37     472.20
 44.47     473.00
 44.57     527.96
 44.67     508.82
 44.77     499.00
 44.87     556.63
 44.97     478.37
 45.07     493.00
 45.17     556.90
 45.27     517.00
 45.37     520.14
 45.47     518.00
 45.57     484.00
 45.67     535.00
 45.77     501.85
 45.87     547.00
 45.97     524.29
 46.07     574.00
 46.17     520.00
 46.27     494.84
 46.37     503.15
 46.47     509.00
 46.57     537.21
 46.67     528.16
 46.77     489.00
 46.87     518.00
 46.97     556.62
 47.07     549.00
 47.17     475.77
 47.27     553.00
 47.37     540.00
 47.47     506.30
 47.57     497.00
 47.67     584.00
 47.77     581.76
 47.87     610.00
 47.97     588.00
 48.07     602.00
 48.17     582.00
 48.27     565.06
 48.37     544.14
 48.47     604.00
 48.57     549.00
 48.67     592.00
 48.77     547.00
 48.87     567.00
 48.97     571.00
 49.07     569.00
 49.17     535.14
 49.27     550.00
 49.37     559.00
 49.47     624.00
 49.57     601.00
 49.67     644.00
 49.77     874.14
 49.87     974.00
 49.97    1157.00
 50.07    1573.00
 50.17    1830.00
 50.27    2240.28
 50.37    2325.00
 50.47    2306.28
 50.57    2107.00
 50.67    1725.00
 50.77    1344.18
 50.87    1049.00
 50.97     960.06
 51.07     753.00
 51.17     707.00
 51.27     633.00
 51.37     642.40
 51.47     678.00
 51.57     594.21
 51.67     588.00
 51.77     606.00
 51.87     636.00
 51.97     560.72
 52.07     590.00
 52.17     589.00
 52.27     568.00
 52.37     596.42
 52.47     590.58
 52.57     597.48
 52.67     610.25
 52.77     586.84
 52.87     633.00
 52.97     609.53
 53.07     683.60
 53.17     688.18
 53.27     819.00
 53.37     930.00
 53.47     975.54
 53.57    1098.00
 53.67    1175.00
 53.77    1156.00
 53.87    1176.50
 53.97    1113.05
 54.07     943.00
 54.17     870.00
 54.27     765.00
 54.37     700.00
 54.47     643.00
 54.57     677.70
 54.67     655.90
 54.77     604.00
 54.87     575.00
 54.97     609.84
 55.07     617.02
 55.17     611.00
 55.27     554.00
 55.37     600.71
 55.47     548.00
 55.57     632.32
 55.67     577.00
 55.77     553.99
 55.87     647.00
 55.97     644.00
 56.07     663.00
 56.17     708.00
 56.27     724.00
 56.37     819.00
 56.47    1011.98
 56.57    1160.00
 56.67    1532.80
 56.77    1778.88
 56.87    2086.00
 56.97    2458.24
 57.07    2500.13
 57.17    2496.00
 57.27    2391.16
 57.37    2040.00
 57.47    1784.00
 57.57    1428.00
 57.67    1222.00
 57.77     932.00
 57.87     868.00
 57.97     798.00
 58.07     695.00
 58.17     701.76
 58.27     665.63
 58.37     671.00
 58.47     806.08
 58.57     775.00
 58.67     863.00
 58.77     985.00
 58.87    1038.00
 58.97    1119.00
 59.07    1254.00
 59.17    1265.00
 59.27    1232.00
 59.37    1320.00
 59.47    1312.00
 59.57    1235.13
 59.67    1174.00
 59.77    1221.00
 59.87    1224.00
 59.97    1217.00
 60.07    1298.00
 60.17    1280.83
 60.27    1544.00
 60.37    1420.24
 60.47    1567.00
 60.57    1496.00
 60.67    1415.00
 60.77    1329.00
 60.87    1198.00
 60.97    1036.16
 61.07     919.00
 61.17     849.45
 61.27     792.66
 61.37     718.00
 61.47     702.80
 61.57     686.69
 61.67     736.65
 61.77     803.49
 61.87     832.61
 61.97    1009.33
 62.07    1170.75
 62.17    1167.00
 62.27    1353.40
 62.37    1308.16
 62.47    1284.00
 62.57    1294.00
 62.67    1176.00
 62.77    1056.91
 62.87     936.87
 62.97     778.00
 63.07     784.00
 63.17     679.82
 63.27     601.00
 63.37     628.00
 63.47     647.00
 63.57     559.49
 63.67     607.00
 63.77     595.15
 63.87     660.47
 63.97     676.00
 64.07     644.00
 64.17     690.00
 64.27     722.59
 64.37     759.47
 64.47     875.00
 64.57     890.00
 64.67     957.00
 64.77    1032.00
 64.87     978.67
 64.97    1004.00
 65.07    1041.00
 65.17     948.00
 65.27     901.81
 65.37     812.00
 65.47     816.00
 65.57     738.93
 65.67     726.13
 65.77     670.00
 65.87     651.00
 65.97     636.00
 66.07     647.00
 66.17     613.00
 66.27     600.49
 66.37     554.68
 66.47     552.09
 66.57     622.44
 66.67     625.22
 66.77     555.70
 66.87     641.00
 66.97     625.00
 67.07     683.98
 67.17     636.49
 67.27     686.00
 67.37     759.00
 67.47     831.00
 67.57     897.00
 67.67    1056.00
 67.77    1224.02
 67.87    1454.00
 67.97    1699.82
 68.07    1909.00
 68.17    2150.47
 68.27    2326.00
 68.37    2434.00
 68.47    2226.51
 68.57    2231.00
 68.67    2011.00
 68.77    1872.00
 68.87    1451.00
 68.97    1243.00
 69.07    1112.00
 69.17     933.86
 69.27     850.28
 69.37     739.00
 69.47     723.62
 69.57     652.00
 69.67     627.02
 69.77     648.00
 69.87     579.00
 69.97     652.75
 70.07     633.00
 70.17     600.00
 70.27     638.18
 70.37     595.00
 70.47     587.00
 70.57     574.09
 70.67     614.88
 70.77     569.41
 70.87     653.00
 70.97     672.00
 71.07     605.13
 71.17     679.00
 71.27     709.00
 71.37     744.00
 71.47     828.09
 71.57     953.00
 71.67     981.00
 71.77    1235.07
 71.87    1304.00
 71.97    1542.00
 72.07    1629.00
 72.17    1731.00
 72.27    1750.11
 72.37    1844.00
 72.47    1811.00
 72.57    1692.05
 72.67    1451.82
 72.77    1449.00
 72.87    1254.00
 72.97    1120.59
 73.07     958.74
 73.17     913.00
 73.27     838.17
 73.37     792.00
 73.47     754.00
 73.57     702.00
 73.67     697.00
 73.77     661.00
 73.87     575.62
 73.97     632.00
 74.07     583.00
 74.17     603.00
 74.27     556.00
 74.37     558.27
 74.47     575.97
 74.57     571.00
 74.67     649.00
 74.77     606.16
 74.87     669.00
 74.97     548.48
 75.07     625.00
 75.17     654.00
 75.27     562.76
 75.37     589.55
 75.47     596.00
 75.57     583.00
 75.67     593.00
 75.77     572.00
 75.87     581.00
 75.97     619.89
 76.07     612.00
 76.17     644.00
 76.27     630.52
 76.37     637.00
 76.47     667.00
 76.57     650.02
 76.67     689.71
 76.77     715.91
 76.87     767.10
 76.97     704.00
 77.07     711.00
 77.17     677.00
 77.27     656.00
 77.37     595.17
 77.47     668.66
 77.57     579.00
 77.67     570.00
 77.77     535.93
 77.87     552.00
 77.97     597.18
 78.07     501.30
 78.17     539.00
 78.27     551.00
 78.37     557.00
 78.47     530.26
 78.57     515.00
 78.67     513.00
 78.77     555.00
 78.87     500.00
 78.97     544.00
 79.07     544.00
 79.17     521.56
 79.27     549.00
 79.37     483.00
 79.47     479.74
 79.57     492.53
 79.67     550.00
 79.77     527.00
 79.87     494.00
 79.97     517.00
 80.07     520.61
 80.17     538.00
 80.27     574.00
 80.37     577.00
 80.47     611.00
 80.57     570.00
 80.67     592.00
 80.77     609.00
 80.87     636.00
 80.97     596.00
 81.07     615.00
 81.17     622.00
 81.27     681.00
 81.37     711.00
 81.47     712.00
 81.57     794.17
 81.67     763.00
 81.77     737.00
 81.87     779.45
 81.97     788.00
 82.07     744.00
 82.17     761.88
 82.27     702.00
 82.37     760.00
 82.47     646.00
 82.57     634.00
 82.67     654.35
 82.77     615.00
 82.87     584.07
 82.97     632.59
 83.07     615.36
 83.17     598.00
 83.27     575.00
 83.37     549.02
 83.47     526.00
 83.57     543.00
 83.67     549.49
 83.77     544.00
 83.87     545.79
 83.97     607.58
 84.07     573.00
 84.17     554.46
 84.27     554.00
 84.37     536.00
 84.47     589.00
 84.57     551.00
 84.67     596.97
 84.77     575.74
 84.87     573.28
 84.97     567.00
 85.07     521.00
 85.17     497.00
 85.27     559.00
 85.37     510.38
 85.47     539.63
 85.57     526.00
 85.67     506.00
 85.77     524.12
 85.87     535.00
 85.97     557.00
 86.07     575.32
 86.17     514.38
 86.27     513.00
 86.37     535.00
 86.47     539.60
 86.57     531.00
 86.67     541.00
 86.77     545.00
 86.87     550.94
 86.97     542.00
 87.07     573.00
 87.17     605.78
 87.27     550.74
 87.37     560.06
 87.47     584.00
 87.57     666.57
 87.67     638.00
 87.77     643.00
 87.87     593.01
 87.97     655.00
 88.07     689.00
 88.17     668.52
 88.27     623.00
 88.37     570.30
 88.47     581.00
 88.57     565.00
 88.67     606.00
 88.77     556.00
 88.87     565.00
 88.97     540.00
 89.07     570.00
 89.17     601.13
 89.27     611.25
 89.37     585.35
 89.47     607.00
 89.57     630.00
 89.67     616.71
 89.77     619.00
 89.87     603.00
 89.97     573.00
 90.07     636.32
 90.17     581.82
 90.27     519.00
 90.37     604.00
 90.47     570.00
 90.57     529.00
 90.67     595.41
 90.77     547.84
 90.87     571.98
 90.97     515.00
 91.07     521.00
 91.17     509.00
 91.27     502.58
 91.37     511.86
 91.47     540.14
 91.57     504.00
 91.67     497.55
 91.77     512.00
 91.87     543.00
 91.97     468.00
 92.07     561.00
 92.17     520.00
 92.27     514.61
 92.37     530.00
 92.47     534.00
 92.57     566.00
 92.67     558.73
 92.77     604.00
 92.87     634.18
 92.97     686.87
 93.07     681.97
 93.17     702.28
 93.27     638.70
 93.37     691.24
 93.47     744.00
 93.57     712.00
 93.67     740.00
 93.77     758.00
 93.87     713.00
 93.97     810.18
 94.07     838.00
 94.17     843.00
 94.27     843.00
 94.37     832.00
 94.47     867.56
 94.57     885.00
 94.67     890.00
 94.77     821.71
 94.87     868.00
 94.97     936.00
 95.07     946.00
 95.17     901.24
 95.27     868.00
 95.37     906.00
 95.47     837.96
 95.57     902.00
 95.67     892.00
 95.77     861.34
 95.87     806.00
 95.97     786.00
 96.07     773.00
 96.17     736.00
 96.27     749.00
 96.37     710.00
 96.47     698.00
 96.57     706.70
 96.67     797.00
 96.77     791.97
 96.87     843.00
 96.97     911.00
 97.07     966.00
 97.17    1012.00
 97.27    1047.52
 97.37    1176.00
 97.47    1229.00
 97.57    1263.00
 97.67    1416.67
 97.77    1410.00
 97.87    1464.00
 97.97    1444.00
 98.07    1434.26
 98.17    1461.00
 98.27    1383.00
 98.37    1438.00
 98.47    1292.57
 98.57    1198.30
 98.67    1243.74
 98.77    1126.42
 98.87    1095.88
 98.97    1012.85
 99.07     994.00
 99.17     951.72
 99.27     873.26
 99.37     926.61
 99.47     943.00
 99.57     934.00
 99.67     984.00
 99.77     939.00
 99.87    1097.95
 99.97    1117.60
100.07    1190.10
100.17    1238.59
100.27    1350.00
100.37    1533.00
100.47    1532.99
100.57    1665.00
100.67    1764.79
100.77    1832.00
100.87    1849.29
100.97    1888.47
101.07    1931.33
101.17    1965.00
101.27    1873.39
101.37    1980.00
101.47    1924.00
101.57    1813.17
101.67    1888.73
101.77    1801.67
101.87    1687.00
101.97    1554.87
102.07    1509.15
102.17    1513.00
102.27    1438.29
102.37    1317.17
102.47    1278.00
102.57    1286.00
102.67    1168.00
102.77    1138.00
102.87    1222.86
102.97    1190.48
103.07    1155.00
103.17    1110.83
103.27    1027.49
103.37    1007.00
103.47    1011.00
103.57    1015.00
103.67     907.00
103.77     915.04
103.87     895.00
103.97     862.00
104.07     846.00
104.17     816.00
104.27     687.19
104.37     717.29
104.47     637.00
104.57     645.00
104.67     590.34
104.77     644.00
104.87     542.45
104.97     619.54
105.07     598.00
105.17     583.00
105.27     606.00
105.37     566.00
105.47     564.00
105.57     517.00
105.67     542.57
105.77     494.56
105.87     569.00
105.97     576.00
106.07     587.00
106.17     523.00
106.27     562.00
106.37     566.00
106.47     525.68
106.57     556.80
106.67     549.92
106.77     576.00
106.87     618.13
106.97     645.00
107.07     654.00
107.17     684.00
107.27     631.00
107.37     673.00
107.47     664.24
107.57     739.42
107.67     667.75
107.77     742.32
107.87     753.95
107.97     648.00
108.07     664.03
108.17     697.00
108.27     703.33
108.37     708.05
108.47     764.61
108.57     709.77
108.67     663.00
108.77     671.00
108.87     683.34
108.97     697.00
109.07     656.00
109.17     732.00
109.27     701.00
109.37     695.00
109.47     760.23
109.57     694.00
109.67     692.00
109.77     665.92
109.87     688.71
109.97     666.00
110.07     678.00
110.17     701.21
110.27     664.00
110.37     653.77
110.47     661.53
110.57     661.00
110.67     598.00
110.77     566.00
110.87     621.00
110.97     546.84
111.07     558.40
111.17     558.00
111.27     505.52
111.37     558.00
111.47     539.05
111.57     531.49
111.67     547.00
111.77     573.41
111.87     561.00
111.97     575.00
112.07     561.00
112.17     533.00
112.27     568.00
112.37     558.00
112.47     519.00
112.57     588.71
112.67     617.00
112.77     540.46
112.87     555.00
112.97     580.00
113.07     539.26
113.17     608.00
113.27     590.00
113.37     538.80
113.47     567.15
113.57     595.00
113.67     624.00
113.77     634.00
113.87     639.00
113.97     680.00
114.07     684.00
114.17     713.00
114.27     695.01
114.37     752.00
114.47     823.00
114.57     798.55
114.67     842.00
114.77    1002.21
114.87    1029.00
114.97    1152.30
115.07    1334.00
115.17    1331.40
115.27    1684.00
115.37    1844.00
115.47    2027.00
115.57    2244.00
115.67    2559.00
115.77    2845.00
115.87    3094.39
115.97    3430.00
116.07    3710.55
116.17    4078.00
116.27    4454.00
116.37    4906.99
116.47    5306.32
116.57    5457.14
116.67    6039.03
116.77    6237.00
116.87    6464.00
116.97    6559.62
117.07    6895.00
117.17    6854.30
117.27    7080.00
117.37    7086.00
117.47    7031.00
117.57    6897.13
117.67    6465.81
117.77    6072.00
117.87    5715.00
117.97    5378.00
118.07    5094.00
118.17    4744.00
118.27    4399.00
118.37    4073.00
118.47    3886.00
118.57    3400.00
118.67    3002.30
118.77    2721.32
118.87    2619.00
118.97    2313.72
119.07    1990.00
119.17    1866.00
119.27    1651.00
119.37    1480.00
119.47    1458.00
119.57    1263.00
119.67    1195.00
119.77    1075.00
119.87     990.86
119.97     966.47
120.07     882.00
120.17     800.00
120.27     849.96
120.37     757.00
120.47     759.00
120.57     735.00
120.67     678.00
120.77     665.00
120.87     638.00
120.97     634.63
121.07     614.00
121.17     617.00
121.27     678.00
121.37     582.82
121.47     586.00
121.57     637.00
121.67     582.00
121.77     648.59
121.87     560.00
121.97     603.83
122.07     638.95
122.17     586.43
122.27     588.50
122.37     607.00
122.47     652.58
122.57     659.00
122.67     616.00
122.77     675.00
122.87     646.05
122.97     646.00
123.07     671.00
123.17     643.00
123.27     693.00
123.37     675.00
123.47     698.57
123.57     661.00
123.67     616.00
123.77     669.45
123.87     657.00
123.97     647.00
124.07     675.00
124.17     598.88
124.27     687.58
124.37     607.66
124.47     655.00
124.57     614.00
124.67     620.00
124.77     627.00
124.87     585.00
124.97     597.00
