  9.97     621.00
 10.07     596.00
 10.17     567.00
 10.27     631.00
 10.37     542.71
 10.47     543.00
 10.57     601.00
 10.67     621.00
 10.77     593.00
 10.87     638.00
 10.97     553.00
 11.07     600.00
 11.17     564.00
 11.27     555.44
 11.37     533.63
 11.47     585.78
 11.57     529.33
 11.67     619.76
 11.77     657.00
 11.87     577.15
 11.97     641.36
 12.07     606.00
 12.17     735.39
 12.27     684.00
 12.37     697.00
 12.47     617.00
 12.57     579.82
 12.67     601.00
 12.77     578.00
 12.87     607.72
 12.97     600.78
 13.07     569.00
 13.17     595.00
 13.27     536.00
 13.37     561.00
 13.47     598.38
 13.57     541.00
 13.67     586.84
 13.77     528.61
 13.87     557.00
 13.97     552.00
 14.07     525.00
 14.17     517.00
 14.27     558.00
 14.37     603.82
 14.47     595.00
 14.57     566.00
 14.67     537.00
 14.77     537.78
 14.87     584.98
 14.97     544.00
 15.07     516.00
 15.17     570.00
 15.27     591.97
 15.37     541.00
 15.47     568.00
 15.57     581.00
 15.67     583.00
 15.77     563.00
 15.87     566.53
 15.97     596.64
 16.07     571.33
 16.17     567.00
 16.27     574.00
 16.37     585.00
 16.47     539.00
 16.57     562.00
 16.67     579.17
 16.77     542.00
 16.87     584.00
 16.97     572.00
 17.07     509.00
 17.17     605.45
 17.27     554.00
 17.37     591.16
 17.47     541.00
 17.57     515.00
 17.67     517.00
 17.77     566.00
 17.87     526.00
 17.97     585.00
 18.07     535.64
 18.17     576.74
 18.27     557.00
 18.37     585.00
 18.47     554.41
 18.57     569.00
 18.67     576.00
 18.77     545.00
 18.87     550.00
 18.97     571.00
 19.07     590.00
 19.17     540.00
 19.27     544.00
 19.37     535.00
 19.47     557.00
 19.57     520.00
 19.67     529.00
 19.77     557.00
 19.87     513.10
 19.97     565.00
 20.07     554.00
 20.17     584.34
 20.27     548.00
 20.37     567.67
 20.47     530.00
 20.57     542.61
 20.67     542.31
 20.77     536.93
 20.87     544.00
 20.97     595.04
 21.07     555.00
 21.17     520.00
 21.27     565.00
 21.37     521.27
 21.47     536.00
 21.57     571.93
 21.67     518.81
 21.77     566.00
 21.87     557.00
 21.97     573.00
 22.07     567.45
 22.17     521.00
 22.27     537.00
 22.37     569.00
 22.47     508.67
 22.57     554.77
 22.67     527.00
 22.77     560.00
 22.87     535.00
 22.97     543.00
 23.07     545.21
 23.17     573.69
 23.27     532.00
 23.37     558.00
 23.47     531.00
 23.57     563.00
 23.67     586.00
 23.77     504.00
 23.87     563.50
 23.97     558.41
 24.07     559.00
 24.17     586.11
 24.27     588.66
 24.37     568.49
 24.47     589.00
 24.57     599.00
 24.67     638.00
 24.77     675.77
 24.87     662.14
 24.97     647.54
 25.07     638.00
 25.17     579.00
 25.27     508.00
 25.37     545.00
 25.47     559.43
 25.57     543.00
 25.67     535.01
 25.77     508.00
 25.87     539.98
 25.97     547.00
 26.07     553.54
 26.17     533.56
 26.27     510.02
 26.37     571.96
 26.47     523.00
 26.57     518.00
 26.67     525.00
 26.77     544.00
 26.87     543.00
 26.97     580.00
 27.07     523.00
 27.17     575.00
 27.27     549.36
 27.37     543.00
 27.47     539.00
 27.57     554.00
 27.67     619.00
 27.77     577.00
 27.87     583.42
 27.97     695.00
 28.07     765.00
 28.17     916.00
 28.27     976.00
 28.37     855.33
 28.47     783.00
 28.57     685.44
 28.67     730.00
 28.77     691.02
 28.87     832.00
 28.97     802.76
 29.07     761.58
 29.17     699.57
 29.27     617.00
 29.37     605.39
 29.47     588.23
 29.57     568.00
 29.67     579.00
 29.77     603.00
 29.87     609.00
 29.97     522.00
 30.07     574.00
 30.17     595.00
 30.27     581.00
 30.37     589.00
 30.47     516.23
 30.57     588.00
 30.67     597.47
 30.77     611.00
 30.87     648.00
 30.97     615.00
 31.07     621.03
 31.17     580.16
 31.27     563.00
 31.37     502.71
 31.47     533.00
 31.57     542.67
 31.67     564.85
 31.77     566.89
 31.87     547.06
 31.97     488.00
 32.07     520.00
 32.17     542.16
 32.27     544.00
 32.37     549.63
 32.47     553.37
 32.57     516.41
 32.67     575.00
 32.77     503.03
 32.87     554.00
 32.97     512.00
 33.07     519.00
 33.17     560.00
 33.27     558.21
 33.37     573.96
 33.47     536.49
 33.57     566.28
 33.67     629.00
 33.77     727.00
 33.87     872.00
 33.97     981.00
 34.07    1087.00
 34.17    1032.00
 34.27     937.37
 34.37     734.00
 34.47     641.00
 34.57     556.09
 34.67     528.00
 34.77     536.00
 34.87     534.00
 34.97     503.87
 35.07     519.00
 35.17     465.00
 35.27     482.00
 35.37     496.98
 35.47     496.00
 35.57     501.00
 35.67     539.21
 35.77     533.00
 35.87     504.00
 35.97     549.00
 36.07     509.00
 36.17     531.00
 36.27     490.00
 36.37     502.00
 36.47     544.67
 36.57     536.00
 36.67     500.49
 36.77     535.90
 36.87     548.22
 36.97     500.00
 37.07     504.58
 37.17     543.05
 37.27     569.00
 37.37     540.43
 37.47     498.07
 37.57     511.78
 37.67     547.21
 37.77     530.00
 37.87     516.00
 37.97     528.66
 38.07     502.00
 38.17     533.00
 38.27     523.00
 38.37     515.00
 38.47     475.79
 38.57     530.00
 38.67     496.00
 38.77     549.66
 38.87     531.00
 38.97     479.33
 39.07     518.57
 39.17     516.00
 39.27     515.00
 39.37     491.56
 39.47     522.00
 39.57     465.00
 39.67     547.00
 39.77     537.00
 39.87     499.03
 39.97     503.00
 40.07     474.00
 40.17     483.00
 40.27     502.98
 40.37     532.44
 40.47     547.38
 40.57     494.00
 40.67     497.00
 40.77     491.92
 40.87     469.00
 40.97     538.66
 41.07     459.00
 41.17     518.00
 41.27     480.85
 41.37     482.00
 41.47     502.00
 41.57     547.87
 41.67     520.00
 41.77     499.00
 41.87     498.00
 41.97     512.00
 42.07     447.00
 42.17     531.00
 42.27     521.00
 42.37     582.00
 42.47     631.12
 42.57     595.38
 42.67     617.00
 42.77     598.04
 42.87     571.00
 42.97     558.00
 43.07     559.00
 43.17     558.75
 43.27     555.00
 43.37     519.00
 43.47     514.00
 43.57     478.00
 43.67     518.00
 43.77     520.00
 43.87     470.36
 43.97     570.00
 44.07     504.95
 44.17     499.00
 44.27     514.00
 44.37     514.00
 44.47     541.00
 44.57     510.00
 44.67     495.00
 44.77     513.13
 44.87     497.00
 44.97     556.00
 45.07     541.82
 45.17     491.37
 45.27     482.85
 45.37     541.86
 45.47     484.00
 45.57     510.00
 45.67     518.00
 45.77     517.00
 45.87     531.00
 45.97     528.00
 46.07     514.73
 46.17     471.72
 46.27     531.83
 46.37     475.00
 46.47     515.78
 46.57     483.35
 46.67     511.00
 46.77     541.00
 46.87     487.54
 46.97     503.00
 47.07     497.00
 47.17     501.51
 47.27     541.00
 47.37     525.00
 47.47     535.57
 47.57     531.00
 47.67     568.07
 47.77     591.83
 47.87     618.00
 47.97     625.72
 48.07     565.45
 48.17     595.43
 48.27     580.00
 48.37     530.00
 48.47     554.14
 48.57     489.00
 48.67     562.00
 48.77     574.98
 48.87     574.98
 48.97     582.68
 49.07     559.46
 49.17     589.76
 49.27     632.01
 49.37     645.00
 49.47     655.00
 49.57     758.10
 49.67     876.38
 49.77    1174.00
 49.87    1465.00
 49.97    1899.78
 50.07    2173.00
 50.17    2435.00
 50.27    2398.08
 50.37    2245.00
 50.47    1798.00
 50.57    1373.00
 50.67    1089.34
 50.77     895.00
 50.87     701.78
 50.97     631.00
 51.07     660.46
 51.17     638.00
 51.27     611.00
 51.37     572.00
 51.47     547.36
 51.57     530.00
 51.67     546.00
 51.77     551.00
 51.87     552.42
 51.97     567.46
 52.07     534.90
 52.17     541.33
 52.27     566.79
 52.37     566.00
 52.47     545.00
 52.57     569.00
 52.67     553.18
 52.77     586.00
 52.87     623.75
 52.97     768.00
 53.07     892.00
 53.17     950.00
 53.27     977.95
 53.37    1167.00
 53.47    1237.00
 53.57    1201.02
 53.67    1097.00
 53.77     952.00
 53.87     877.00
 53.97     773.00
 54.07     668.23
 54.17     620.00
 54.27     610.00
 54.37     576.98
 54.47     590.00
 54.57     595.00
 54.67     598.00
 54.77     574.00
 54.87     531.00
 54.97     500.61
 55.07     577.73
 55.17     539.00
 55.27     547.00
 55.37     552.09
 55.47     576.00
 55.57     526.00
 55.67     552.00
 55.77     534.88
 55.87     627.00
 55.97     614.00
 56.07     699.00
 56.17     724.00
 56.27     891.50
 56.37    1113.00
 56.47    1409.00
 56.57    1723.00
 56.67    2112.57
 56.77    2496.00
 56.87    2633.00
 56.97    2630.00
 57.07    2380.58
 57.17    2091.00
 57.27    1697.00
 57.37    1376.00
 57.47    1059.68
 57.57     903.00
 57.67     759.00
 57.77     729.00
 57.87     641.08
 57.97     618.00
 58.07     627.59
 58.17     689.00
 58.27     798.62
 58.37     798.00
 58.47     981.00
 58.57    1027.24
 58.67    1212.74
 58.77    1264.00
 58.87    1442.00
 58.97    1450.00
 59.07    1555.00
 59.17    1487.00
 59.27    1446.00
 59.37    1372.00
 59.47    1194.51
 59.57    1203.00
 59.67    1115.66
 59.77    1189.80
 59.87    1268.00
 59.97    1316.00
 60.07    1449.00
 60.17    1584.00
 60.27    1589.06
 60.37    1454.00
 60.47    1390.62
 60.57    1251.28
 60.67    1061.19
 60.77     950.72
 60.87     835.43
 60.97     714.00
 61.07     653.00
 61.17     634.00
 61.27     670.02
 61.37     611.00
 61.47     693.00
 61.57     715.37
 61.67     900.00
 61.77     974.23
 61.87    1021.00
 61.97    1242.54
 62.07    1335.00
 62.17    1377.00
 62.27    1395.70
 62.37    1288.00
 62.47    1266.57
 62.57    1025.00
 62.67     936.00
 62.77     780.00
 62.87     673.00
 62.97     643.00
 63.07     604.44
 63.17     555.00
 63.27     591.00
 63.37     607.00
 63.47     568.09
 63.57     565.00
 63.67     573.64
 63.77     601.00
 63.87     647.00
 63.97     666.00
 64.07     681.00
 64.17     809.51
 64.27     912.00
 64.37     899.00
 64.47     997.00
 64.57    1048.09
 64.67    1079.74
 64.77    1003.18
 64.87     991.00
 64.97     948.00
 65.07     876.00
 65.17     789.00
 65.27     735.00
 65.37     712.38
 65.47     685.67
 65.57     647.00
 65.67     644.18
 65.77     573.00
 65.87     600.55
 65.97     614.19
 66.07     584.00
 66.17     577.00
 66.27     607.00
 66.37     541.88
 66.47     513.00
 66.57     606.08
 66.67     578.00
 66.77     545.83
 66.87     622.00
 66.97     606.00
 67.07     648.00
 67.17     666.38
 67.27     825.60
 67.37     850.14
 67.47    1071.48
 67.57    1322.00
 67.67    1552.00
 67.77    1902.00
 67.87    2025.35
 67.97    2340.00
 68.07    2404.35
 68.17    2471.00
 68.27    2257.90
 68.37    2078.00
 68.47    1850.00
 68.57    1577.72
 68.67    1251.00
 68.77    1032.31
 68.87     891.00
 68.97     797.65
 69.07     683.00
 69.17     618.00
 69.27     589.00
 69.37     641.00
 69.47     612.00
 69.57     574.00
 69.67     540.00
 69.77     559.00
 69.87     597.00
 69.97     571.00
 70.07     579.00
 70.17     561.05
 70.27     574.50
 70.37     523.56
 70.47     546.75
 70.57     594.00
 70.67     543.00
 70.77     558.40
 70.87     648.13
 70.97     601.00
 71.07     631.00
 71.17     675.00
 71.27     848.00
 71.37     963.00
 71.47    1104.72
 71.57    1201.00
 71.67    1479.00
 71.77    1625.00
 71.87    1855.00
 71.97    1801.39
 72.07    1826.00
 72.17    1892.00
 72.27    1748.00
 72.37    1615.00
 72.47    1514.76
 72.57    1322.00
 72.67    1047.00
 72.77     982.00
 72.87     914.00
 72.97     798.00
 73.07     763.77
 73.17     775.98
 73.27     720.34
 73.37     635.00
 73.47     629.59
 73.57     611.00
 73.67     619.37
 73.77     589.00
 73.87     614.85
 73.97     585.00
 74.07     574.62
 74.17     609.00
 74.27     608.00
 74.37     559.98
 74.47     660.00
 74.57     642.00
 74.67     667.00
 74.77     604.00
 74.87     585.00
 74.97     571.73
 75.07     578.00
 75.17     611.00
 75.27     593.00
 75.37     523.87
 75.47     582.00
 75.57     558.36
 75.67     580.67
 75.77     596.00
 75.87     584.93
 75.97     648.00
 76.07     627.96
 76.17     626.00
 76.27     643.00
 76.37     696.00
 76.47     632.00
 76.57     665.12
 76.67     663.00
 76.77     678.61
 76.87     621.00
 76.97     648.00
 77.07     605.00
 77.17     586.00
 77.27     605.00
 77.37     539.61
 77.47     547.00
 77.57     553.67
 77.67     547.00
 77.77     504.00
 77.87     562.11
 77.97     567.31
 78.07     532.00
 78.17     488.00
 78.27     480.00
 78.37     533.71
 78.47     496.00
 78.57     537.00
 78.67     519.23
 78.77     492.00
 78.87     539.53
 78.97     539.00
 79.07     554.58
 79.17     550.00
 79.27     539.00
 79.37     509.22
 79.47     551.96
 79.57     514.00
 79.67     568.00
 79.77     522.00
 79.87     573.13
 79.97     558.00
 80.07     547.00
 80.17     573.00
 80.27     604.74
 80.37     583.37
 80.47     551.00
 80.57     577.00
 80.67     590.60
 80.77     695.00
 80.87     681.11
 80.97     709.00
 81.07     662.00
 81.17     717.00
 81.27     734.00
 81.37     680.00
 81.47     778.00
 81.57     740.00
 81.67     702.17
 81.77     680.35
 81.87     680.70
 81.97     685.59
 82.07     696.86
 82.17     637.00
 82.27     675.00
 82.37     637.00
 82.47     580.62
 82.57     572.00
 82.67     597.61
 82.77     544.00
 82.87     507.00
 82.97     523.00
 83.07     536.00
 83.17     521.00
 83.27     561.00
 83.37     547.00
 83.47     577.73
 83.57     552.34
 83.67     535.00
 83.77     591.93
 83.87     549.80
 83.97     564.00
 84.07     534.72
 84.17     568.00
 84.27     528.15
 84.37     526.99
 84.47     565.15
 84.57     557.00
 84.67     542.00
 84.77     536.54
 84.87     528.39
 84.97     519.76
 85.07     532.00
 85.17     515.00
 85.27     523.96
 85.37     543.00
 85.47     522.00
 85.57     550.95
 85.67     525.00
 85.77     528.18
 85.87     541.00
 85.97     531.00
 86.07     573.46
 86.17     540.00
 86.27     526.00
 86.37     542.00
 86.47     543.75
 86.57     563.00
 86.67     596.00
 86.77     568.00
 86.87     558.00
 86.97     626.81
 87.07     632.00
 87.17     621.00
 87.27     674.60
 87.37     633.00
 87.47     667.00
 87.57     652.24
 87.67     615.00
 87.77     649.00
 87.87     649.00
 87.97     626.56
 88.07     604.00
 88.17     618.00
 88.27     576.00
 88.37     611.04
 88.47     623.00
 88.57     594.00
 88.67     592.25
 88.77     559.00
 88.87     593.60
 88.97     582.00
 89.07     592.00
 89.17     598.00
 89.27     607.00
 89.37     600.00
 89.47     570.71
 89.57     562.06
 89.67     615.00
 89.77     622.60
 89.87     556.61
 89.97     551.26
 90.07     566.11
 90.17     562.00
 90.27     568.00
 90.37     516.00
 90.47     506.00
 90.57     533.00
 90.67     552.00
 90.77     523.85
 90.87     499.00
 90.97     540.00
 91.07     529.00
 91.17     532.00
 91.27     482.00
 91.37     547.00
 91.47     530.00
 91.57     532.53
 91.67     543.84
 91.77     507.00
 91.87     546.00
 91.97     563.00
 92.07     520.00
 92.17     545.13
 92.27     577.00
 92.37     582.00
 92.47     594.00
 92.57     632.93
 92.67     703.00
 92.77     696.00
 92.87     754.00
 92.97     727.67
 93.07     831.00
 93.17     727.72
 93.27     801.00
 93.37     763.00
 93.47     851.00
 93.57     838.04
 93.67     802.33
 93.77     844.46
 93.87     839.00
 93.97     878.17
 94.07     860.17
 94.17     846.00
 94.27     816.00
 94.37     895.14
 94.47     914.00
 94.57     938.00
 94.67     945.00
 94.77     829.30
 94.87     903.61
 94.97     924.00
 95.07     911.94
 95.17     811.72
 95.27     854.00
 95.37     775.00
 95.47     736.53
 95.57     799.00
 95.67     722.00
 95.77     653.84
 95.87     698.00
 95.97     696.00
 96.07     720.00
 96.17     684.88
 96.27     733.00
 96.37     696.00
 96.47     827.52
 96.57     902.96
 96.67     945.00
 96.77    1004.00
 96.87    1124.69
 96.97    1164.00
 97.07    1270.27
 97.17    1215.18
 97.27    1404.03
 97.37    1310.00
 97.47    1416.00
 97.57    1436.32
 97.67    1456.56
 97.77    1365.00
 97.87    1396.80
 97.97    1294.50
 98.07    1258.00
 98.17    1104.11
 98.27    1113.48
 98.37    1000.09
 98.47     960.40
 98.57     898.09
 98.67     848.56
 98.77     846.00
 98.87     822.00
 98.97     764.28
 99.07     799.00
 99.17     897.14
 99.27     869.00
 99.37     957.30
 99.47    1051.00
 99.57    1030.93
 99.67    1215.00
 99.77    1313.26
 99.87    1341.00
 99.97    1463.00
100.07    1559.68
100.17    1754.00
100.27    1901.00
100.37    1960.00
100.47    2024.00
100.57    2099.03
100.67    2007.00
100.77    2074.00
100.87    2046.57
100.97    2024.51
101.07    1908.36
101.17    1886.00
101.27    1776.00
101.37    1635.00
101.47    1506.00
101.57    1515.00
101.67    1418.00
101.77    1332.00
101.87    1225.00
101.97    1199.00
102.07    1187.00
102.17    1164.00
102.27    1129.00
102.37    1094.00
102.47    1118.00
102.57    1105.00
102.67    1081.00
102.77    1029.00
102.87     991.00
102.97     967.00
103.07     908.06
103.17     899.00
103.27     801.00
103.37     822.00
103.47     804.00
103.57     702.43
103.67     713.00
103.77     708.00
103.87     673.01
103.97     586.13
104.07     598.00
104.17     611.00
104.27     591.00
104.37     545.43
104.47     519.00
104.57     569.00
104.67     557.00
104.77     502.00
104.87     498.89
104.97     513.18
105.07     542.00
105.17     571.16
105.27     506.28
105.37     503.00
105.47     523.00
105.57     504.00
105.67     581.25
105.77     549.00
105.87     598.14
105.97     585.38
106.07     561.00
106.17     603.00
106.27     601.92
106.37     601.00
106.47     607.00
106.57     667.60
106.67     688.37
106.77     690.00
106.87     657.62
106.97     602.00
107.07     667.00
107.17     649.00
107.27     707.00
107.37     650.00
107.47     646.00
107.57     715.00
107.67     694.00
107.77     675.00
107.87     678.00
107.97     697.00
108.07     738.95
108.17     695.00
108.27     701.00
108.37     708.15
108.47     709.00
108.57     692.16
108.67     688.39
108.77     689.00
108.87     674.00
108.97     692.00
109.07     685.00
109.17     633.00
109.27     654.00
109.37     662.40
109.47     621.00
109.57     618.00
109.67     625.00
109.77     633.00
109.87     579.23
109.97     618.00
110.07     575.00
110.17     530.43
110.27     575.96
110.37     566.98
110.47     513.61
110.57     581.25
110.67     551.02
110.77     553.00
110.87     579.08
110.97     506.96
111.07     536.00
111.17     566.00
111.27     522.67
111.37     523.15
111.47     512.01
111.57     543.36
111.67     558.00
111.77     523.83
111.87     570.00
111.97     552.00
112.07     547.00
112.17     533.00
112.27     532.53
112.37     625.94
112.47     631.77
112.57     573.84
112.67     635.99
112.77     636.96
112.87     663.75
112.97     686.96
113.07     675.94
113.17     649.02
113.27     741.00
113.37     772.00
113.47     760.00
113.57     805.00
113.67     769.00
113.77     806.00
113.87     869.00
113.97     910.00
114.07     994.00
114.17    1048.18
114.27    1133.78
114.37    1200.00
114.47    1212.94
114.57    1373.00
114.67    1506.80
114.77    1693.00
114.87    1809.30
114.97    2094.59
115.07    2429.00
115.17    2583.00
115.27    2886.00
115.37    3145.00
115.47    3360.00
115.57    3772.00
115.67    4180.00
115.77    4467.00
115.87    4761.00
115.97    5426.91
116.07    5664.00
116.17    5880.77
116.27    6386.89
116.37    6745.00
116.47    6818.50
116.57    6680.07
116.67    6850.00
116.77    6847.00
116.87    6791.00
116.97    6549.00
117.07    6200.00
117.17    6092.00
117.27    5746.00
117.37    5276.00
117.47    4963.46
117.57    4748.13
117.67    4244.00
117.77    4080.00
117.87    3429.20
117.97    3223.00
118.07    2772.45
118.17    2503.00
118.27    2234.00
118.37    1983.00
118.47    1821.04
118.57    1553.46
118.67    1391.00
118.77    1270.00
118.87    1122.00
118.97    1034.00
119.07     946.00
119.17     893.00
119.27     799.00
119.37     771.00
119.47     759.00
119.57     710.16
119.67     679.00
119.77     678.00
119.87     644.00
119.97     658.00
120.07     570.89
120.17     651.01
120.27     579.76
120.37     600.00
120.47     556.89
120.57     619.50
120.67     614.00
120.77     562.55
120.87     589.25
120.97     600.00
121.07     604.00
121.17     555.00
121.27     554.00
121.37     557.00
121.47     627.47
121.57     562.00
121.67     546.09
121.77     567.70
121.87     573.00
121.97     608.00
122.07     627.00
122.17     621.00
122.27     619.00
122.37     660.00
122.47     608.11
122.57     630.00
122.67     590.64
122.77     641.00
122.87     728.00
122.97     595.51
123.07     601.94
123.17     638.04
123.27     652.00
123.37     601.14
123.47     665.00
123.57     621.00
123.67     600.00
123.77     602.00
123.87     643.00
123.97     636.34
124.07     602.45
124.17     604.00
124.27     625.00
124.37     640.00
124.47     585.00
124.57     601.00
124.67     545.28
124.77     605.00
124.87     576.08
124.97     610.00
