  9.97     564.00
 10.07     556.00
 10.17     588.00
 10.27     528.04
 10.37     634.00
 10.47     547.00
 10.57     615.00
 10.67     544.00
 10.77     560.00
 10.87     577.00
 10.97     545.54
 11.07     568.47
 11.17     568.00
 11.27     552.00
 11.37     538.62
 11.47     546.74
 11.57     603.00
 11.67     620.00
 11.77     588.00
 11.87     675.00
 11.97     627.00
 12.07     716.74
 12.17     677.19
 12.27     663.92
 12.37     677.00
 12.47     606.37
 12.57     580.32
 12.67     564.00
 12.77     595.00
 12.87     580.00
 12.97     590.00
 13.07     549.00
 13.17     534.68
 13.27     563.00
 13.37     560.00
 13.47     609.68
 13.57     551.00
 13.67     547.00
 13.77     583.00
 13.87     588.96
 13.97     553.00
 14.07     594.50
 14.17     542.00
 14.27     553.00
 14.37     553.36
 14.47     565.00
 14.57     574.00
 14.67     570.00
 14.77     554.00
 14.87     541.00
 14.97     589.82
 15.07     603.00
 15.17     567.00
 15.27     529.00
 15.37     586.38
 15.47     545.00
 15.57     552.00
 15.67     552.00
 15.77     525.35
 15.87     574.91
 15.97     576.00
 16.07     570.00
 16.17     562.00
 16.27     581.00
 16.37     581.00
 16.47     566.00
 16.57     531.20
 16.67     586.00
 16.77     559.00
 16.87     565.00
 16.97     587.00
 17.07     539.93
 17.17     559.09
 17.27     537.57
 17.37     569.00
 17.47     583.95
 17.57     594.01
 17.67     530.39
 17.77     594.52
 17.87     556.09
 17.97     576.00
 18.07     582.00
 18.17     559.00
 18.27     584.00
 18.37     574.00
 18.47     590.00
 18.57     562.41
 18.67     553.00
 18.77     567.09
 18.87     534.00
 18.97     542.00
 19.07     537.00
 19.17     544.00
 19.27     537.91
 19.37     580.26
 19.47     589.00
 19.57     593.20
 19.67     586.00
 19.77     593.65
 19.87     518.00
 19.97     576.63
 20.07     589.10
 20.17     581.80
 20.27     564.00
 20.37     553.00
 20.47     533.00
 20.57     536.00
 20.67     508.00
 20.77     540.00
 20.87     548.09
 20.97     522.28
 21.07     581.00
 21.17     563.35
 21.27     545.34
 21.37     538.00
 21.47     525.00
 21.57     550.00
 21.67     562.00
 21.77     525.00
 21.87     567.00
 21.97     559.00
 22.07     553.00
 22.17     517.00
 22.27     586.21
 22.37     526.00
 22.47     549.00
 22.57     514.00
 22.67     550.00
 22.77     583.76
 22.87     553.00
 22.97     581.00
 23.07     583.59
 23.17     538.00
 23.27     548.00
 23.37     509.00
 23.47     525.00
 23.57     579.47
 23.67     542.00
 23.77     552.00
 23.87     535.00
 23.97     589.48
 24.07     577.83
 24.17     524.87
 24.27     543.00
 24.37     533.98
 24.47     603.92
 24.57     570.00
 24.67     606.53
 24.77     635.09
 24.87     604.00
 24.97     640.00
 25.07     591.00
 25.17     579.00
 25.27     532.05
 25.37     578.03
 25.47     541.00
 25.57     524.50
 25.67     549.12
 25.77     600.00
 25.87     564.00
 25.97     556.00
 26.07     531.00
 26.17     552.79
 26.27     564.00
 26.37     549.00
 26.47     556.00
 26.57     524.00
 26.67     552.00
 26.77     541.00
 26.87     525.00
 26.97     517.00
 27.07     547.00
 27.17     570.00
 27.27     546.00
 27.37     575.61
 27.47     549.00
 27.57     610.00
 27.67     574.00
 27.77     600.00
 27.87     594.00
 27.97     663.86
 28.07     779.87
 28.17     894.90
 28.27     983.00
 28.37     931.61
 28.47     750.72
 28.57     753.64
 28.67     688.48
 28.77     748.00
 28.87     836.74
 28.97     790.00
 29.07     782.00
 29.17     688.00
 29.27     636.00
 29.37     632.44
 29.47     530.65
 29.57     558.40
 29.67     553.93
 29.77     560.92
 29.87     551.00
 29.97     549.00
 30.07     544.26
 30.17     550.00
 30.27     578.61
 30.37     589.00
 30.47     603.00
 30.57     580.00
 30.67     566.11
 30.77     575.00
 30.87     558.85
 30.97     619.56
 31.07     560.00
 31.17     560.00
 31.27     589.36
 31.37     534.00
 31.47     554.00
 31.57     556.47
 31.67     572.00
 31.77     527.00
 31.87     557.00
 31.97     525.00
 32.07     518.01
 32.17     530.00
 32.27     552.40
 32.37     508.04
 32.47     538.00
 32.57     528.36
 32.67     533.00
 32.77     506.00
 32.87     544.00
 32.97     565.11
 33.07     572.30
 33.17     567.00
 33.27     522.00
 33.37     548.00
 33.47     557.27
 33.57     550.03
 33.67     611.43
 33.77     789.00
 33.87     896.00
 33.97     994.49
 34.07    1029.00
 34.17    1029.00
 34.27     897.00
 34.37     741.00
 34.47     692.20
 34.57     565.11
 34.67     567.05
 34.77     511.00
 34.87     514.24
 34.97     537.00
 35.07     495.00
 35.17     553.00
 35.27     555.15
 35.37     535.10
 35.47     527.37
 35.57     505.00
 35.67     481.00
 35.77     486.00
 35.87     503.05
 35.97     515.00
 36.07     541.00
 36.17     532.00
 36.27     533.20
 36.37     529.00
 36.47     517.47
 36.57     475.00
 36.67     536.00
 36.77     510.00
 36.87     532.00
 36.97     507.00
 37.07     477.00
 37.17     548.00
 37.27     515.00
 37.37     502.00
 37.47     521.18
 37.57     479.00
 37.67     527.18
 37.77     511.00
 37.87     521.00
 37.97     532.00
 38.07     478.64
 38.17     517.00
 38.27     500.00
 38.37     484.00
 38.47     538.18
 38.57     536.65
 38.67     513.00
 38.77     488.00
 38.87     524.00
 38.97     493.00
 39.07     488.00
 39.17     473.00
 39.27     490.00
 39.37     528.00
 39.47     458.00
 39.57     514.12
 39.67     475.00
 39.77     515.67
 39.87     546.00
 39.97     495.00
 40.07     485.00
 40.17     543.00
 40.27     491.00
 40.37     491.00
 40.47     464.00
 40.57     515.57
 40.67     494.00
 40.77     495.00
 40.87     489.00
 40.97     492.16
 41.07     518.00
 41.17     469.91
 41.27     471.72
 41.37     498.00
 41.47     485.00
 41.57     522.00
 41.67     466.00
 41.77     514.01
 41.87     483.00
 41.97     510.00
 42.07     534.00
 42.17     472.00
 42.27     522.00
 42.37     551.00
 42.47     543.91
 42.57     624.95
 42.67     592.00
 42.77     612.84
 42.87     618.00
 42.97     591.00
 43.07     548.00
 43.17     506.00
 43.27     553.00
 43.37     502.00
 43.47     539.26
 43.57     489.79
 43.67     512.00
 43.77     472.00
 43.87     519.00
 43.97     517.27
 44.07     479.47
 44.17     510.96
 44.27     515.00
 44.37     470.00
 44.47     537.06
 44.57     515.00
 44.67     472.00
 44.77     510.00
 44.87     503.26
 44.97     514.00
 45.07     490.91
 45.17     540.75
 45.27     531.00
 45.37     482.88
 45.47     511.44
 45.57     532.00
 45.67     466.04
 45.77     476.00
 45.87     481.00
 45.97     509.00
 46.07     529.00
 46.17     492.00
 46.27     455.00
 46.37     531.00
 46.47     467.31
 46.57     488.00
 46.67     495.00
 46.77     506.00
 46.87     513.78
 46.97     529.75
 47.07     496.65
 47.17     516.00
 47.27     537.00
 47.37     535.97
 47.47     582.00
 47.57     562.38
 47.67     566.00
 47.77     614.00
 47.87     560.00
 47.97     564.36
 48.07     610.00
 48.17     566.00
 48.27     567.52
 48.37     521.42
 48.47     517.20
 48.57     562.00
 48.67     536.00
 48.77     515.62
 48.87     570.19
 48.97     561.00
 49.07     542.00
 49.17     600.88
 49.27     569.48
 49.37     629.53
 49.47     638.00
 49.57     754.57
 49.67     837.00
 49.77    1227.00
 49.87    1443.87
 49.97    1834.00
 50.07    2244.00
 50.17    2363.86
 50.27    2395.00
 50.37    2316.19
 50.47    1826.46
 50.57    1516.70
 50.67    1134.00
 50.77     850.00
 50.87     706.52
 50.97     690.00
 51.07     676.21
 51.17     647.90
 51.27     637.00
 51.37     550.54
 51.47     579.00
 51.57     524.13
 51.67     574.00
 51.77     502.65
 51.87     529.18
 51.97     505.87
 52.07     529.00
 52.17     564.00
 52.27     552.12
 52.37     562.70
 52.47     563.00
 52.57     555.16
 52.67     600.69
 52.77     608.00
 52.87     622.91
 52.97     697.63
 53.07     871.00
 53.17     945.00
 53.27    1056.00
 53.37    1126.00
 53.47    1226.02
 53.57    1166.77
 53.67    1163.15
 53.77    1043.00
 53.87     902.00
 53.97     766.32
 54.07     730.56
 54.17     630.07
 54.27     582.00
 54.37     562.75
 54.47     536.29
 54.57     616.00
 54.67     587.00
 54.77     509.50
 54.87     524.00
 54.97     618.00
 55.07     550.00
 55.17     569.00
 55.27     558.00
 55.37     550.00
 55.47     617.00
 55.57     525.45
 55.67     573.00
 55.77     579.00
 55.87     563.21
 55.97     605.47
 56.07     730.44
 56.17     722.00
 56.27     911.00
 56.37    1121.00
 56.47    1398.00
 56.57    1828.68
 56.67    2215.00
 56.77    2569.83
 56.87    2662.00
 56.97    2665.16
 57.07    2316.04
 57.17    2095.00
 57.27    1635.90
 57.37    1355.85
 57.47    1075.00
 57.57     912.68
 57.67     728.39
 57.77     671.00
 57.87     711.00
 57.97     683.10
 58.07     701.34
 58.17     731.37
 58.27     742.00
 58.37     842.14
 58.47     880.00
 58.57     971.20
 58.67    1073.69
 58.77    1246.00
 58.87    1356.00
 58.97    1392.42
 59.07    1443.00
 59.17    1356.97
 59.27    1355.99
 59.37    1199.93
 59.47    1242.00
 59.57    1095.38
 59.67    1213.00
 59.77    1119.00
 59.87    1168.37
 59.97    1322.00
 60.07    1372.66
 60.17    1495.00
 60.27    1572.00
 60.37    1516.00
 60.47    1350.00
 60.57    1168.00
 60.67    1107.00
 60.77     948.49
 60.87     814.12
 60.97     724.00
 61.07     654.00
 61.17     616.34
 61.27     635.00
 61.37     631.08
 61.47     675.00
 61.57     733.55
 61.67     860.00
 61.77     943.07
 61.87    1099.00
 61.97    1223.93
 62.07    1417.45
 62.17    1329.00
 62.27    1321.00
 62.37    1321.00
 62.47    1235.00
 62.57     994.00
 62.67     911.00
 62.77     802.00
 62.87     689.00
 62.97     642.22
 63.07     564.00
 63.17     554.10
 63.27     602.00
 63.37     597.00
 63.47     578.00
 63.57     593.00
 63.67     611.36
 63.77     578.00
 63.87     640.09
 63.97     680.00
 64.07     726.85
 64.17     787.00
 64.27     811.39
 64.37     927.00
 64.47     970.57
 64.57     999.75
 64.67     989.00
 64.77    1007.45
 64.87     991.14
 64.97     861.88
 65.07     849.00
 65.17     761.66
 65.27     740.00
 65.37     724.98
 65.47     648.00
 65.57     612.00
 65.67     577.65
 65.77     545.00
 65.87     575.00
 65.97     572.00
 66.07     589.00
 66.17     533.00
 66.27     534.00
 66.37     556.00
 66.47     551.00
 66.57     595.76
 66.67     581.00
 66.77     545.00
 66.87     617.00
 66.97     636.42
 67.07     633.00
 67.17     749.92
 67.27     771.55
 67.37     902.12
 67.47    1116.00
 67.57    1334.63
 67.67    1547.13
 67.77    1780.00
 67.87    2144.00
 67.97    2254.19
 68.07    2363.21
 68.17    2437.00
 68.27    2237.00
 68.37    2077.08
 68.47    1829.00
 68.57    1543.00
 68.67    1260.00
 68.77    1019.14
 68.87     903.00
 68.97     797.37
 69.07     696.00
 69.17     701.00
 69.27     647.00
 69.37     641.14
 69.47     597.74
 69.57     591.11
 69.67     570.42
 69.77     541.00
 69.87     583.00
 69.97     602.35
 70.07     561.00
 70.17     580.00
 70.27     602.31
 70.37     596.86
 70.47     569.33
 70.57     599.00
 70.67     582.00
 70.77     562.00
 70.87     563.00
 70.97     608.00
 71.07     680.13
 71.17     699.60
 71.27     826.00
 71.37     895.26
 71.47    1099.00
 71.57    1245.00
 71.67    1427.00
 71.77    1587.00
 71.87    1749.00
 71.97    1791.29
 72.07    1874.00
 72.17    1911.00
 72.27    1762.00
 72.37    1561.00
 72.47    1468.48
 72.57    1312.41
 72.67    1129.93
 72.77    1000.00
 72.87     862.00
 72.97     866.09
 73.07     757.00
 73.17     742.03
 73.27     679.63
 73.37     622.00
 73.47     622.49
 73.57     616.00
 73.67     625.00
 73.77     585.68
 73.87     602.00
 73.97     554.04
 74.07     576.37
 74.17     597.00
 74.27     615.00
 74.37     614.00
 74.47     612.00
 74.57     648.00
 74.67     606.00
 74.77     613.00
 74.87     599.45
 74.97     617.00
 75.07     622.00
 75.17     557.32
 75.27     584.33
 75.37     563.00
 75.47     569.00
 75.57     566.00
 75.67     586.00
 75.77     574.00
 75.87     563.65
 75.97     628.00
 76.07     649.00
 76.17     667.95
 76.27     666.51
 76.37     689.00
 76.47     701.23
 76.57     723.00
 76.67     712.24
 76.77     656.87
 76.87     695.00
 76.97     678.00
 77.07     634.00
 77.17     598.05
 77.27     598.00
 77.37     602.91
 77.47     553.98
 77.57     531.00
 77.67     583.44
 77.77     506.54
 77.87     507.62
 77.97     532.00
 78.07     534.00
 78.17     496.00
 78.27     533.00
 78.37     544.00
 78.47     558.02
 78.57     509.00
 78.67     470.00
 78.77     544.00
 78.87     524.00
 78.97     551.83
 79.07     570.73
 79.17     527.00
 79.27     526.00
 79.37     569.09
 79.47     561.00
 79.57     568.00
 79.67     489.00
 79.77     526.07
 79.87     515.00
 79.97     520.00
 80.07     559.00
 80.17     599.00
 80.27     595.61
 80.37     542.00
 80.47     587.00
 80.57     592.59
 80.67     596.00
 80.77     693.15
 80.87     656.00
 80.97     688.00
 81.07     731.09
 81.17     718.00
 81.27     742.00
 81.37     708.00
 81.47     778.00
 81.57     718.32
 81.67     772.51
 81.77     740.00
 81.87     743.09
 81.97     691.62
 82.07     673.58
 82.17     629.00
 82.27     652.00
 82.37     649.62
 82.47     629.00
 82.57     612.00
 82.67     553.00
 82.77     565.00
 82.87     528.00
 82.97     575.00
 83.07     553.64
 83.17     576.74
 83.27     549.00
 83.37     542.00
 83.47     592.00
 83.57     568.00
 83.67     539.00
 83.77     551.00
 83.87     575.00
 83.97     584.00
 84.07     576.00
 84.17     570.00
 84.27     564.00
 84.37     595.53
 84.47     602.36
 84.57     533.00
 84.67     562.00
 84.77     505.67
 84.87     530.00
 84.97     530.26
 85.07     518.00
 85.17     504.23
 85.27     581.00
 85.37     557.00
 85.47     537.00
 85.57     574.00
 85.67     526.47
 85.77     524.16
 85.87     556.27
 85.97     496.00
 86.07     512.82
 86.17     517.00
 86.27     510.63
 86.37     565.00
 86.47     562.64
 86.57     552.00
 86.67     556.00
 86.77     564.00
 86.87     594.00
 86.97     602.56
 87.07     596.39
 87.17     600.95
 87.27     599.00
 87.37     621.00
 87.47     609.08
 87.57     616.02
 87.67     661.81
 87.77     653.00
 87.87     642.34
 87.97     630.74
 88.07     632.92
 88.17     592.36
 88.27     604.00
 88.37     583.00
 88.47     575.37
 88.57     559.14
 88.67     596.00
 88.77     536.06
 88.87     550.00
 88.97     581.00
 89.07     587.00
 89.17     605.00
 89.27     614.00
 89.37     635.22
 89.47     605.66
 89.57     603.00
 89.67     621.63
 89.77     569.00
 89.87     583.00
 89.97     573.00
 90.07     559.08
 90.17     559.00
 90.27     501.00
 90.37     520.67
 90.47     568.74
 90.57     568.92
 90.67     564.00
 90.77     513.00
 90.87     574.00
 90.97     503.00
 91.07     527.00
 91.17     504.00
 91.27     516.56
 91.37     528.00
 91.47     560.00
 91.57     531.00
 91.67     537.00
 91.77     579.00
 91.87     526.91
 91.97     541.00
 92.07     537.00
 92.17     561.00
 92.27     537.00
 92.37     617.00
 92.47     626.00
 92.57     652.00
 92.67     648.00
 92.77     663.00
 92.87     709.09
 92.97     741.60
 93.07     775.29
 93.17     781.00
 93.27     733.00
 93.37     753.00
 93.47     794.16
 93.57     776.00
 93.67     840.00
 93.77     859.00
 93.87     819.69
 93.97     865.00
 94.07     809.94
 94.17     847.00
 94.27     818.23
 94.37     820.47
 94.47     871.00
 94.57     880.00
 94.67     906.00
 94.77     884.16
 94.87     928.00
 94.97     925.59
 95.07     897.62
 95.17     877.17
 95.27     851.00
 95.37     833.00
 95.47     830.00
 95.57     740.06
 95.67     731.80
 95.77     676.00
 95.87     698.00
 95.97     663.79
 96.07     688.00
 96.17     750.67
 96.27     767.94
 96.37     830.00
 96.47     875.00
 96.57     867.00
 96.67     933.00
 96.77    1019.28
 96.87    1093.21
 96.97    1136.00
 97.07    1247.57
 97.17    1347.00
 97.27    1378.00
 97.37    1372.00
 97.47    1478.00
 97.57    1382.34
 97.67    1394.00
 97.77    1439.12
 97.87    1343.00
 97.97    1290.00
 98.07    1277.00
 98.17    1091.00
 98.27    1120.97
 98.37    1066.00
 98.47     935.00
 98.57     897.53
 98.67     919.00
 98.77     816.08
 98.87     799.63
 98.97     787.37
 99.07     857.59
 99.17     875.00
 99.27     873.00
 99.37    1008.44
 99.47     989.00
 99.57    1133.15
 99.67    1234.00
 99.77    1348.00
 99.87    1335.00
 99.97    1604.00
100.07    1638.00
100.17    1649.72
100.27    1832.00
100.37    1954.45
100.47    2020.00
100.57    1985.00
100.67    1960.70
100.77    2084.00
100.87    2004.00
100.97    1972.00
101.07    1960.00
101.17    1870.89
101.27    1732.53
101.37    1646.00
101.47    1626.76
101.57    1512.00
101.67    1457.00
101.77    1350.00
101.87    1274.00
101.97    1263.00
102.07    1211.59
102.17    1120.70
102.27    1174.00
102.37    1142.00
102.47    1107.00
102.57    1110.65
102.67    1070.00
102.77    1073.72
102.87    1016.00
102.97     954.00
103.07     929.71
103.17     878.00
103.27     879.00
103.37     789.00
103.47     803.00
103.57     729.51
103.67     707.00
103.77     688.84
103.87     680.01
103.97     654.00
104.07     612.00
104.17     652.00
104.27     560.00
104.37     591.86
104.47     545.00
104.57     587.30
104.67     572.00
104.77     527.23
104.87     583.00
104.97     539.00
105.07     535.00
105.17     517.92
105.27     533.00
105.37     556.00
105.47     501.04
105.57     533.00
105.67     578.35
105.77     551.00
105.87     569.00
105.97     549.00
106.07     613.00
106.17     567.00
106.27     585.00
106.37     620.51
106.47     573.00
106.57     601.00
106.67     600.07
106.77     668.82
106.87     692.03
106.97     655.00
107.07     667.00
107.17     697.00
107.27     652.00
107.37     661.53
107.47     675.00
107.57     682.00
107.67     706.00
107.77     638.00
107.87     710.00
107.97     724.00
108.07     691.23
108.17     735.00
108.27     679.00
108.37     725.00
108.47     691.00
108.57     684.00
108.67     722.83
108.77     679.00
108.87     682.00
108.97     715.00
109.07     641.78
109.17     650.00
109.27     728.00
109.37     641.57
109.47     638.00
109.57     606.00
109.67     653.00
109.77     664.00
109.87     617.00
109.97     584.00
110.07     596.00
110.17     604.00
110.27     602.72
110.37     543.84
110.47     600.00
110.57     540.00
110.67     533.00
110.77     535.96
110.87     562.00
110.97     588.00
111.07     552.00
111.17     540.42
111.27     574.00
111.37     580.94
111.47     528.31
111.57     511.63
111.67     581.00
111.77     571.00
111.87     570.00
111.97     570.00
112.07     537.00
112.17     573.00
112.27     594.00
112.37     578.00
112.47     602.00
112.57     598.47
112.67     580.00
112.77     545.00
112.87     624.05
112.97     633.00
113.07     644.00
113.17     652.99
113.27     653.00
113.37     728.49
113.47     684.00
113.57     712.00
113.67     749.00
113.77     831.02
113.87     765.00
113.97     853.54
114.07     895.10
114.17     896.00
114.27     994.00
114.37    1114.56
114.47    1221.00
114.57    1309.00
114.67    1512.00
114.77    1702.00
114.87    1877.00
114.97    1901.18
115.07    2315.00
115.17    2539.00
115.27    2753.22
115.37    3052.00
115.47    3404.00
115.57    3873.00
115.67    4179.00
115.77    4425.22
115.87    4812.00
115.97    5110.00
116.07    5554.00
116.17    5954.00
116.27    6209.00
116.37    6395.00
116.47    6750.00
116.57    6717.06
116.67    6839.00
116.77    6700.00
116.87    6569.00
116.97    6486.00
117.07    6294.22
117.17    5943.00
117.27    5662.00
117.37    5248.00
117.47    4852.00
117.57    4710.00
117.67    4241.00
117.77    3847.00
117.87    3568.00
117.97    3266.00
118.07    2947.00
118.17    2542.00
118.27    2307.00
118.37    1950.00
118.47    1845.00
118.57    1559.00
118.67    1361.00
118.77    1215.00
118.87    1189.00
118.97    1078.99
119.07    1036.00
119.17     935.29
119.27     860.00
119.37     818.00
119.47     721.00
119.57     703.00
119.67     679.00
119.77     645.96
119.87     669.00
119.97     597.00
120.07     633.00
120.17     601.00
120.27     598.00
120.37     686.00
120.47     567.34
120.57     563.00
120.67     565.60
120.77     623.00
120.87     546.59
120.97     586.00
121.07     596.00
121.17     562.00
121.27     594.00
121.37     566.00
121.47     649.00
121.57     621.67
121.67     591.36
121.77     602.00
121.87     566.06
121.97     628.25
122.07     643.30
122.17     593.23
122.27     606.00
122.37     637.25
122.47     594.56
122.57     656.00
122.67     627.00
122.77     650.00
122.87     612.19
122.97     667.35
123.07     642.00
123.17     602.47
123.27     625.00
123.37     674.00
123.47     644.00
123.57     628.13
123.67     645.86
123.77     625.73
123.87     610.00
123.97     656.52
124.07     609.32
124.17     652.00
124.27     634.00
124.37     610.00
124.47     612.00
124.57     619.00
124.67     608.00
124.77     549.00
124.87     599.99
124.97     566.91
