  9.97     629.00
 10.07     657.00
 10.17     672.00
 10.27     573.41
 10.37     682.03
 10.47     635.85
 10.57     668.00
 10.67     697.00
 10.77     662.00
 10.87     683.00
 10.97     681.00
 11.07     647.00
 11.17     684.00
 11.27     690.10
 11.37     707.00
 11.47     695.00
 11.57     654.71
 11.67     658.00
 11.77     724.00
 11.87     704.00
 11.97     729.00
 12.07     795.00
 12.17     772.00
 12.27     757.00
 12.37     778.00
 12.47     772.59
 12.57     645.00
 12.67     725.64
 12.77     617.00
 12.87     660.24
 12.97     690.24
 13.07     673.99
 13.17     636.95
 13.27     659.12
 13.37     638.29
 13.47     635.00
 13.57     602.00
 13.67     631.00
 13.77     642.00
 13.87     622.48
 13.97     633.00
 14.07     650.00
 14.17     551.00
 14.27     607.00
 14.37     639.00
 14.47     629.68
 14.57     674.25
 14.67     670.28
 14.77     648.00
 14.87     588.00
 14.97     647.61
 15.07     638.25
 15.17     642.00
 15.27     692.54
 15.37     607.00
 15.47     622.00
 15.57     635.58
 15.67     618.00
 15.77     618.00
 15.87     646.00
 15.97     604.00
 16.07     621.00
 16.17     617.00
 16.27     678.91
 16.37     671.80
 16.47     616.26
 16.57     637.10
 16.67     652.00
 16.77     610.00
 16.87     610.09
 16.97     555.00
 17.07     625.82
 17.17     626.00
 17.27     619.00
 17.37     624.76
 17.47     607.00
 17.57     611.00
 17.67     608.00
 17.77     603.00
 17.87     605.00
 17.97     640.52
 18.07     614.00
 18.17     615.00
 18.27     660.46
 18.37     625.00
 18.47     618.00
 18.57     639.00
 18.67     601.00
 18.77     671.76
 18.87     581.00
 18.97     619.48
 19.07     568.00
 19.17     654.45
 19.27     605.00
 19.37     671.86
 19.47     672.10
 19.57     613.00
 19.67     562.00
 19.77     635.00
 19.87     626.92
 19.97     641.55
 20.07     649.29
 20.17     629.00
 20.27     621.15
 20.37     623.56
 20.47     573.00
 20.57     631.76
 20.67     586.00
 20.77     685.29
 20.87     655.50
 20.97     674.83
 21.07     642.00
 21.17     591.00
 21.27     584.07
 21.37     628.00
 21.47     591.00
 21.57     580.95
 21.67     601.00
 21.77     620.00
 21.87     678.17
 21.97     598.00
 22.07     583.00
 22.17     678.33
 22.27     606.21
 22.37     641.00
 22.47     600.00
 22.57     592.00
 22.67     625.00
 22.77     617.00
 22.87     618.40
 22.97     616.00
 23.07     615.00
 23.17     599.00
 23.27     621.53
 23.37     637.00
 23.47     659.00
 23.57     677.00
 23.67     573.12
 23.77     590.24
 23.87     615.00
 23.97     665.75
 24.07     629.00
 24.17     571.92
 24.27     583.00
 24.37     647.00
 24.47     615.08
 24.57     654.04
 24.67     708.00
 24.77     689.40
 24.87     768.00
 24.97     727.00
 25.07     692.00
 25.17     693.00
 25.27     705.00
 25.37     699.00
 25.47     637.05
 25.57     622.00
 25.67     642.00
 25.77     626.00
 25.87     664.45
 25.97     671.00
 26.07     612.20
 26.17     570.18
 26.27     657.00
 26.37     677.00
 26.47     680.13
 26.57     616.22
 26.67     675.00
 26.77     664.90
 26.87     674.00
 26.97     622.60
 27.07     711.00
 27.17     584.55
 27.27     591.65
 27.37     758.00
 27.47     724.00
 27.57     688.00
 27.67     723.00
 27.77     746.63
 27.87     717.31
 27.97     912.99
 28.07    1052.00
 28.17    1198.00
 28.27    1461.00
 28.37    1713.88
 28.47    1554.00
 28.57    1427.00
 28.67    1196.00
 28.77    1030.00
 28.87    1196.00
 28.97    1240.02
 29.07    1225.38
 29.17    1232.00
 29.27    1160.00
 29.37     898.20
 29.47     938.00
 29.57     870.00
 29.67     833.00
 29.77     638.25
 29.87     630.15
 29.97     744.00
 30.07     774.00
 30.17     723.00
 30.27     625.94
 30.37     618.08
 30.47     661.16
 30.57     673.47
 30.67     717.00
 30.77     586.08
 30.87     751.00
 30.97     754.00
 31.07     684.00
 31.17     689.89
 31.27     707.00
 31.37     660.00
 31.47     679.20
 31.57     645.00
 31.67     646.00
 31.77     568.08
 31.87     627.97
 31.97     628.00
 32.07     620.00
 32.17     555.92
 32.27     543.19
 32.37     643.97
 32.47     584.91
 32.57     629.00
 32.67     561.00
 32.77     575.00
 32.87     568.53
 32.97     605.00
 33.07     643.00
 33.17     620.00
 33.27     591.02
 33.37     597.78
 33.47     650.00
 33.57     665.00
 33.67     644.00
 33.77     662.81
 33.87     811.19
 33.97     920.00
 34.07    1028.30
 34.17    1061.00
 34.27    1147.00
 34.37    1063.00
 34.47     921.00
 34.57     725.00
 34.67     722.00
 34.77     630.00
 34.87     647.00
 34.97     602.00
 35.07     614.55
 35.17     622.00
 35.27     570.45
 35.37     605.00
 35.47     586.28
 35.57     572.57
 35.67     534.00
 35.77     593.94
 35.87     524.50
 35.97     574.00
 36.07     520.68
 36.17     537.00
 36.27     578.00
 36.37     615.27
 36.47     496.00
 36.57     524.83
 36.67     604.80
 36.77     502.00
 36.87     528.00
 36.97     495.00
 37.07     591.00
 37.17     536.00
 37.27     550.33
 37.37     569.00
 37.47     598.00
 37.57     622.20
 37.67     582.00
 37.77     561.47
 37.87     568.00
 37.97     578.00
 38.07     560.00
 38.17     558.00
 38.27     560.00
 38.37     540.00
 38.47     599.99
 38.57     505.00
 38.67     555.00
 38.77     554.00
 38.87     540.00
 38.97     537.00
 39.07     537.00
 39.17     550.48
 39.27     607.80
 39.37     554.84
 39.47     509.05
 39.57     595.66
 39.67     556.51
 39.77     556.00
 39.87     547.00
 39.97     549.00
 40.07     496.00
 40.17     573.62
 40.27     579.00
 40.37     494.00
 40.47     517.00
 40.57     543.00
 40.67     587.11
 40.77     521.00
 40.87     509.00
 40.97     488.00
 41.07     526.00
 41.17     552.49
 41.27     539.00
 41.37     494.59
 41.47     499.27
 41.57     602.93
 41.67     551.00
 41.77     571.00
 41.87     572.59
 41.97     538.00
 42.07     539.30
 42.17     521.00
 42.27     528.00
 42.37     550.35
 42.47     539.00
 42.57     624.04
 42.67     613.61
 42.77     592.00
 42.87     639.00
 42.97     611.00
 43.07     682.15
 43.17     616.00
 43.27     569.00
 43.37     545.00
 43.47     544.00
 43.57     613.58
 43.67     494.00
 43.77     524.00
 43.87     520.43
 43.97     566.00
 44.07     527.38
 44.17     560.00
 44.27     520.74
 44.37     538.00
 44.47     548.00
 44.57     526.00
 44.67     554.00
 44.77     527.00
 44.87     524.00
 44.97     503.00
 45.07     589.84
 45.17     569.00
 45.27     568.00
 45.37     534.00
 45.47     492.11
 45.57     562.01
 45.67     562.00
 45.77     542.00
 45.87     536.00
 45.97     589.20
 46.07     538.46
 46.17     525.00
 46.27     539.00
 46.37     575.00
 46.47     517.35
 46.57     534.00
 46.67     538.00
 46.77     581.00
 46.87     553.00
 46.97     530.00
 47.07     559.25
 47.17     570.00
 47.27     591.00
 47.37     568.00
 47.47     553.00
 47.57     565.00
 47.67     573.84
 47.77     623.00
 47.87     571.55
 47.97     622.00
 48.07     674.00
 48.17     685.54
 48.27     644.00
 48.37     608.00
 48.47     637.00
 48.57     620.00
 48.67     600.00
 48.77     595.60
 48.87     573.00
 48.97     616.17
 49.07     588.40
 49.17     603.88
 49.27     568.72
 49.37     657.00
 49.47     669.04
 49.57     623.00
 49.67     699.00
 49.77     871.97
 49.87     915.00
 49.97    1198.45
 50.07    1445.04
 50.17    1817.00
 50.27    2036.34
 50.37    2433.00
 50.47    2412.00
 50.57    2273.00
 50.67    1934.00
 50.77    1597.00
 50.87    1333.78
 50.97     947.00
 51.07     872.00
 51.17     774.00
 51.27     741.00
 51.37     626.00
 51.47     749.00
 51.57     683.41
 51.67     681.00
 51.77     593.00
 51.87     563.00
 51.97     598.00
 52.07     656.00
 52.17     593.00
 52.27     574.78
 52.37     549.41
 52.47     609.25
 52.57     619.47
 52.67     566.90
 52.77     633.00
 52.87     649.00
 52.97     688.00
 53.07     658.48
 53.17     747.00
 53.27     851.00
 53.37     842.65
 53.47    1039.73
 53.57    1136.90
 53.67    1269.00
 53.77    1233.54
 53.87    1177.10
 53.97    1145.30
 54.07    1063.00
 54.17     937.00
 54.27     833.00
 54.37     814.89
 54.47     710.00
 54.57     709.00
 54.67     653.95
 54.77     660.63
 54.87     623.68
 54.97     563.41
 55.07     600.00
 55.17     629.00
 55.27     553.91
 55.37     631.00
 55.47     615.00
 55.57     554.00
 55.67     605.00
 55.77     625.00
 55.87     664.07
 55.97     658.00
 56.07     734.00
 56.17     668.34
 56.27     767.24
 56.37     861.00
 56.47     873.00
 56.57    1142.00
 56.67    1366.05
 56.77    1682.00
 56.87    2028.73
 56.97    2403.00
 57.07    2600.90
 57.17    2622.00
 57.27    2498.00
 57.37    2241.00
 57.47    2003.63
 57.57    1585.00
 57.67    1221.00
 57.77    1122.00
 57.87     978.00
 57.97     863.00
 58.07     829.53
 58.17     749.00
 58.27     780.99
 58.37     816.68
 58.47     780.00
 58.57     759.00
 58.67     861.00
 58.77     996.00
 58.87     969.00
 58.97    1116.00
 59.07    1156.59
 59.17    1212.22
 59.27    1265.00
 59.37    1177.05
 59.47    1249.00
 59.57    1148.61
 59.67    1241.00
 59.77    1229.00
 59.87    1167.00
 59.97    1233.00
 60.07    1254.00
 60.17    1320.00
 60.27    1428.00
 60.37    1466.00
 60.47    1543.00
 60.57    1627.00
 60.67    1545.00
 60.77    1335.32
 60.87    1288.00
 60.97    1057.00
 61.07    1010.00
 61.17     916.00
 61.27     862.00
 61.37     767.00
 61.47     754.00
 61.57     732.00
 61.67     726.72
 61.77     817.00
 61.87     885.00
 61.97    1007.89
 62.07    1059.00
 62.17    1252.90
 62.27    1227.00
 62.37    1440.38
 62.47    1409.00
 62.57    1335.00
 62.67    1238.00
 62.77    1151.00
 62.87     981.00
 62.97     998.48
 63.07     807.00
 63.17     767.00
 63.27     698.00
 63.37     682.00
 63.47     680.00
 63.57     655.00
 63.67     676.00
 63.77     654.00
 63.87     634.00
 63.97     687.00
 64.07     650.55
 64.17     692.00
 64.27     728.80
 64.37     744.00
 64.47     852.00
 64.57     919.00
 64.67     991.15
 64.77    1033.95
 64.87    1131.66
 64.97    1134.96
 65.07    1080.00
 65.17    1125.00
 65.27    1048.26
 65.37     905.41
 65.47     913.00
 65.57     830.00
 65.67     801.00
 65.77     776.00
 65.87     712.00
 65.97     673.03
 66.07     651.00
 66.17     602.00
 66.27     599.00
 66.37     613.00
 66.47     648.20
 66.57     621.00
 66.67     642.00
 66.77     620.00
 66.87     644.00
 66.97     696.69
 67.07     700.36
 67.17     665.00
 67.27     703.00
 67.37     704.18
 67.47     763.00
 67.57     929.11
 67.67    1005.00
 67.77    1167.00
 67.87    1418.00
 67.97    1599.00
 68.07    1800.00
 68.17    2030.00
 68.27    2308.00
 68.37    2292.88
 68.47    2482.92
 68.57    2315.00
 68.67    2229.00
 68.77    2023.00
 68.87    1658.00
 68.97    1480.02
 69.07    1242.00
 69.17    1078.00
 69.27     990.00
 69.37     811.00
 69.47     783.00
 69.57     693.00
 69.67     726.12
 69.77     689.92
 69.87     679.00
 69.97     689.21
 70.07     624.00
 70.17     635.00
 70.27     616.00
 70.37     592.20
 70.47     633.00
 70.57     595.00
 70.67     605.00
 70.77     653.00
 70.87     658.00
 70.97     589.49
 71.07     682.00
 71.17     655.92
 71.27     702.00
 71.37     760.59
 71.47     749.00
 71.57     872.00
 71.67     963.00
 71.77    1063.04
 71.87    1308.00
 71.97    1373.90
 72.07    1552.00
 72.17    1805.07
 72.27    1853.00
 72.37    1911.74
 72.47    1982.89
 72.57    1855.00
 72.67    1678.00
 72.77    1577.00
 72.87    1359.00
 72.97    1175.15
 73.07    1138.65
 73.17    1022.00
 73.27     896.00
 73.37     859.00
 73.47     775.44
 73.57     700.87
 73.67     669.90
 73.77     658.96
 73.87     647.00
 73.97     696.00
 74.07     618.00
 74.17     632.00
 74.27     613.00
 74.37     639.00
 74.47     616.00
 74.57     649.00
 74.67     676.00
 74.77     590.87
 74.87     636.28
 74.97     659.00
 75.07     590.60
 75.17     670.00
 75.27     655.00
 75.37     679.00
 75.47     616.00
 75.57     605.00
 75.67     639.00
 75.77     559.11
 75.87     617.00
 75.97     568.03
 76.07     650.00
 76.17     644.24
 76.27     689.00
 76.37     593.94
 76.47     640.01
 76.57     715.00
 76.67     695.00
 76.77     691.88
 76.87     746.00
 76.97     683.89
 77.07     710.00
 77.17     764.00
 77.27     684.19
 77.37     740.00
 77.47     713.16
 77.57     651.00
 77.67     622.00
 77.77     636.56
 77.87     595.01
 77.97     571.98
 78.07     571.00
 78.17     539.00
 78.27     585.00
 78.37     512.67
 78.47     586.56
 78.57     562.00
 78.67     568.00
 78.77     539.00
 78.87     581.22
 78.97     545.00
 79.07     520.00
 79.17     549.00
 79.27     561.00
 79.37     529.00
 79.47     544.00
 79.57     558.00
 79.67     546.00
 79.77     557.00
 79.87     566.29
 79.97     554.00
 80.07     606.00
 80.17     615.98
 80.27     603.25
 80.37     520.00
 80.47     554.00
 80.57     619.00
 80.67     568.99
 80.77     632.58
 80.87     667.40
 80.97     653.00
 81.07     715.36
 81.17     703.00
 81.27     768.00
 81.37     775.00
 81.47     783.00
 81.57     767.19
 81.67     884.00
 81.77     798.00
 81.87     774.00
 81.97     820.05
 82.07     767.62
 82.17     802.45
 82.27     785.00
 82.37     725.63
 82.47     716.00
 82.57     719.00
 82.67     653.00
 82.77     618.25
 82.87     604.00
 82.97     631.86
 83.07     596.76
 83.17     609.00
 83.27     614.00
 83.37     555.19
 83.47     628.70
 83.57     544.31
 83.67     539.99
 83.77     605.00
 83.87     568.00
 83.97     635.43
 84.07     605.00
 84.17     642.26
 84.27     606.64
 84.37     554.66
 84.47     609.67
 84.57     598.00
 84.67     556.00
 84.77     640.78
 84.87     596.00
 84.97     570.82
 85.07     585.00
 85.17     537.23
 85.27     556.00
 85.37     563.47
 85.47     597.00
 85.57     571.00
 85.67     544.00
 85.77     588.00
 85.87     542.00
 85.97     552.00
 86.07     539.00
 86.17     552.00
 86.27     518.00
 86.37     545.78
 86.47     594.38
 86.57     536.00
 86.67     547.00
 86.77     566.56
 86.87     594.00
 86.97     598.00
 87.07     614.00
 87.17     633.00
 87.27     663.00
 87.37     616.00
 87.47     655.00
 87.57     634.00
 87.67     624.49
 87.77     628.00
 87.87     702.38
 87.97     652.48
 88.07     663.00
 88.17     673.00
 88.27     618.00
 88.37     656.00
 88.47     655.00
 88.57     604.00
 88.67     621.45
 88.77     668.94
 88.87     643.00
 88.97     619.00
 89.07     601.00
 89.17     586.00
 89.27     584.00
 89.37     628.00
 89.47     570.00
 89.57     594.61
 89.67     672.00
 89.77     606.50
 89.87     579.30
 89.97     592.00
 90.07     595.00
 90.17     616.00
 90.27     626.22
 90.37     558.00
 90.47     598.23
 90.57     633.07
 90.67     546.00
 90.77     524.00
 90.87     604.00
 90.97     531.00
 91.07     579.00
 91.17     582.61
 91.27     589.80
 91.37     516.56
 91.47     565.36
 91.57     538.00
 91.67     561.00
 91.77     547.92
 91.87     533.00
 91.97     564.00
 92.07     563.95
 92.17     594.00
 92.27     562.00
 92.37     573.00
 92.47     567.00
 92.57     603.95
 92.67     598.16
 92.77     590.00
 92.87     584.00
 92.97     631.58
 93.07     620.00
 93.17     674.00
 93.27     677.00
 93.37     715.00
 93.47     702.00
 93.57     718.83
 93.67     720.00
 93.77     741.00
 93.87     800.00
 93.97     788.00
 94.07     832.00
 94.17     809.00
 94.27     897.75
 94.37     847.00
 94.47     912.00
 94.57     910.00
 94.67     911.00
 94.77     916.00
 94.87     916.00
 94.97    1021.00
 95.07     944.16
 95.17     963.00
 95.27     985.00
 95.37     929.00
 95.47     956.00
 95.57     977.14
 95.67     884.00
 95.77     863.00
 95.87     831.13
 95.97     807.00
 96.07     779.00
 96.17     777.00
 96.27     806.81
 96.37     718.00
 96.47     741.00
 96.57     729.00
 96.67     802.00
 96.77     808.00
 96.87     858.00
 96.97     903.00
 97.07     980.00
 97.17    1031.02
 97.27    1049.00
 97.37    1159.68
 97.47    1127.00
 97.57    1278.17
 97.67    1334.00
 97.77    1386.00
 97.87    1433.00
 97.97    1546.00
 98.07    1511.00
 98.17    1429.00
 98.27    1476.00
 98.37    1368.14
 98.47    1410.00
 98.57    1356.00
 98.67    1307.59
 98.77    1205.00
 98.87    1237.35
 98.97    1074.74
 99.07    1020.00
 99.17    1007.87
 99.27     947.00
 99.37     960.00
 99.47     907.00
 99.57    1002.00
 99.67     945.00
 99.77    1019.45
 99.87     974.00
 99.97     998.84
100.07    1088.07
100.17    1225.80
100.27    1275.00
100.37    1471.00
100.47    1470.00
100.57    1512.23
100.67    1556.74
100.77    1691.57
100.87    1902.00
100.97    1934.12
101.07    1879.33
101.17    2017.77
101.27    1952.34
101.37    1950.55
101.47    1923.15
101.57    2005.00
101.67    1999.00
101.77    1810.88
101.87    1793.86
101.97    1715.00
102.07    1656.58
102.17    1562.95
102.27    1507.00
102.37    1441.00
102.47    1392.00
102.57    1363.00
102.67    1359.08
102.77    1227.00
102.87    1241.00
102.97    1213.39
103.07    1160.77
103.17    1194.09
103.27    1132.04
103.37    1033.00
103.47    1019.10
103.57    1113.47
103.67    1035.73
103.77     962.00
103.87     933.81
103.97     938.04
104.07     867.00
104.17     796.00
104.27     788.00
104.37     708.78
104.47     758.94
104.57     708.00
104.67     711.00
104.77     671.63
104.87     581.24
104.97     635.84
105.07     615.22
105.17     602.81
105.27     596.58
105.37     615.00
105.47     608.00
105.57     591.67
105.67     584.00
105.77     546.00
105.87     591.00
105.97     598.02
106.07     565.00
106.17     542.00
106.27     580.95
106.37     621.00
106.47     620.00
106.57     603.00
106.67     558.75
106.77     649.00
106.87     670.43
106.97     654.00
107.07     620.00
107.17     697.72
107.27     670.00
107.37     634.35
107.47     705.00
107.57     760.00
107.67     660.47
107.77     697.00
107.87     676.49
107.97     762.26
108.07     756.67
108.17     709.00
108.27     736.00
108.37     787.98
108.47     742.00
108.57     765.38
108.67     724.00
108.77     700.24
108.87     729.96
108.97     719.00
109.07     723.37
109.17     751.57
109.27     684.00
109.37     692.64
109.47     765.28
109.57     712.00
109.67     697.41
109.77     687.88
109.87     657.11
109.97     710.00
110.07     666.00
110.17     723.00
110.27     686.00
110.37     648.00
110.47     627.33
110.57     636.00
110.67     676.28
110.77     598.00
110.87     624.00
110.97     643.00
111.07     653.52
111.17     603.00
111.27     580.17
111.37     610.00
111.47     571.61
111.57     582.00
111.67     599.00
111.77     609.00
111.87     556.87
111.97     582.00
112.07     565.75
112.17     564.88
112.27     567.00
112.37     599.00
112.47     550.99
112.57     530.00
112.67     567.00
112.77     589.00
112.87     574.00
112.97     554.00
113.07     621.63
113.17     575.00
113.27     587.00
113.37     602.00
113.47     611.00
113.57     600.00
113.67     645.29
113.77     642.43
113.87     620.00
113.97     617.21
114.07     662.19
114.17     722.15
114.27     669.19
114.37     727.51
114.47     794.00
114.57     790.00
114.67     834.00
114.77     890.38
114.87     981.00
114.97     950.00
115.07    1170.00
115.17    1213.00
115.27    1336.00
115.37    1418.77
115.47    1737.00
115.57    1880.53
115.67    2229.00
115.77    2283.82
115.87    2694.00
115.97    3067.00
116.07    3282.00
116.17    3459.36
116.27    4030.51
116.37    4304.81
116.47    4749.89
116.57    5121.00
116.67    5415.00
116.77    5792.00
116.87    6114.00
116.97    6613.00
117.07    6807.35
117.17    6927.00
117.27    7055.00
117.37    7293.65
117.47    7074.00
117.57    7135.00
117.67    6975.00
117.77    6598.00
117.87    6417.00
117.97    5956.00
118.07    5685.00
118.17    5208.00
118.27    5029.00
118.37    4801.00
118.47    4308.89
118.57    4055.00
118.67    3683.00
118.77    3278.00
118.87    2994.78
118.97    2627.44
119.07    2419.00
119.17    2146.00
119.27    1994.56
119.37    1831.00
119.47    1580.00
119.57    1556.59
119.67    1435.83
119.77    1279.51
119.87    1100.78
119.97    1130.00
120.07    1042.00
120.17     929.00
120.27     874.00
120.37     864.96
120.47     824.00
120.57     763.00
120.67     787.43
120.77     767.37
120.87     703.00
120.97     706.00
121.07     617.00
121.17     626.00
121.27     632.00
121.37     627.00
121.47     618.00
121.57     627.00
121.67     563.00
121.77     667.59
121.87     642.00
121.97     688.56
122.07     683.21
122.17     612.00
122.27     694.30
122.37     595.29
122.47     646.00
122.57     608.00
122.67     659.00
122.77     618.00
122.87     646.00
122.97     662.08
123.07     669.00
123.17     681.28
123.27     648.03
123.37     656.00
123.47     661.00
123.57     698.00
123.67     697.71
123.77     676.38
123.87     667.00
123.97     686.00
124.07     619.62
124.17     719.00
124.27     642.00
124.37     656.78
124.47     608.05
124.57     633.00
124.67     650.00
124.77     624.00
124.87     665.00
124.97     621.00
