  9.97     541.56
 10.07     550.35
 10.17     676.00
 10.27     613.71
 10.37     665.00
 10.47     586.46
 10.57     670.00
 10.67     646.00
 10.77     654.00
 10.87     660.19
 10.97     634.00
 11.07     681.00
 11.17     675.00
 11.27     645.00
 11.37     611.00
 11.47     648.00
 11.57     669.88
 11.67     672.00
 11.77     690.00
 11.87     683.00
 11.97     716.00
 12.07     701.00
 12.17     767.00
 12.27     748.68
 12.37     758.62
 12.47     706.10
 12.57     741.73
 12.67     694.00
 12.77     654.00
 12.87     637.25
 12.97     614.00
 13.07     625.00
 13.17     649.00
 13.27     602.00
 13.37     549.00
 13.47     585.00
 13.57     665.10
 13.67     683.12
 13.77     578.00
 13.87     641.00
 13.97     641.67
 14.07     608.73
 14.17     640.00
 14.27     659.11
 14.37     581.40
 14.47     607.00
 14.57     548.00
 14.67     650.00
 14.77     619.00
 14.87     599.00
 14.97     555.00
 15.07     605.00
 15.17     604.00
 15.27     622.00
 15.37     573.32
 15.47     588.40
 15.57     622.00
 15.67     567.00
 15.77     589.00
 15.87     579.00
 15.97     570.00
 16.07     560.00
 16.17     621.00
 16.27     551.00
 16.37     660.67
 16.47     632.14
 16.57     598.91
 16.67     623.66
 16.77     567.00
 16.87     617.29
 16.97     583.18
 17.07     621.00
 17.17     603.00
 17.27     596.00
 17.37     581.00
 17.47     613.00
 17.57     567.00
 17.67     594.00
 17.77     695.00
 17.87     601.00
 17.97     596.91
 18.07     570.00
 18.17     624.00
 18.27     607.44
 18.37     594.76
 18.47     650.75
 18.57     638.97
 18.67     606.00
 18.77     599.00
 18.87     582.50
 18.97     670.01
 19.07     685.55
 19.17     590.00
 19.27     625.00
 19.37     622.00
 19.47     574.00
 19.57     582.00
 19.67     624.00
 19.77     569.00
 19.87     666.30
 19.97     605.00
 20.07     619.00
 20.17     604.00
 20.27     670.90
 20.37     683.16
 20.47     593.00
 20.57     567.45
 20.67     594.00
 20.77     579.22
 20.87     563.00
 20.97     607.00
 21.07     596.00
 21.17     600.00
 21.27     674.02
 21.37     596.00
 21.47     573.00
 21.57     580.00
 21.67     658.84
 21.77     572.00
 21.87     602.00
 21.97     644.00
 22.07     576.00
 22.17     579.00
 22.27     543.00
 22.37     606.00
 22.47     587.00
 22.57     583.00
 22.67     677.91
 22.77     617.00
 22.87     586.00
 22.97     664.38
 23.07     600.79
 23.17     619.69
 23.27     600.14
 23.37     588.00
 23.47     641.00
 23.57     605.00
 23.67     625.00
 23.77     664.00
 23.87     567.00
 23.97     631.00
 24.07     671.05
 24.17     593.00
 24.27     591.00
 24.37     618.00
 24.47     633.23
 24.57     672.00
 24.67     701.00
 24.77     710.31
 24.87     689.00
 24.97     768.33
 25.07     726.01
 25.17     610.10
 25.27     749.00
 25.37     673.00
 25.47     601.61
 25.57     638.00
 25.67     672.80
 25.77     636.13
 25.87     656.00
 25.97     738.00
 26.07     643.00
 26.17     595.06
 26.27     671.00
 26.37     674.00
 26.47     589.51
 26.57     705.00
 26.67     683.00
 26.77     630.00
 26.87     634.00
 26.97     692.00
 27.07     636.00
 27.17     582.77
 27.27     694.00
 27.37     600.93
 27.47     735.00
 27.57     678.00
 27.67     696.00
 27.77     700.00
 27.87     695.00
 27.97     712.42
 28.07     828.00
 28.17     800.41
 28.27     992.00
 28.37     929.47
 28.47    1040.00
 28.57     990.00
 28.67     922.00
 28.77     859.00
 28.87     903.00
 28.97     949.00
 29.07     861.38
 29.17     966.00
 29.27     859.53
 29.37     752.03
 29.47     707.00
 29.57     632.81
 29.67     692.00
 29.77     651.74
 29.87     722.00
 29.97     546.52
 30.07     643.82
 30.17     710.00
 30.27     707.00
 30.37     707.00
 30.47     688.00
 30.57     689.00
 30.67     659.00
 30.77     703.00
 30.87     705.00
 30.97     588.06
 31.07     695.00
 31.17     695.00
 31.27     740.00
 31.37     659.00
 31.47     675.62
 31.57     592.31
 31.67     577.71
 31.77     660.00
 31.87     628.00
 31.97     593.39
 32.07     566.00
 32.17     630.00
 32.27     622.00
 32.37     596.00
 32.47     554.00
 32.57     629.00
 32.67     604.00
 32.77     616.00
 32.87     613.00
 32.97     644.07
 33.07     577.00
 33.17     608.00
 33.27     617.33
 33.37     644.00
 33.47     613.00
 33.57     605.00
 33.67     680.00
 33.77     687.00
 33.87     779.00
 33.97     880.00
 34.07    1014.27
 34.17    1032.48
 34.27    1094.48
 34.37     990.00
 34.47     866.00
 34.57     730.00
 34.67     688.00
 34.77     655.00
 34.87     612.00
 34.97     643.00
 35.07     574.07
 35.17     562.00
 35.27     564.00
 35.37     561.93
 35.47     584.00
 35.57     549.00
 35.67     543.00
 35.77     569.00
 35.87     517.49
 35.97     551.00
 36.07     570.00
 36.17     516.60
 36.27     536.00
 36.37     569.26
 36.47     566.00
 36.57     539.00
 36.67     579.27
 36.77     551.30
 36.87     501.00
 36.97     545.00
 37.07     536.00
 37.17     555.95
 37.27     556.00
 37.37     553.00
 37.47     578.88
 37.57     571.00
 37.67     558.00
 37.77     578.00
 37.87     572.00
 37.97     574.00
 38.07     554.00
 38.17     518.00
 38.27     569.00
 38.37     602.99
 38.47     544.00
 38.57     605.37
 38.67     546.00
 38.77     535.00
 38.87     547.25
 38.97     510.00
 39.07     538.37
 39.17     543.07
 39.27     482.00
 39.37     560.00
 39.47     518.00
 39.57     530.00
 39.67     528.00
 39.77     532.00
 39.87     552.00
 39.97     593.84
 40.07     527.16
 40.17     524.00
 40.27     507.00
 40.37     545.00
 40.47     531.00
 40.57     519.00
 40.67     528.00
 40.77     537.10
 40.87     493.80
 40.97     523.94
 41.07     572.49
 41.17     511.00
 41.27     513.00
 41.37     534.00
 41.47     491.00
 41.57     493.00
 41.67     569.08
 41.77     561.37
 41.87     570.00
 41.97     518.00
 42.07     546.98
 42.17     522.03
 42.27     529.00
 42.37     608.76
 42.47     582.00
 42.57     606.14
 42.67     688.28
 42.77     706.38
 42.87     688.36
 42.97     677.89
 43.07     597.00
 43.17     620.51
 43.27     598.75
 43.37     534.00
 43.47     532.76
 43.57     527.86
 43.67     581.60
 43.77     584.00
 43.87     537.72
 43.97     541.00
 44.07     554.00
 44.17     571.46
 44.27     492.50
 44.37     574.29
 44.47     548.00
 44.57     503.00
 44.67     497.19
 44.77     542.00
 44.87     541.00
 44.97     545.00
 45.07     480.43
 45.17     570.20
 45.27     516.00
 45.37     559.00
 45.47     523.00
 45.57     506.08
 45.67     582.75
 45.77     496.00
 45.87     534.00
 45.97     477.28
 46.07     557.00
 46.17     554.00
 46.27     525.00
 46.37     549.27
 46.47     572.00
 46.57     522.00
 46.67     523.95
 46.77     575.49
 46.87     556.00
 46.97     546.53
 47.07     525.00
 47.17     547.00
 47.27     539.00
 47.37     574.00
 47.47     548.00
 47.57     593.00
 47.67     535.00
 47.77     583.00
 47.87     610.00
 47.97     587.00
 48.07     595.00
 48.17     663.14
 48.27     619.00
 48.37     623.00
 48.47     585.51
 48.57     621.22
 48.67     623.00
 48.77     587.00
 48.87     557.00
 48.97     597.50
 49.07     566.00
 49.17     535.00
 49.27     603.00
 49.37     574.00
 49.47     612.00
 49.57     649.32
 49.67     761.26
 49.77     781.00
 49.87     996.96
 49.97    1200.33
 50.07    1522.42
 50.17    1819.00
 50.27    2160.62
 50.37    2478.00
 50.47    2257.09
 50.57    2094.00
 50.67    1746.46
 50.77    1447.00
 50.87    1073.00
 50.97    1040.78
 51.07     805.00
 51.17     717.00
 51.27     691.10
 51.37     729.38
 51.47     635.00
 51.57     644.00
 51.67     648.84
 51.77     613.94
 51.87     597.00
 51.97     594.00
 52.07     616.00
 52.17     630.00
 52.27     563.17
 52.37     621.00
 52.47     594.00
 52.57     574.29
 52.67     586.00
 52.77     591.78
 52.87     623.00
 52.97     692.91
 53.07     662.00
 53.17     680.93
 53.27     841.00
 53.37     926.00
 53.47    1034.00
 53.57    1153.11
 53.67    1167.93
 53.77    1230.00
 53.87    1229.83
 53.97    1116.00
 54.07     995.00
 54.17     911.00
 54.27     793.00
 54.37     734.00
 54.47     691.83
 54.57     689.00
 54.67     632.00
 54.77     620.00
 54.87     620.00
 54.97     641.73
 55.07     579.00
 55.17     611.74
 55.27     610.00
 55.37     596.42
 55.47     629.00
 55.57     557.96
 55.67     636.00
 55.77     621.00
 55.87     674.00
 55.97     593.00
 56.07     709.16
 56.17     669.53
 56.27     845.56
 56.37     882.00
 56.47    1010.00
 56.57    1162.00
 56.67    1461.00
 56.77    1703.30
 56.87    2041.00
 56.97    2357.00
 57.07    2558.00
 57.17    2597.00
 57.27    2496.53
 57.37    2159.00
 57.47    1844.00
 57.57    1471.00
 57.67    1366.47
 57.77    1028.96
 57.87     910.00
 57.97     870.00
 58.07     761.24
 58.17     765.79
 58.27     728.00
 58.37     768.68
 58.47     748.00
 58.57     804.09
 58.67     919.00
 58.77     895.62
 58.87    1022.00
 58.97    1128.00
 59.07    1188.00
 59.17    1170.00
 59.27    1280.00
 59.37    1299.00
 59.47    1288.00
 59.57    1218.00
 59.67    1242.07
 59.77    1203.97
 59.87    1192.00
 59.97    1263.00
 60.07    1310.00
 60.17    1265.00
 60.27    1474.54
 60.37    1606.11
 60.47    1502.19
 60.57    1581.00
 60.67    1509.46
 60.77    1351.00
 60.87    1194.65
 60.97    1056.00
 61.07     892.00
 61.17     869.10
 61.27     773.00
 61.37     751.25
 61.47     735.00
 61.57     739.00
 61.67     714.70
 61.77     861.58
 61.87     870.00
 61.97     969.97
 62.07    1129.83
 62.17    1185.00
 62.27    1222.00
 62.37    1314.00
 62.47    1372.00
 62.57    1335.00
 62.67    1202.00
 62.77    1102.00
 62.87    1040.00
 62.97     863.87
 63.07     804.00
 63.17     750.00
 63.27     695.00
 63.37     670.50
 63.47     695.02
 63.57     623.00
 63.67     653.00
 63.77     662.00
 63.87     636.00
 63.97     639.00
 64.07     660.60
 64.17     733.64
 64.27     708.00
 64.37     748.74
 64.47     824.00
 64.57     865.13
 64.67     977.00
 64.77    1013.41
 64.87    1040.00
 64.97    1067.00
 65.07    1043.95
 65.17    1053.05
 65.27     915.00
 65.37     862.00
 65.47     823.00
 65.57     795.12
 65.67     783.00
 65.77     715.00
 65.87     718.00
 65.97     621.71
 66.07     704.24
 66.17     591.61
 66.27     583.00
 66.37     594.88
 66.47     634.92
 66.57     643.86
 66.67     564.47
 66.77     560.78
 66.87     621.00
 66.97     644.00
 67.07     611.00
 67.17     669.36
 67.27     755.13
 67.37     707.00
 67.47     823.00
 67.57     904.00
 67.67    1140.34
 67.77    1194.00
 67.87    1407.00
 67.97    1618.00
 68.07    1808.57
 68.17    2144.00
 68.27    2284.00
 68.37    2341.99
 68.47    2356.79
 68.57    2163.21
 68.67    2055.00
 68.77    1838.60
 68.87    1662.00
 68.97    1399.00
 69.07    1134.00
 69.17    1067.33
 69.27     891.00
 69.37     854.79
 69.47     730.00
 69.57     730.00
 69.67     716.70
 69.77     673.55
 69.87     614.50
 69.97     653.00
 70.07     560.50
 70.17     622.00
 70.27     628.00
 70.37     635.43
 70.47     650.79
 70.57     622.00
 70.67     651.45
 70.77     563.55
 70.87     630.00
 70.97     659.00
 71.07     663.00
 71.17     693.00
 71.27     727.00
 71.37     704.77
 71.47     771.00
 71.57     895.00
 71.67     951.00
 71.77    1241.27
 71.87    1311.00
 71.97    1465.00
 72.07    1670.00
 72.17    1682.92
 72.27    1819.00
 72.37    1813.92
 72.47    1833.00
 72.57    1755.00
 72.67    1677.00
 72.77    1560.00
 72.87    1365.94
 72.97    1246.00
 73.07    1070.65
 73.17     967.00
 73.27     859.00
 73.37     746.00
 73.47     690.00
 73.57     712.09
 73.67     703.00
 73.77     638.00
 73.87     556.20
 73.97     639.00
 74.07     628.00
 74.17     646.90
 74.27     631.00
 74.37     595.27
 74.47     558.57
 74.57     655.00
 74.67     635.48
 74.77     635.00
 74.87     663.00
 74.97     630.51
 75.07     562.18
 75.17     658.00
 75.27     660.00
 75.37     657.00
 75.47     616.12
 75.57     635.00
 75.67     649.00
 75.77     522.47
 75.87     596.00
 75.97     566.00
 76.07     638.00
 76.17     592.60
 76.27     653.00
 76.37     687.00
 76.47     615.05
 76.57     737.00
 76.67     740.00
 76.77     732.00
 76.87     723.18
 76.97     704.09
 77.07     703.00
 77.17     711.00
 77.27     698.00
 77.37     679.00
 77.47     703.31
 77.57     637.00
 77.67     600.00
 77.77     563.01
 77.87     626.53
 77.97     594.15
 78.07     530.00
 78.17     568.31
 78.27     572.04
 78.37     553.21
 78.47     578.39
 78.57     540.00
 78.67     528.00
 78.77     560.00
 78.87     554.00
 78.97     529.00
 79.07     490.25
 79.17     565.00
 79.27     560.00
 79.37     566.00
 79.47     505.15
 79.57     515.89
 79.67     527.02
 79.77     559.00
 79.87     553.00
 79.97     560.00
 80.07     567.86
 80.17     581.35
 80.27     545.78
 80.37     532.28
 80.47     586.00
 80.57     603.00
 80.67     586.96
 80.77     570.66
 80.87     632.00
 80.97     643.85
 81.07     624.19
 81.17     683.00
 81.27     689.00
 81.37     709.23
 81.47     698.00
 81.57     777.54
 81.67     781.00
 81.77     782.00
 81.87     780.00
 81.97     711.57
 82.07     723.99
 82.17     736.00
 82.27     706.02
 82.37     728.75
 82.47     645.06
 82.57     680.41
 82.67     673.00
 82.77     646.00
 82.87     586.07
 82.97     610.06
 83.07     585.00
 83.17     598.00
 83.27     560.00
 83.37     585.00
 83.47     620.00
 83.57     600.00
 83.67     550.00
 83.77     606.83
 83.87     605.64
 83.97     588.76
 84.07     574.05
 84.17     589.00
 84.27     598.71
 84.37     628.64
 84.47     571.00
 84.57     621.92
 84.67     567.04
 84.77     603.00
 84.87     522.00
 84.97     555.00
 85.07     518.28
 85.17     514.20
 85.27     556.00
 85.37     555.00
 85.47     502.00
 85.57     532.75
 85.67     537.14
 85.77     525.00
 85.87     556.00
 85.97     560.00
 86.07     588.45
 86.17     537.00
 86.27     510.00
 86.37     558.00
 86.47     579.00
 86.57     540.00
 86.67     600.28
 86.77     543.00
 86.87     578.00
 86.97     539.63
 87.07     584.00
 87.17     615.00
 87.27     594.00
 87.37     585.00
 87.47     655.00
 87.57     585.39
 87.67     581.68
 87.77     654.00
 87.87     662.00
 87.97     687.13
 88.07     636.00
 88.17     641.44
 88.27     610.00
 88.37     612.00
 88.47     653.75
 88.57     615.00
 88.67     579.00
 88.77     621.96
 88.87     604.00
 88.97     559.26
 89.07     577.67
 89.17     557.00
 89.27     601.00
 89.37     607.00
 89.47     639.34
 89.57     649.31
 89.67     609.00
 89.77     597.40
 89.87     631.42
 89.97     625.00
 90.07     604.00
 90.17     561.21
 90.27     579.00
 90.37     580.00
 90.47     560.00
 90.57     542.00
 90.67     601.00
 90.77     574.00
 90.87     538.00
 90.97     535.00
 91.07     528.00
 91.17     553.00
 91.27     536.00
 91.37     499.00
 91.47     513.18
 91.57     529.18
 91.67     601.60
 91.77     526.00
 91.87     517.00
 91.97     542.68
 92.07     539.00
 92.17     548.00
 92.27     511.00
 92.37     566.00
 92.47     558.00
 92.57     646.76
 92.67     570.00
 92.77     608.00
 92.87     632.00
 92.97     621.09
 93.07     609.00
 93.17     633.00
 93.27     704.00
 93.37     690.00
 93.47     777.33
 93.57     761.00
 93.67     793.07
 93.77     747.00
 93.87     760.00
 93.97     811.00
 94.07     791.00
 94.17     892.76
 94.27     875.00
 94.37     824.00
 94.47     794.93
 94.57     908.13
 94.67     896.00
 94.77     881.00
 94.87     887.81
 94.97     944.00
 95.07     973.00
 95.17     911.00
 95.27     860.00
 95.37     849.00
 95.47     874.00
 95.57     924.26
 95.67     890.00
 95.77     860.00
 95.87     785.00
 95.97     837.53
 96.07     809.35
 96.17     789.54
 96.27     701.69
 96.37     755.00
 96.47     681.00
 96.57     764.03
 96.67     773.00
 96.77     737.22
 96.87     875.00
 96.97     842.40
 97.07     883.12
 97.17     944.00
 97.27    1047.00
 97.37    1092.00
 97.47    1232.00
 97.57    1290.00
 97.67    1272.29
 97.77    1419.00
 97.87    1445.00
 97.97    1524.00
 98.07    1473.00
 98.17    1492.00
 98.27    1441.00
 98.37    1317.99
 98.47    1366.00
 98.57    1282.00
 98.67    1190.00
 98.77    1180.29
 98.87    1161.41
 98.97    1011.71
 99.07    1042.52
 99.17     968.00
 99.27     955.00
 99.37     958.46
 99.47     881.11
 99.57     889.00
 99.67     955.00
 99.77     980.00
 99.87    1009.00
 99.97    1045.03
100.07    1148.00
100.17    1210.00
100.27    1306.00
100.37    1402.20
100.47    1620.00
100.57    1718.00
100.67    1758.00
100.77    1726.00
100.87    1759.73
100.97    1967.00
101.07    2043.00
101.17    2060.00
101.27    1970.23
101.37    1943.00
101.47    2004.00
101.57    1892.00
101.67    1909.00
101.77    1779.66
101.87    1724.00
101.97    1643.91
102.07    1610.00
102.17    1482.61
102.27    1509.02
102.37    1336.00
102.47    1376.27
102.57    1309.00
102.67    1269.74
102.77    1178.27
102.87    1191.00
102.97    1229.00
103.07    1150.00
103.17    1142.51
103.27    1170.44
103.37    1101.17
103.47    1008.00
103.57    1037.22
103.67     975.90
103.77     862.85
103.87     872.00
103.97     862.66
104.07     836.82
104.17     760.00
104.27     697.27
104.37     706.00
104.47     705.00
104.57     650.00
104.67     656.58
104.77     605.00
104.87     575.69
104.97     599.00
105.07     567.37
105.17     586.00
105.27     539.27
105.37     522.41
105.47     514.83
105.57     584.00
105.67     546.47
105.77     546.83
105.87     540.00
105.97     540.07
106.07     573.27
106.17     567.00
106.27     601.00
106.37     601.53
106.47     552.02
106.57     616.00
106.67     615.00
106.77     594.00
106.87     658.86
106.97     597.00
107.07     634.00
107.17     709.00
107.27     693.88
107.37     735.13
107.47     673.00
107.57     682.00
107.67     707.00
107.77     745.00
107.87     704.00
107.97     695.00
108.07     677.00
108.17     723.00
108.27     774.01
108.37     719.30
108.47     711.00
108.57     695.44
108.67     696.00
108.77     734.00
108.87     744.00
108.97     698.00
109.07     686.00
109.17     724.00
109.27     670.00
109.37     753.00
109.47     731.00
109.57     680.71
109.67     667.65
109.77     683.00
109.87     701.00
109.97     643.88
110.07     723.00
110.17     684.00
110.27     685.00
110.37     613.47
110.47     671.81
110.57     596.40
110.67     607.00
110.77     616.00
110.87     582.54
110.97     615.00
111.07     557.53
111.17     578.00
111.27     585.00
111.37     623.00
111.47     528.37
111.57     558.00
111.67     578.00
111.77     607.00
111.87     603.00
111.97     573.37
112.07     540.23
112.17     599.00
112.27     538.37
112.37     522.40
112.47     506.00
112.57     535.00
112.67     570.85
112.77     583.00
112.87     604.00
112.97     531.86
113.07     596.00
113.17     550.00
113.27     605.00
113.37     562.24
113.47     588.00
113.57     633.03
113.67     665.09
113.77     668.15
113.87     684.00
113.97     660.51
114.07     641.23
114.17     687.00
114.27     661.58
114.37     675.24
114.47     803.00
114.57     816.00
114.67     843.00
114.77     926.00
114.87    1015.00
114.97    1118.00
115.07    1265.00
115.17    1346.00
115.27    1549.00
115.37    1658.00
115.47    1951.00
115.57    2190.00
115.67    2447.00
115.77    2679.70
115.87    2872.00
115.97    3242.00
116.07    3602.00
116.17    3993.00
116.27    4247.00
116.37    4643.00
116.47    4902.89
116.57    5310.58
116.67    5812.00
116.77    6165.00
116.87    6434.00
116.97    6779.76
117.07    6840.46
117.17    6996.00
117.27    7051.00
117.37    7028.22
117.47    7059.00
117.57    6757.00
117.67    6680.83
117.77    6231.74
117.87    6012.82
117.97    5801.05
118.07    5412.96
118.17    4964.00
118.27    4740.00
118.37    4371.00
118.47    3982.00
118.57    3790.00
118.67    3423.00
118.77    2934.74
118.87    2716.00
118.97    2410.01
119.07    2171.00
119.17    1941.00
119.27    1913.21
119.37    1742.81
119.47    1474.00
119.57    1290.50
119.67    1148.00
119.77    1139.00
119.87    1083.38
119.97    1054.00
120.07     934.00
120.17     902.00
120.27     799.00
120.37     744.00
120.47     788.10
120.57     682.63
120.67     685.00
120.77     693.00
120.87     661.00
120.97     634.00
121.07     644.00
121.17     631.00
121.27     632.00
121.37     639.58
121.47     657.52
121.57     621.00
121.67     580.00
121.77     606.00
121.87     623.00
121.97     601.00
122.07     616.00
122.17     585.00
122.27     609.00
122.37     640.10
122.47     658.00
122.57     612.00
122.67     649.00
122.77     613.00
122.87     650.58
122.97     635.00
123.07     613.20
123.17     627.49
123.27     609.45
123.37     667.00
123.47     631.00
123.57     664.00
123.67     687.00
123.77     604.82
123.87     635.00
123.97     642.70
124.07     648.00
124.17     587.43
124.27     661.00
124.37     649.00
124.47     579.24
124.57     664.04
124.67     667.67
124.77     599.67
124.87     629.00
124.97     607.00
