  9.97     782.00
 10.07     777.43
 10.17     759.49
 10.27     769.00
 10.37     759.00
 10.47     798.47
 10.57     761.00
 10.67     780.70
 10.77     736.04
 10.87     739.00
 10.97     754.38
 11.07     779.00
 11.17     816.00
 11.27     787.00
 11.37     766.92
 11.47     763.00
 11.57     766.00
 11.67     783.00
 11.77     803.00
 11.87     804.00
 11.97     842.00
 12.07     885.00
 12.17     848.00
 12.27     909.42
 12.37     924.00
 12.47     831.27
 12.57     778.00
 12.67     789.72
 12.77     758.68
 12.87     751.00
 12.97     712.00
 13.07     671.00
 13.17     770.62
 13.27     680.04
 13.37     746.19
 13.47     730.00
 13.57     766.47
 13.67     666.00
 13.77     676.26
 13.87     672.00
 13.97     708.45
 14.07     698.00
 14.17     771.00
 14.27     714.74
 14.37     751.00
 14.47     738.07
 14.57     676.00
 14.67     711.00
 14.77     742.62
 14.87     664.05
 14.97     749.00
 15.07     680.00
 15.17     671.22
 15.27     762.58
 15.37     726.09
 15.47     750.00
 15.57     650.03
 15.67     693.00
 15.77     708.00
 15.87     629.00
 15.97     672.00
 16.07     744.22
 16.17     689.32
 16.27     708.00
 16.37     694.00
 16.47     700.00
 16.57     713.00
 16.67     659.00
 16.77     651.00
 16.87     642.26
 16.97     684.00
 17.07     660.00
 17.17     671.00
 17.27     646.56
 17.37     650.00
 17.47     666.00
 17.57     728.54
 17.67     698.77
 17.77     729.17
 17.87     691.13
 17.97     668.00
 18.07     692.00
 18.17     715.00
 18.27     648.29
 18.37     659.00
 18.47     722.62
 18.57     708.93
 18.67     657.00
 18.77     673.00
 18.87     689.00
 18.97     644.00
 19.07     646.00
 19.17     669.00
 19.27     639.00
 19.37     684.00
 19.47     651.00
 19.57     698.00
 19.67     632.00
 19.77     654.13
 19.87     697.95
 19.97     642.00
 20.07     666.00
 20.17     672.00
 20.27     670.00
 20.37     626.00
 20.47     742.00
 20.57     686.00
 20.67     659.08
 20.77     647.00
 20.87     677.01
 20.97     718.73
 21.07     662.00
 21.17     695.00
 21.27     684.00
 21.37     660.00
 21.47     690.00
 21.57     660.00
 21.67     678.00
 21.77     633.00
 21.87     640.00
 21.97     718.00
 22.07     714.58
 22.17     616.38
 22.27     659.00
 22.37     687.16
 22.47     661.00
 22.57     645.00
 22.67     627.00
 22.77     630.00
 22.87     639.00
 22.97     666.00
 23.07     683.00
 23.17     673.00
 23.27     630.00
 23.37     670.12
 23.47     645.68
 23.57     656.00
 23.67     670.61
 23.77     681.00
 23.87     640.00
 23.97     646.00
 24.07     712.73
 24.17     640.00
 24.27     637.00
 24.37     633.93
 24.47     630.56
 24.57     663.43
 24.67     758.00
 24.77     692.00
 24.87     721.48
 24.97     756.00
 25.07     762.37
 25.17     721.00
 25.27     748.62
 25.37     670.41
 25.47     696.00
 25.57     705.14
 25.67     689.96
 25.77     695.00
 25.87     673.00
 25.97     681.00
 26.07     714.00
 26.17     718.70
 26.27     642.43
 26.37     709.00
 26.47     741.77
 26.57     661.98
 26.67     666.21
 26.77     667.00
 26.87     715.00
 26.97     727.15
 27.07     746.28
 27.17     689.00
 27.27     734.01
 27.37     763.00
 27.47     777.19
 27.57     856.39
 27.67     925.51
 27.77     947.00
 27.87    1110.00
 27.97    1389.00
 28.07    2106.00
 28.17    3321.00
 28.27    5253.00
 28.37    7990.00
 28.47    9736.00
 28.57    9127.86
 28.67    7142.30
 28.77    5304.21
 28.87    4072.10
 28.97    4281.00
 29.07    4978.00
 29.17    5468.00
 29.27    5072.00
 29.37    4110.00
 29.47    2914.00
 29.57    1917.00
 29.67    1468.00
 29.77    1223.00
 29.87    1020.67
 29.97     952.00
 30.07     925.00
 30.17     900.00
 30.27     851.00
 30.37     738.00
 30.47     714.31
 30.57     754.58
 30.67     766.00
 30.77     725.00
 30.87     774.77
 30.97     739.50
 31.07     771.98
 31.17     836.00
 31.27     830.28
 31.37     745.39
 31.47     818.00
 31.57     670.82
 31.67     690.00
 31.77     711.23
 31.87     633.50
 31.97     722.00
 32.07     713.00
 32.17     697.00
 32.27     691.62
 32.37     675.18
 32.47     660.00
 32.57     659.00
 32.67     696.00
 32.77     688.00
 32.87     721.00
 32.97     699.00
 33.07     652.00
 33.17     703.67
 33.27     667.00
 33.37     692.00
 33.47     673.02
 33.57     742.01
 33.67     715.00
 33.77     724.45
 33.87     735.55
 33.97     856.00
 34.07     944.64
 34.17    1113.00
 34.27    1284.00
 34.37    1328.29
 34.47    1356.00
 34.57    1210.43
 34.67     984.60
 34.77     856.66
 34.87     795.00
 34.97     736.00
 35.07     692.44
 35.17     715.00
 35.27     722.00
 35.37     720.00
 35.47     676.00
 35.57     678.20
 35.67     616.48
 35.77     629.00
 35.87     658.00
 35.97     670.00
 36.07     653.00
 36.17     663.96
 36.27     690.15
 36.37     682.00
 36.47     615.99
 36.57     689.21
 36.67     588.00
 36.77     632.32
 36.87     658.00
 36.97     587.28
 37.07     642.00
 37.17     648.00
 37.27     661.00
 37.37     600.83
 37.47     650.00
 37.57     653.40
 37.67     656.72
 37.77     641.44
 37.87     721.48
 37.97     706.00
 38.07     783.00
 38.17     786.45
 38.27     809.00
 38.37     768.00
 38.47     817.00
 38.57     837.46
 38.67     728.23
 38.77     757.35
 38.87     660.38
 38.97     661.61
 39.07     644.00
 39.17     610.00
 39.27     622.00
 39.37     667.00
 39.47     588.00
 39.57     662.64
 39.67     658.00
 39.77     639.00
 39.87     663.04
 39.97     616.00
 40.07     631.00
 40.17     595.81
 40.27     604.68
 40.37     684.51
 40.47     619.00
 40.57     641.00
 40.67     613.00
 40.77     641.00
 40.87     658.00
 40.97     599.00
 41.07     623.08
 41.17     636.00
 41.27     616.00
 41.37     678.81
 41.47     656.00
 41.57     656.53
 41.67     611.87
 41.77     599.55
 41.87     591.55
 41.97     630.18
 42.07     619.00
 42.17     653.00
 42.27     634.00
 42.37     657.09
 42.47     658.00
 42.57     670.00
 42.67     725.72
 42.77     717.48
 42.87     738.60
 42.97     708.00
 43.07     693.00
 43.17     785.68
 43.27     711.00
 43.37     690.66
 43.47     684.00
 43.57     619.77
 43.67     624.00
 43.77     661.00
 43.87     617.98
 43.97     653.50
 44.07     609.09
 44.17     653.00
 44.27     707.00
 44.37     639.00
 44.47     643.00
 44.57     621.00
 44.67     624.00
 44.77     688.96
 44.87     645.00
 44.97     633.00
 45.07     621.00
 45.17     679.00
 45.27     602.84
 45.37     634.15
 45.47     636.17
 45.57     675.00
 45.67     607.53
 45.77     589.98
 45.87     586.52
 45.97     670.00
 46.07     661.00
 46.17     651.00
 46.27     614.00
 46.37     651.00
 46.47     600.00
 46.57     593.42
 46.67     681.00
 46.77     650.00
 46.87     639.00
 46.97     600.34
 47.07     689.14
 47.17     684.70
 47.27     662.58
 47.37     633.39
 47.47     660.42
 47.57     694.14
 47.67     674.00
 47.77     647.00
 47.87     653.91
 47.97     674.00
 48.07     708.00
 48.17     689.00
 48.27     714.00
 48.37     686.13
 48.47     745.00
 48.57     730.00
 48.67     656.93
 48.77     654.00
 48.87     654.00
 48.97     654.95
 49.07     705.63
 49.17     669.00
 49.27     711.00
 49.37     683.00
 49.47     737.90
 49.57     724.83
 49.67     732.00
 49.77     756.88
 49.87     823.00
 49.97     931.35
 50.07    1156.00
 50.17    1447.80
 50.27    1790.00
 50.37    2408.00
 50.47    2848.00
 50.57    3284.27
 50.67    3301.14
 50.77    3013.00
 50.87    2597.00
 50.97    2155.06
 51.07    1596.00
 51.17    1347.00
 51.27    1091.00
 51.37     873.25
 51.47     875.00
 51.57     830.00
 51.67     831.00
 51.77     785.00
 51.87     713.92
 51.97     719.00
 52.07     763.00
 52.17     724.63
 52.27     711.96
 52.37     738.00
 52.47     754.00
 52.57     786.00
 52.67     745.00
 52.77     746.00
 52.87     735.00
 52.97     690.50
 53.07     771.00
 53.17     746.00
 53.27     790.00
 53.37     816.00
 53.47     853.54
 53.57     907.00
 53.67     993.00
 53.77    1154.00
 53.87    1227.00
 53.97    1308.00
 54.07    1278.00
 54.17    1335.00
 54.27    1174.29
 54.37    1184.33
 54.47    1042.75
 54.57     978.47
 54.67     842.00
 54.77     840.66
 54.87     747.14
 54.97     768.00
 55.07     722.00
 55.17     725.00
 55.27     749.24
 55.37     706.00
 55.47     714.00
 55.57     705.00
 55.67     695.00
 55.77     703.24
 55.87     736.00
 55.97     722.00
 56.07     759.00
 56.17     735.40
 56.27     760.00
 56.37     795.00
 56.47     855.00
 56.57     863.00
 56.67     991.00
 56.77    1123.00
 56.87    1417.75
 56.97    1753.00
 57.07    2022.00
 57.17    2433.77
 57.27    2589.00
 57.37    2658.17
 57.47    2783.93
 57.57    2493.87
 57.67    2324.00
 57.77    1925.37
 57.87    1663.00
 57.97    1300.00
 58.07    1143.15
 58.17     991.48
 58.27     981.75
 58.37     861.00
 58.47     914.42
 58.57     850.00
 58.67     899.00
 58.77     873.00
 58.87     945.00
 58.97    1093.02
 59.07    1200.63
 59.17    1232.71
 59.27    1392.85
 59.37    1367.00
 59.47    1396.00
 59.57    1408.00
 59.67    1432.00
 59.77    1318.00
 59.87    1267.00
 59.97    1215.00
 60.07    1207.13
 60.17    1321.00
 60.27    1327.00
 60.37    1382.00
 60.47    1448.00
 60.57    1593.00
 60.67    1574.81
 60.77    1628.00
 60.87    1610.00
 60.97    1518.00
 61.07    1421.00
 61.17    1213.19
 61.27    1095.00
 61.37    1001.00
 61.47     934.00
 61.57     924.00
 61.67     867.00
 61.77     906.75
 61.87     897.00
 61.97     906.00
 62.07     984.71
 62.17    1154.00
 62.27    1318.00
 62.37    1544.35
 62.47    1634.00
 62.57    1839.00
 62.67    1935.00
 62.77    1967.00
 62.87    1846.07
 62.97    1671.39
 63.07    1504.00
 63.17    1431.20
 63.27    1233.00
 63.37    1074.00
 63.47     935.26
 63.57     895.00
 63.67     827.00
 63.77     792.94
 63.87     809.46
 63.97     840.00
 64.07     839.00
 64.17     782.00
 64.27     801.00
 64.37     850.95
 64.47     810.00
 64.57     935.00
 64.67     975.00
 64.77    1112.00
 64.87    1313.00
 64.97    1372.00
 65.07    1511.00
 65.17    1572.00
 65.27    1748.00
 65.37    1685.00
 65.47    1661.00
 65.57    1659.00
 65.67    1540.00
 65.77    1275.82
 65.87    1251.00
 65.97    1146.80
 66.07    1003.00
 66.17     926.75
 66.27     914.46
 66.37     784.00
 66.47     830.00
 66.57     803.00
 66.67     779.00
 66.77     808.09
 66.87     804.55
 66.97     769.00
 67.07     714.81
 67.17     777.00
 67.27     733.88
 67.37     726.00
 67.47     791.00
 67.57     764.00
 67.67     833.00
 67.77     923.44
 67.87    1012.58
 67.97    1107.32
 68.07    1271.38
 68.17    1444.00
 68.27    1814.46
 68.37    1930.00
 68.47    2203.00
 68.57    2334.70
 68.67    2569.00
 68.77    2523.85
 68.87    2538.00
 68.97    2308.79
 69.07    2037.98
 69.17    1872.00
 69.27    1737.00
 69.37    1446.00
 69.47    1283.00
 69.57    1029.51
 69.67     955.13
 69.77     916.95
 69.87     928.00
 69.97     866.00
 70.07     840.00
 70.17     784.17
 70.27     804.25
 70.37     787.00
 70.47     735.60
 70.57     773.73
 70.67     731.00
 70.77     737.00
 70.87     756.11
 70.97     704.00
 71.07     724.00
 71.17     780.58
 71.27     751.00
 71.37     752.00
 71.47     793.00
 71.57     791.51
 71.67     856.00
 71.77     851.00
 71.87     945.00
 71.97    1090.00
 72.07    1212.00
 72.17    1399.00
 72.27    1529.44
 72.37    1603.00
 72.47    1928.02
 72.57    1936.33
 72.67    2120.22
 72.77    2108.00
 72.87    1927.00
 72.97    1893.00
 73.07    1770.00
 73.17    1646.00
 73.27    1508.00
 73.37    1281.00
 73.47    1104.00
 73.57    1016.00
 73.67     987.00
 73.77     927.47
 73.87     794.00
 73.97     866.00
 74.07     808.65
 74.17     801.00
 74.27     757.00
 74.37     751.00
 74.47     715.00
 74.57     762.32
 74.67     728.00
 74.77     764.00
 74.87     690.00
 74.97     767.38
 75.07     694.94
 75.17     696.00
 75.27     763.00
 75.37     673.45
 75.47     677.27
 75.57     721.62
 75.67     776.00
 75.77     788.00
 75.87     780.00
 75.97     710.00
 76.07     697.00
 76.17     710.75
 76.27     745.00
 76.37     755.54
 76.47     782.00
 76.57     771.00
 76.67     900.62
 76.77     880.92
 76.87     927.00
 76.97    1017.00
 77.07    1027.00
 77.17    1092.99
 77.27    1080.00
 77.37    1054.19
 77.47    1135.00
 77.57    1043.00
 77.67     983.01
 77.77     930.25
 77.87     983.00
 77.97     868.00
 78.07     798.00
 78.17     807.00
 78.27     745.00
 78.37     782.89
 78.47     713.52
 78.57     651.12
 78.67     731.06
 78.77     716.32
 78.87     634.22
 78.97     695.00
 79.07     706.44
 79.17     633.55
 79.27     641.00
 79.37     690.00
 79.47     695.00
 79.57     721.81
 79.67     667.00
 79.77     704.81
 79.87     702.00
 79.97     670.00
 80.07     652.00
 80.17     725.00
 80.27     705.00
 80.37     693.00
 80.47     727.77
 80.57     741.00
 80.67     708.00
 80.77     788.00
 80.87     849.00
 80.97     932.00
 81.07     971.00
 81.17    1073.00
 81.27    1143.90
 81.37    1293.00
 81.47    1257.28
 81.57    1479.00
 81.67    1579.00
 81.77    1535.68
 81.87    1635.00
 81.97    1509.03
 82.07    1679.00
 82.17    1544.53
 82.27    1446.10
 82.37    1303.47
 82.47    1201.84
 82.57    1248.00
 82.67    1155.00
 82.77    1046.45
 82.87     947.00
 82.97     871.00
 83.07     903.00
 83.17     824.40
 83.27     785.00
 83.37     743.63
 83.47     709.00
 83.57     700.00
 83.67     690.00
 83.77     711.13
 83.87     697.00
 83.97     694.00
 84.07     685.00
 84.17     742.81
 84.27     694.00
 84.37     676.49
 84.47     782.26
 84.57     721.00
 84.67     651.00
 84.77     698.00
 84.87     715.44
 84.97     738.64
 85.07     698.00
 85.17     713.00
 85.27     676.00
 85.37     708.00
 85.47     651.81
 85.57     627.00
 85.67     622.00
 85.77     635.00
 85.87     663.00
 85.97     615.00
 86.07     652.00
 86.17     618.89
 86.27     651.14
 86.37     665.00
 86.47     676.00
 86.57     662.00
 86.67     691.00
 86.77     694.00
 86.87     688.79
 86.97     663.00
 87.07     725.09
 87.17     696.00
 87.27     679.00
 87.37     697.00
 87.47     729.00
 87.57     678.93
 87.67     762.00
 87.77     750.00
 87.87     766.00
 87.97     749.00
 88.07     750.00
 88.17     769.00
 88.27     782.00
 88.37     734.97
 88.47     826.00
 88.57     759.00
 88.67     744.00
 88.77     755.00
 88.87     719.10
 88.97     724.60
 89.07     685.00
 89.17     708.00
 89.27     744.00
 89.37     669.00
 89.47     726.00
 89.57     673.00
 89.67     666.00
 89.77     665.00
 89.87     705.00
 89.97     768.29
 90.07     801.00
 90.17     701.00
 90.27     667.16
 90.37     649.00
 90.47     660.30
 90.57     701.00
 90.67     752.00
 90.77     715.00
 90.87     665.00
 90.97     728.00
 91.07     691.41
 91.17     664.00
 91.27     622.00
 91.37     647.00
 91.47     657.00
 91.57     652.00
 91.67     666.08
 91.77     695.00
 91.87     647.00
 91.97     623.03
 92.07     633.00
 92.17     640.57
 92.27     653.00
 92.37     585.00
 92.47     621.72
 92.57     646.00
 92.67     625.00
 92.77     680.00
 92.87     605.00
 92.97     643.00
 93.07     660.00
 93.17     651.00
 93.27     714.00
 93.37     760.00
 93.47     725.00
 93.57     714.88
 93.67     784.00
 93.77     756.00
 93.87     814.19
 93.97     835.02
 94.07     852.00
 94.17     860.85
 94.27     897.00
 94.37     950.00
 94.47     950.00
 94.57     930.00
 94.67     893.00
 94.77     963.03
 94.87     961.00
 94.97    1017.00
 95.07    1004.00
 95.17    1077.00
 95.27    1014.00
 95.37    1081.00
 95.47    1111.90
 95.57    1028.17
 95.67    1050.15
 95.77    1067.61
 95.87    1089.00
 95.97    1110.10
 96.07    1063.38
 96.17    1069.00
 96.27     979.00
 96.37     936.61
 96.47     989.00
 96.57     941.21
 96.67     922.00
 96.77     945.00
 96.87     877.00
 96.97     902.71
 97.07     911.35
 97.17     854.31
 97.27     937.75
 97.37     962.41
 97.47     978.00
 97.57    1041.00
 97.67    1111.00
 97.77    1183.70
 97.87    1271.00
 97.97    1312.00
 98.07    1336.35
 98.17    1451.00
 98.27    1500.00
 98.37    1539.00
 98.47    1585.00
 98.57    1593.72
 98.67    1621.00
 98.77    1557.00
 98.87    1604.00
 98.97    1521.00
 99.07    1422.25
 99.17    1434.00
 99.27    1338.00
 99.37    1292.96
 99.47    1232.00
 99.57    1232.00
 99.67    1058.00
 99.77    1084.00
 99.87    1075.77
 99.97    1080.84
100.07    1077.52
100.17    1040.50
100.27    1120.00
100.37    1090.28
100.47    1213.00
100.57    1249.00
100.67    1332.09
100.77    1321.60
100.87    1464.22
100.97    1519.00
101.07    1649.42
101.17    1779.00
101.27    1836.00
101.37    1978.00
101.47    2077.94
101.57    2055.62
101.67    2005.33
101.77    2073.00
101.87    2160.00
101.97    2189.00
102.07    2217.00
102.17    2147.00
102.27    2167.00
102.37    2082.00
102.47    1983.00
102.57    1867.00
102.67    1882.00
102.77    1823.00
102.87    1718.00
102.97    1681.00
103.07    1553.00
103.17    1542.48
103.27    1434.52
103.37    1384.65
103.47    1384.00
103.57    1383.50
103.67    1299.00
103.77    1261.00
103.87    1245.00
103.97    1254.00
104.07    1207.00
104.17    1158.21
104.27    1085.00
104.37    1084.00
104.47    1065.00
104.57    1044.62
104.67     988.99
104.77     960.00
104.87     929.00
104.97     904.00
105.07     810.79
105.17     806.00
105.27     792.00
105.37     741.00
105.47     755.29
105.57     654.00
105.67     669.00
105.77     683.00
105.87     691.00
105.97     650.00
106.07     614.32
106.17     647.00
106.27     688.00
106.37     668.00
106.47     632.37
106.57     630.00
106.67     651.00
106.77     717.00
106.87     605.19
106.97     625.36
107.07     677.00
107.17     639.46
107.27     718.49
107.37     647.73
107.47     646.00
107.57     763.25
107.67     735.00
107.77     728.00
107.87     772.00
107.97     733.00
108.07     752.00
108.17     768.00
108.27     788.00
108.37     838.83
108.47     843.00
108.57     832.28
108.67     884.53
108.77     827.00
108.87     787.00
108.97     807.00
109.07     828.00
109.17     785.66
109.27     828.92
109.37     862.50
109.47     796.00
109.57     744.00
109.67     800.00
109.77     787.00
109.87     767.36
109.97     793.00
110.07     828.31
110.17     790.00
110.27     792.69
110.37     798.00
110.47     780.34
110.57     799.00
110.67     767.00
110.77     744.00
110.87     825.00
110.97     762.00
111.07     800.00
111.17     742.00
111.27     758.00
111.37     702.70
111.47     746.00
111.57     629.00
111.67     675.00
111.77     710.00
111.87     733.00
111.97     691.03
112.07     685.00
112.17     659.00
112.27     661.00
112.37     637.76
112.47     659.00
112.57     614.50
112.67     625.00
112.77     622.07
112.87     681.84
112.97     650.00
113.07     596.46
113.17     634.66
113.27     628.00
113.37     633.00
113.47     684.54
113.57     626.00
113.67     671.00
113.77     658.00
113.87     642.00
113.97     657.59
114.07     646.54
114.17     672.07
114.27     673.14
114.37     718.00
114.47     718.24
114.57     660.00
114.67     699.00
114.77     699.52
114.87     722.00
114.97     809.00
115.07     841.75
115.17     903.00
115.27     897.00
115.37     963.35
115.47     979.00
115.57    1102.00
115.67    1183.00
115.77    1281.00
115.87    1421.95
115.97    1665.43
116.07    1804.00
116.17    1989.03
116.27    2220.91
116.37    2390.75
116.47    2772.41
116.57    2996.00
116.67    3293.00
116.77    3712.00
116.87    3925.00
116.97    4477.39
117.07    4704.00
117.17    5104.00
117.27    5529.00
117.37    5987.00
117.47    6234.00
117.57    6864.52
117.67    6992.00
117.77    7427.48
117.87    7389.00
117.97    7696.80
118.07    7640.61
118.17    7474.27
118.27    7656.00
118.37    7601.00
118.47    7243.81
118.57    6982.00
118.67    6564.97
118.77    6286.70
118.87    5957.00
118.97    5537.33
119.07    5352.63
119.17    4834.00
119.27    4576.00
119.37    4111.00
119.47    3817.43
119.57    3510.00
119.67    3270.00
119.77    2952.04
119.87    2519.37
119.97    2382.15
120.07    2148.00
120.17    2008.98
120.27    1789.00
120.37    1654.83
120.47    1534.00
120.57    1430.00
120.67    1324.50
120.77    1259.00
120.87    1192.00
120.97    1113.00
121.07    1077.00
121.17    1000.54
121.27     906.12
121.37     920.00
121.47     905.00
121.57     843.16
121.67     835.88
121.77     853.00
121.87     742.00
121.97     752.27
122.07     818.11
122.17     747.00
122.27     775.65
122.37     741.00
122.47     752.00
122.57     755.00
122.67     738.00
122.77     702.00
122.87     789.66
122.97     718.85
123.07     755.29
123.17     710.61
123.27     724.00
123.37     759.49
123.47     740.18
123.57     802.68
123.67     767.00
123.77     737.00
123.87     773.30
123.97     811.43
124.07     845.22
124.17     867.37
124.27     862.88
124.37     779.05
124.47     867.00
124.57     875.33
124.67     788.00
124.77     875.00
124.87     838.00
124.97     908.00
