  9.97     662.00
 10.07     686.00
 10.17     667.00
 10.27     748.00
 10.37     700.00
 10.47     714.00
 10.57     646.00
 10.67     666.00
 10.77     714.00
 10.87     706.00
 10.97     726.00
 11.07     700.00
 11.17     703.71
 11.27     658.72
 11.37     689.00
 11.47     674.00
 11.57     731.00
 11.67     761.00
 11.77     735.00
 11.87     774.00
 11.97     743.00
 12.07     712.16
 12.17     794.00
 12.27     792.00
 12.37     797.15
 12.47     744.15
 12.57     700.00
 12.67     729.67
 12.77     700.00
 12.87     688.00
 12.97     660.00
 13.07     673.00
 13.17     649.48
 13.27     636.00
 13.37     630.00
 13.47     596.00
 13.57     661.00
 13.67     665.00
 13.77     652.00
 13.87     620.00
 13.97     655.00
 14.07     659.87
 14.17     635.00
 14.27     651.09
 14.37     618.00
 14.47     623.00
 14.57     642.00
 14.67     699.32
 14.77     650.00
 14.87     619.00
 14.97     657.00
 15.07     628.00
 15.17     628.86
 15.27     607.00
 15.37     651.00
 15.47     632.34
 15.57     585.00
 15.67     645.00
 15.77     631.46
 15.87     617.00
 15.97     629.00
 16.07     628.00
 16.17     639.00
 16.27     664.00
 16.37     654.00
 16.47     636.00
 16.57     652.58
 16.67     609.00
 16.77     606.74
 16.87     656.00
 16.97     671.00
 17.07     658.00
 17.17     675.67
 17.27     686.21
 17.37     638.00
 17.47     642.00
 17.57     585.43
 17.67     627.38
 17.77     617.00
 17.87     586.00
 17.97     618.00
 18.07     614.00
 18.17     625.00
 18.27     612.30
 18.37     580.81
 18.47     623.00
 18.57     664.20
 18.67     676.53
 18.77     620.00
 18.87     602.00
 18.97     611.00
 19.07     652.00
 19.17     635.00
 19.27     596.00
 19.37     604.00
 19.47     625.16
 19.57     561.00
 19.67     616.00
 19.77     588.00
 19.87     596.83
 19.97     610.00
 20.07     620.00
 20.17     628.00
 20.27     623.00
 20.37     589.31
 20.47     597.00
 20.57     611.00
 20.67     597.00
 20.77     613.00
 20.87     637.35
 20.97     565.00
 21.07     567.00
 21.17     645.00
 21.27     602.04
 21.37     612.00
 21.47     642.00
 21.57     623.00
 21.67     601.00
 21.77     658.12
 21.87     584.33
 21.97     611.00
 22.07     642.76
 22.17     623.00
 22.27     608.00
 22.37     638.07
 22.47     580.51
 22.57     609.91
 22.67     597.00
 22.77     618.11
 22.87     648.00
 22.97     584.00
 23.07     592.00
 23.17     566.86
 23.27     579.11
 23.37     601.00
 23.47     593.93
 23.57     571.48
 23.67     654.00
 23.77     619.00
 23.87     607.00
 23.97     586.64
 24.07     598.00
 24.17     605.52
 24.27     609.00
 24.37     589.97
 24.47     669.00
 24.57     668.00
 24.67     638.00
 24.77     627.53
 24.87     739.00
 24.97     668.00
 25.07     679.00
 25.17     651.00
 25.27     623.00
 25.37     677.66
 25.47     613.00
 25.57     679.00
 25.67     616.00
 25.77     656.87
 25.87     663.00
 25.97     652.00
 26.07     643.00
 26.17     657.00
 26.27     616.70
 26.37     605.00
 26.47     670.00
 26.57     676.70
 26.67     600.00
 26.77     598.40
 26.87     659.00
 26.97     642.00
 27.07     672.00
 27.17     656.00
 27.27     672.00
 27.37     707.00
 27.47     677.00
 27.57     744.00
 27.67     762.00
 27.77     875.45
 27.87     974.00
 27.97    1238.00
 28.07    1830.00
 28.17    2862.00
 28.27    4103.00
 28.37    5241.00
 28.47    5356.22
 28.57    4803.00
 28.67    3460.00
 28.77    2688.00
 28.87    2502.00
 28.97    2737.00
 29.07    3201.00
 29.17    3247.00
 29.27    2643.93
 29.37    2077.00
 29.47    1574.84
 29.57    1146.00
 29.67     959.00
 29.77     897.00
 29.87     849.00
 29.97     820.00
 30.07     700.00
 30.17     659.38
 30.27     666.90
 30.37     673.00
 30.47     599.47
 30.57     694.13
 30.67     673.00
 30.77     669.00
 30.87     712.18
 30.97     797.00
 31.07     739.00
 31.17     734.00
 31.27     663.00
 31.37     774.00
 31.47     709.00
 31.57     692.00
 31.67     669.00
 31.77     647.64
 31.87     619.00
 31.97     619.00
 32.07     658.00
 32.17     645.47
 32.27     632.00
 32.37     604.00
 32.47     556.58
 32.57     619.00
 32.67     615.97
 32.77     579.00
 32.87     600.00
 32.97     606.73
 33.07     636.00
 33.17     617.00
 33.27     611.00
 33.37     621.00
 33.47     651.00
 33.57     613.95
 33.67     631.98
 33.77     685.00
 33.87     716.65
 33.97     821.00
 34.07     978.00
 34.17    1052.62
 34.27    1165.00
 34.37    1056.96
 34.47     962.58
 34.57     881.59
 34.67     835.83
 34.77     690.00
 34.87     634.06
 34.97     587.24
 35.07     624.00
 35.17     551.69
 35.27     604.00
 35.37     557.73
 35.47     614.00
 35.57     585.00
 35.67     590.00
 35.77     585.00
 35.87     590.00
 35.97     570.00
 36.07     618.00
 36.17     577.00
 36.27     561.00
 36.37     558.00
 36.47     528.66
 36.57     562.50
 36.67     525.00
 36.77     544.35
 36.87     581.00
 36.97     550.36
 37.07     583.00
 37.17     553.00
 37.27     574.00
 37.37     566.82
 37.47     571.00
 37.57     591.12
 37.67     620.41
 37.77     581.64
 37.87     663.01
 37.97     628.13
 38.07     629.39
 38.17     662.00
 38.27     693.00
 38.37     639.56
 38.47     656.61
 38.57     629.00
 38.67     627.08
 38.77     583.00
 38.87     575.00
 38.97     554.40
 39.07     569.00
 39.17     571.00
 39.27     618.00
 39.37     546.00
 39.47     564.00
 39.57     574.00
 39.67     552.06
 39.77     566.69
 39.87     528.71
 39.97     542.00
 40.07     571.00
 40.17     595.00
 40.27     623.00
 40.37     601.00
 40.47     612.01
 40.57     587.23
 40.67     582.48
 40.77     551.00
 40.87     596.49
 40.97     560.00
 41.07     590.63
 41.17     576.00
 41.27     516.00
 41.37     563.07
 41.47     560.74
 41.57     522.08
 41.67     538.55
 41.77     570.00
 41.87     584.00
 41.97     602.84
 42.07     533.00
 42.17     500.00
 42.27     584.00
 42.37     564.71
 42.47     563.00
 42.57     603.00
 42.67     661.61
 42.77     664.00
 42.87     623.00
 42.97     680.28
 43.07     679.26
 43.17     660.00
 43.27     598.78
 43.37     601.31
 43.47     598.00
 43.57     551.34
 43.67     570.00
 43.77     550.00
 43.87     557.00
 43.97     602.00
 44.07     580.50
 44.17     535.00
 44.27     590.94
 44.37     598.65
 44.47     554.00
 44.57     587.00
 44.67     608.71
 44.77     553.17
 44.87     598.00
 44.97     543.00
 45.07     543.00
 45.17     596.00
 45.27     520.26
 45.37     565.00
 45.47     580.63
 45.57     606.23
 45.67     568.00
 45.77     545.00
 45.87     549.00
 45.97     604.00
 46.07     571.00
 46.17     522.80
 46.27     544.45
 46.37     600.00
 46.47     598.68
 46.57     611.59
 46.67     593.20
 46.77     592.00
 46.87     560.00
 46.97     577.00
 47.07     581.35
 47.17     617.71
 47.27     607.70
 47.37     587.00
 47.47     548.00
 47.57     598.00
 47.67     576.45
 47.77     591.00
 47.87     613.16
 47.97     683.00
 48.07     631.00
 48.17     673.00
 48.27     639.45
 48.37     656.00
 48.47     673.00
 48.57     651.00
 48.67     571.00
 48.77     657.60
 48.87     562.03
 48.97     593.00
 49.07     528.00
 49.17     576.00
 49.27     596.00
 49.37     590.59
 49.47     649.97
 49.57     652.00
 49.67     707.60
 49.77     763.00
 49.87     846.00
 49.97    1073.86
 50.07    1249.00
 50.17    1759.00
 50.27    2155.47
 50.37    2611.00
 50.47    2812.00
 50.57    2856.00
 50.67    2613.46
 50.77    2273.00
 50.87    1680.94
 50.97    1306.56
 51.07    1092.00
 51.17     848.84
 51.27     825.00
 51.37     724.00
 51.47     741.00
 51.57     739.00
 51.67     682.00
 51.77     703.69
 51.87     687.00
 51.97     634.00
 52.07     678.00
 52.17     596.01
 52.27     630.00
 52.37     673.00
 52.47     584.97
 52.57     601.13
 52.67     663.83
 52.77     675.00
 52.87     668.00
 52.97     700.00
 53.07     675.00
 53.17     684.41
 53.27     802.00
 53.37     843.00
 53.47     928.00
 53.57     991.00
 53.67    1177.73
 53.77    1187.04
 53.87    1301.00
 53.97    1276.00
 54.07    1168.00
 54.17    1045.00
 54.27     950.00
 54.37     936.17
 54.47     769.00
 54.57     702.00
 54.67     688.08
 54.77     694.57
 54.87     608.06
 54.97     613.00
 55.07     635.00
 55.17     573.00
 55.27     642.60
 55.37     681.35
 55.47     621.00
 55.57     599.70
 55.67     643.00
 55.77     598.75
 55.87     676.00
 55.97     626.00
 56.07     698.00
 56.17     726.00
 56.27     741.88
 56.37     770.00
 56.47     851.00
 56.57     963.00
 56.67    1155.97
 56.77    1417.00
 56.87    1819.34
 56.97    2121.00
 57.07    2412.00
 57.17    2639.00
 57.27    2645.03
 57.37    2622.00
 57.47    2439.00
 57.57    1998.00
 57.67    1710.74
 57.77    1315.00
 57.87    1093.00
 57.97    1006.07
 58.07     880.00
 58.17     767.00
 58.27     796.00
 58.37     744.00
 58.47     807.00
 58.57     777.20
 58.67     862.00
 58.77     944.00
 58.87    1039.79
 58.97    1061.65
 59.07    1194.00
 59.17    1260.75
 59.27    1241.54
 59.37    1285.00
 59.47    1251.00
 59.57    1288.00
 59.67    1250.03
 59.77    1191.16
 59.87    1239.00
 59.97    1239.00
 60.07    1309.00
 60.17    1254.00
 60.27    1428.00
 60.37    1449.00
 60.47    1569.88
 60.57    1636.99
 60.67    1593.74
 60.77    1523.00
 60.87    1332.39
 60.97    1270.00
 61.07    1127.00
 61.17     999.00
 61.27     920.00
 61.37     846.00
 61.47     756.00
 61.57     770.52
 61.67     815.00
 61.77     877.00
 61.87     824.88
 61.97     918.00
 62.07     987.00
 62.17    1144.00
 62.27    1327.00
 62.37    1432.00
 62.47    1539.00
 62.57    1558.45
 62.67    1573.00
 62.77    1435.00
 62.87    1330.00
 62.97    1256.62
 63.07    1084.00
 63.17     863.00
 63.27     813.94
 63.37     791.00
 63.47     749.00
 63.57     732.57
 63.67     668.00
 63.77     649.00
 63.87     679.28
 63.97     705.65
 64.07     742.00
 64.17     693.45
 64.27     731.00
 64.37     821.00
 64.47     823.72
 64.57     948.67
 64.67    1043.00
 64.77    1080.58
 64.87    1208.00
 64.97    1356.00
 65.07    1258.55
 65.17    1335.12
 65.27    1376.00
 65.37    1320.00
 65.47    1154.00
 65.57    1064.00
 65.67    1002.00
 65.77     922.19
 65.87     800.82
 65.97     742.00
 66.07     746.50
 66.17     744.00
 66.27     656.00
 66.37     646.71
 66.47     683.00
 66.57     634.00
 66.67     698.04
 66.77     634.00
 66.87     636.75
 66.97     702.00
 67.07     624.00
 67.17     722.77
 67.27     692.46
 67.37     743.00
 67.47     786.00
 67.57     763.00
 67.67     853.36
 67.77     995.00
 67.87    1213.00
 67.97    1359.96
 68.07    1529.00
 68.17    1752.00
 68.27    2068.00
 68.37    2324.00
 68.47    2528.62
 68.57    2490.00
 68.67    2423.00
 68.77    2222.00
 68.87    2074.00
 68.97    1805.40
 69.07    1523.45
 69.17    1311.88
 69.27    1160.00
 69.37     967.95
 69.47     939.00
 69.57     859.00
 69.67     814.00
 69.77     669.91
 69.87     756.00
 69.97     702.00
 70.07     669.00
 70.17     657.00
 70.27     685.00
 70.37     629.60
 70.47     666.00
 70.57     658.04
 70.67     685.00
 70.77     699.62
 70.87     603.62
 70.97     628.62
 71.07     710.00
 71.17     730.00
 71.27     662.00
 71.37     751.00
 71.47     730.00
 71.57     802.00
 71.67     899.00
 71.77    1015.00
 71.87    1120.00
 71.97    1213.00
 72.07    1303.00
 72.17    1549.00
 72.27    1747.00
 72.37    1779.85
 72.47    2013.00
 72.57    2081.00
 72.67    1834.00
 72.77    1759.89
 72.87    1723.34
 72.97    1467.00
 73.07    1374.90
 73.17    1122.00
 73.27    1087.13
 73.37     898.00
 73.47     855.62
 73.57     762.00
 73.67     720.00
 73.77     651.00
 73.87     650.00
 73.97     697.01
 74.07     692.07
 74.17     672.00
 74.27     639.00
 74.37     622.00
 74.47     689.00
 74.57     650.59
 74.67     660.43
 74.77     655.00
 74.87     644.00
 74.97     650.00
 75.07     642.00
 75.17     683.80
 75.27     672.00
 75.37     660.61
 75.47     722.00
 75.57     696.00
 75.67     672.00
 75.77     641.00
 75.87     629.00
 75.97     635.00
 76.07     624.00
 76.17     674.00
 76.27     676.00
 76.37     682.00
 76.47     756.00
 76.57     789.17
 76.67     825.00
 76.77     832.00
 76.87     853.00
 76.97     923.34
 77.07     917.60
 77.17     902.80
 77.27     908.00
 77.37     853.25
 77.47     860.51
 77.57     747.92
 77.67     750.00
 77.77     705.00
 77.87     744.00
 77.97     678.00
 78.07     600.28
 78.17     664.71
 78.27     632.06
 78.37     592.00
 78.47     628.00
 78.57     583.35
 78.67     623.65
 78.77     605.02
 78.87     579.66
 78.97     610.00
 79.07     589.00
 79.17     591.71
 79.27     617.25
 79.37     570.13
 79.47     556.32
 79.57     575.00
 79.67     567.00
 79.77     583.23
 79.87     623.61
 79.97     594.00
 80.07     620.00
 80.17     605.00
 80.27     595.43
 80.37     609.00
 80.47     642.00
 80.57     667.00
 80.67     703.00
 80.77     777.00
 80.87     811.00
 80.97     842.00
 81.07     895.00
 81.17     946.00
 81.27    1034.00
 81.37    1076.00
 81.47    1120.00
 81.57    1173.02
 81.67    1202.00
 81.77    1249.00
 81.87    1200.00
 81.97    1145.00
 82.07    1122.00
 82.17    1032.00
 82.27     967.00
 82.37     981.57
 82.47     904.06
 82.57     875.37
 82.67     775.12
 82.77     749.00
 82.87     701.64
 82.97     732.64
 83.07     645.00
 83.17     712.65
 83.27     622.67
 83.37     607.13
 83.47     596.27
 83.57     598.00
 83.67     576.00
 83.77     569.00
 83.87     620.60
 83.97     572.00
 84.07     641.14
 84.17     625.00
 84.27     615.00
 84.37     669.70
 84.47     670.33
 84.57     693.03
 84.67     641.00
 84.77     620.34
 84.87     604.00
 84.97     599.00
 85.07     628.00
 85.17     643.98
 85.27     621.00
 85.37     581.00
 85.47     581.00
 85.57     587.88
 85.67     604.00
 85.77     587.17
 85.87     556.17
 85.97     556.00
 86.07     568.74
 86.17     570.22
 86.27     622.00
 86.37     632.55
 86.47     631.00
 86.57     555.00
 86.67     585.00
 86.77     592.14
 86.87     639.41
 86.97     582.57
 87.07     621.00
 87.17     629.00
 87.27     657.95
 87.37     666.00
 87.47     664.00
 87.57     677.82
 87.67     669.00
 87.77     672.00
 87.87     637.84
 87.97     687.12
 88.07     708.00
 88.17     709.37
 88.27     684.00
 88.37     716.00
 88.47     676.00
 88.57     672.00
 88.67     666.00
 88.77     642.35
 88.87     653.94
 88.97     596.00
 89.07     634.00
 89.17     614.08
 89.27     587.58
 89.37     633.29
 89.47     625.00
 89.57     622.87
 89.67     634.00
 89.77     643.68
 89.87     667.00
 89.97     689.75
 90.07     625.83
 90.17     609.34
 90.27     647.00
 90.37     637.15
 90.47     605.00
 90.57     598.43
 90.67     588.83
 90.77     673.00
 90.87     577.00
 90.97     621.91
 91.07     580.89
 91.17     594.76
 91.27     558.87
 91.37     592.00
 91.47     553.00
 91.57     528.31
 91.67     540.00
 91.77     551.16
 91.87     579.18
 91.97     598.00
 92.07     614.83
 92.17     557.60
 92.27     568.48
 92.37     553.75
 92.47     588.00
 92.57     593.00
 92.67     579.00
 92.77     581.00
 92.87     664.47
 92.97     648.00
 93.07     650.00
 93.17     677.00
 93.27     712.00
 93.37     766.00
 93.47     729.00
 93.57     730.75
 93.67     809.56
 93.77     732.00
 93.87     807.01
 93.97     831.28
 94.07     821.67
 94.17     904.00
 94.27     862.00
 94.37     821.48
 94.47     840.39
 94.57     933.00
 94.67     950.00
 94.77     940.00
 94.87     910.00
 94.97    1014.16
 95.07    1000.00
 95.17     918.00
 95.27     944.00
 95.37    1016.00
 95.47    1021.05
 95.57     980.00
 95.67    1035.00
 95.77    1003.00
 95.87     899.16
 95.97     915.00
 96.07     922.00
 96.17     883.00
 96.27     858.72
 96.37     799.50
 96.47     738.35
 96.57     808.51
 96.67     855.00
 96.77     826.68
 96.87     782.00
 96.97     799.90
 97.07     875.78
 97.17     871.98
 97.27     951.00
 97.37    1033.00
 97.47    1128.45
 97.57    1090.00
 97.67    1245.45
 97.77    1281.00
 97.87    1376.00
 97.97    1488.00
 98.07    1519.00
 98.17    1593.00
 98.27    1596.00
 98.37    1578.00
 98.47    1557.00
 98.57    1533.00
 98.67    1456.45
 98.77    1388.00
 98.87    1346.06
 98.97    1224.00
 99.07    1245.00
 99.17    1147.46
 99.27    1119.00
 99.37    1108.64
 99.47     979.00
 99.57    1004.00
 99.67     966.00
 99.77     954.00
 99.87     938.01
 99.97    1044.45
100.07    1066.00
100.17    1063.00
100.27    1205.18
100.37    1239.52
100.47    1255.42
100.57    1447.88
100.67    1421.96
100.77    1635.00
100.87    1658.69
100.97    1804.00
101.07    2031.00
101.17    1989.00
101.27    1964.00
101.37    2073.95
101.47    2085.00
101.57    2032.00
101.67    2037.00
101.77    2112.00
101.87    2034.00
101.97    1967.25
102.07    2003.59
102.17    1882.00
102.27    1683.00
102.37    1663.00
102.47    1666.95
102.57    1541.00
102.67    1541.00
102.77    1410.00
102.87    1421.33
102.97    1364.68
103.07    1261.00
103.17    1294.89
103.27    1235.21
103.37    1176.00
103.47    1184.00
103.57    1120.16
103.67    1118.05
103.77    1074.00
103.87    1071.03
103.97    1048.00
104.07     926.90
104.17     858.00
104.27     880.00
104.37     894.94
104.47     792.00
104.57     791.00
104.67     740.00
104.77     676.12
104.87     674.00
104.97     713.00
105.07     662.00
105.17     627.00
105.27     614.00
105.37     633.61
105.47     653.00
105.57     610.00
105.67     624.00
105.77     549.38
105.87     592.00
105.97     601.49
106.07     591.00
106.17     618.59
106.27     598.21
106.37     591.00
106.47     635.15
106.57     642.00
106.67     616.00
106.77     577.27
106.87     628.00
106.97     588.00
107.07     650.00
107.17     690.00
107.27     705.00
107.37     711.00
107.47     693.91
107.57     733.00
107.67     772.00
107.77     754.00
107.87     717.00
107.97     733.00
108.07     800.19
108.17     795.00
108.27     714.48
108.37     800.68
108.47     771.00
108.57     730.00
108.67     778.06
108.77     725.00
108.87     732.03
108.97     753.51
109.07     748.00
109.17     702.32
109.27     748.00
109.37     743.00
109.47     711.00
109.57     763.74
109.67     735.00
109.77     771.03
109.87     781.43
109.97     720.85
110.07     761.00
110.17     743.00
110.27     730.00
110.37     702.00
110.47     734.00
110.57     699.00
110.67     712.00
110.77     712.78
110.87     679.00
110.97     683.00
111.07     640.00
111.17     620.83
111.27     654.00
111.37     601.00
111.47     591.86
111.57     604.44
111.67     587.62
111.77     613.00
111.87     628.58
111.97     587.82
112.07     547.00
112.17     565.00
112.27     600.00
112.37     612.00
112.47     598.00
112.57     618.18
112.67     589.00
112.77     623.00
112.87     585.00
112.97     592.01
113.07     614.00
113.17     586.00
113.27     617.00
113.37     647.88
113.47     579.99
113.57     652.00
113.67     586.00
113.77     582.00
113.87     594.68
113.97     615.12
114.07     648.00
114.17     674.01
114.27     664.00
114.37     690.00
114.47     670.00
114.57     730.91
114.67     732.00
114.77     747.00
114.87     842.00
114.97     926.00
115.07     959.41
115.17     994.00
115.27    1082.54
115.37    1150.00
115.47    1347.00
115.57    1458.00
115.67    1589.39
115.77    1817.82
115.87    1977.00
115.97    2247.00
116.07    2571.00
116.17    2820.00
116.27    3229.07
116.37    3511.00
116.47    3750.79
116.57    4299.00
116.67    4720.01
116.77    4835.00
116.87    5495.67
116.97    5792.06
117.07    5970.00
117.17    6575.60
117.27    6864.00
117.37    7102.00
117.47    7184.62
117.57    7453.00
117.67    7475.93
117.77    7491.59
117.87    7410.00
117.97    7012.65
118.07    6939.00
118.17    6657.00
118.27    6306.06
118.37    6003.83
118.47    5562.00
118.57    5404.55
118.67    5039.46
118.77    4546.00
118.87    4217.00
118.97    3838.00
119.07    3469.00
119.17    3113.00
119.27    2916.00
119.37    2543.30
119.47    2365.00
119.57    2075.00
119.67    1822.00
119.77    1650.87
119.87    1612.00
119.97    1423.00
120.07    1271.00
120.17    1246.13
120.27    1203.00
120.37    1093.00
120.47     963.00
120.57     942.90
120.67     825.96
120.77     805.92
120.87     808.87
120.97     775.04
121.07     776.00
121.17     776.07
121.27     739.58
121.37     718.96
121.47     645.00
121.57     641.00
121.67     734.43
121.77     683.69
121.87     702.00
121.97     640.00
122.07     703.00
122.17     684.00
122.27     627.00
122.37     654.00
122.47     626.77
122.57     700.60
122.67     630.00
122.77     671.00
122.87     647.43
122.97     681.00
123.07     664.00
123.17     656.00
123.27     672.00
123.37     699.05
123.47     727.00
123.57     746.87
123.67     718.00
123.77     732.03
123.87     763.00
123.97     692.00
124.07     736.00
124.17     703.84
124.27     778.00
124.37     784.00
124.47     725.00
124.57     677.00
124.67     673.23
124.77     722.07
124.87     702.09
124.97     686.68
