  9.97     587.07
 10.07     612.00
 10.17     590.00
 10.27     582.00
 10.37     560.00
 10.47     601.26
 10.57     516.64
 10.67     603.00
 10.77     539.00
 10.87     532.29
 10.97     606.00
 11.07     605.00
 11.17     548.84
 11.27     539.00
 11.37     574.55
 11.47     575.22
 11.57     541.00
 11.67     542.94
 11.77     562.92
 11.87     636.00
 11.97     569.57
 12.07     671.00
 12.17     684.00
 12.27     645.00
 12.37     642.00
 12.47     609.70
 12.57     588.00
 12.67     599.00
 12.77     569.00
 12.87     584.00
 12.97     563.00
 13.07     584.00
 13.17     514.00
 13.27     522.00
 13.37     541.00
 13.47     598.30
 13.57     544.00
 13.67     532.51
 13.77     576.00
 13.87     552.00
 13.97     569.06
 14.07     557.45
 14.17     575.00
 14.27     531.00
 14.37     593.00
 14.47     564.34
 14.57     588.00
 14.67     589.00
 14.77     583.00
 14.87     503.00
 14.97     599.00
 15.07     531.00
 15.17     510.00
 15.27     554.00
 15.37     554.39
 15.47     517.78
 15.57     545.00
 15.67     564.00
 15.77     528.00
 15.87     537.00
 15.97     553.00
 16.07     519.44
 16.17     568.00
 16.27     563.00
 16.37     554.00
 16.47     509.00
 16.57     586.00
 16.67     533.00
 16.77     582.00
 16.87     559.00
 16.97     568.00
 17.07     588.00
 17.17     542.00
 17.27     591.63
 17.37     604.47
 17.47     533.00
 17.57     551.00
 17.67     543.00
 17.77     559.00
 17.87     533.00
 17.97     573.00
 18.07     488.00
 18.17     547.00
 18.27     592.35
 18.37     588.93
 18.47     533.00
 18.57     563.94
 18.67     503.00
 18.77     545.00
 18.87     552.00
 18.97     515.72
 19.07     557.00
 19.17     520.00
 19.27     541.93
 19.37     553.96
 19.47     518.00
 19.57     513.00
 19.67     544.00
 19.77     558.29
 19.87     523.00
 19.97     553.00
 20.07     516.15
 20.17     555.00
 20.27     585.42
 20.37     584.00
 20.47     550.00
 20.57     530.71
 20.67     517.09
 20.77     539.00
 20.87     587.03
 20.97     542.00
 21.07     524.13
 21.17     503.04
 21.27     557.00
 21.37     519.00
 21.47     538.00
 21.57     595.57
 21.67     568.15
 21.77     522.15
 21.87     574.00
 21.97     546.00
 22.07     581.00
 22.17     590.92
 22.27     519.00
 22.37     567.66
 22.47     538.00
 22.57     566.00
 22.67     567.00
 22.77     551.00
 22.87     554.00
 22.97     526.00
 23.07     562.00
 23.17     587.92
 23.27     568.88
 23.37     573.00
 23.47     543.00
 23.57     518.00
 23.67     566.00
 23.77     551.00
 23.87     565.00
 23.97     552.00
 24.07     539.16
 24.17     591.57
 24.27     610.00
 24.37     588.00
 24.47     590.00
 24.57     618.00
 24.67     677.00
 24.77     605.00
 24.87     641.21
 24.97     666.51
 25.07     625.00
 25.17     559.85
 25.27     553.00
 25.37     568.00
 25.47     550.00
 25.57     582.75
 25.67     516.00
 25.77     581.37
 25.87     537.00
 25.97     528.67
 26.07     522.80
 26.17     567.00
 26.27     521.00
 26.37     530.18
 26.47     502.95
 26.57     539.43
 26.67     566.00
 26.77     554.09
 26.87     517.00
 26.97     584.00
 27.07     550.00
 27.17     532.00
 27.27     554.41
 27.37     556.00
 27.47     530.00
 27.57     601.00
 27.67     562.00
 27.77     595.00
 27.87     597.02
 27.97     659.00
 28.07     704.00
 28.17     829.00
 28.27     887.22
 28.37     969.18
 28.47     799.00
 28.57     707.00
 28.67     716.21
 28.77     716.00
 28.87     797.00
 28.97     877.65
 29.07     837.15
 29.17     699.79
 29.27     628.29
 29.37     583.33
 29.47     582.00
 29.57     614.00
 29.67     626.19
 29.77     611.46
 29.87     604.00
 29.97     562.00
 30.07     568.00
 30.17     539.00
 30.27     543.53
 30.37     573.00
 30.47     589.00
 30.57     570.00
 30.67     574.00
 30.77     587.00
 30.87     640.41
 30.97     643.00
 31.07     616.00
 31.17     554.00
 31.27     569.00
 31.37     583.36
 31.47     510.42
 31.57     497.91
 31.67     538.00
 31.77     534.00
 31.87     565.00
 31.97     557.00
 32.07     536.00
 32.17     537.00
 32.27     532.50
 32.37     545.00
 32.47     546.00
 32.57     521.44
 32.67     511.00
 32.77     510.00
 32.87     524.00
 32.97     482.75
 33.07     540.00
 33.17     550.00
 33.27     535.69
 33.37     595.00
 33.47     504.40
 33.57     542.30
 33.67     616.00
 33.77     775.00
 33.87     775.69
 33.97     908.18
 34.07    1116.00
 34.17     997.00
 34.27     966.00
 34.37     778.00
 34.47     662.88
 34.57     552.00
 34.67     574.00
 34.77     529.00
 34.87     503.00
 34.97     558.02
 35.07     556.31
 35.17     545.06
 35.27     526.00
 35.37     543.00
 35.47     511.00
 35.57     530.00
 35.67     475.46
 35.77     516.81
 35.87     553.00
 35.97     487.65
 36.07     514.00
 36.17     518.00
 36.27     555.01
 36.37     466.65
 36.47     543.79
 36.57     527.00
 36.67     464.55
 36.77     468.00
 36.87     510.29
 36.97     514.00
 37.07     523.00
 37.17     550.16
 37.27     532.00
 37.37     481.91
 37.47     560.82
 37.57     482.93
 37.67     536.30
 37.77     574.27
 37.87     550.88
 37.97     500.00
 38.07     518.00
 38.17     550.05
 38.27     523.00
 38.37     509.00
 38.47     506.00
 38.57     550.09
 38.67     514.26
 38.77     530.12
 38.87     512.00
 38.97     542.86
 39.07     517.79
 39.17     489.00
 39.27     479.00
 39.37     496.00
 39.47     485.00
 39.57     504.00
 39.67     538.45
 39.77     466.00
 39.87     462.00
 39.97     501.00
 40.07     518.09
 40.17     503.00
 40.27     474.00
 40.37     520.00
 40.47     490.00
 40.57     488.00
 40.67     535.21
 40.77     507.81
 40.87     457.00
 40.97     444.00
 41.07     542.40
 41.17     494.00
 41.27     488.00
 41.37     542.29
 41.47     475.00
 41.57     479.00
 41.67     472.80
 41.77     516.00
 41.87     513.00
 41.97     532.00
 42.07     492.76
 42.17     521.00
 42.27     481.22
 42.37     553.00
 42.47     530.00
 42.57     562.11
 42.67     637.31
 42.77     620.02
 42.87     625.00
 42.97     546.10
 43.07     514.00
 43.17     500.00
 43.27     485.00
 43.37     523.00
 43.47     472.00
 43.57     483.00
 43.67     509.00
 43.77     485.00
 43.87     504.71
 43.97     482.00
 44.07     502.36
 44.17     481.00
 44.27     490.00
 44.37     514.98
 44.47     525.00
 44.57     458.88
 44.67     542.77
 44.77     526.68
 44.87     541.19
 44.97     510.00
 45.07     502.00
 45.17     485.00
 45.27     531.70
 45.37     515.00
 45.47     496.00
 45.57     472.11
 45.67     527.00
 45.77     492.62
 45.87     525.00
 45.97     504.93
 46.07     478.00
 46.17     529.00
 46.27     530.00
 46.37     494.00
 46.47     518.00
 46.57     456.67
 46.67     456.79
 46.77     508.00
 46.87     483.41
 46.97     499.00
 47.07     474.00
 47.17     505.00
 47.27     508.61
 47.37     550.11
 47.47     531.00
 47.57     569.24
 47.67     574.24
 47.77     545.53
 47.87     612.00
 47.97     609.00
 48.07     562.00
 48.17     533.27
 48.27     528.00
 48.37     527.00
 48.47     554.00
 48.57     533.56
 48.67     551.69
 48.77     495.00
 48.87     540.80
 48.97     554.00
 49.07     529.00
 49.17     569.00
 49.27     657.00
 49.37     624.00
 49.47     686.99
 49.57     767.00
 49.67     880.00
 49.77    1007.00
 49.87    1255.00
 49.97    1648.62
 50.07    2099.00
 50.17    2480.00
 50.27    2501.00
 50.37    2421.00
 50.47    2076.00
 50.57    1574.00
 50.67    1220.00
 50.77     944.96
 50.87     743.00
 50.97     648.07
 51.07     645.00
 51.17     644.00
 51.27     650.00
 51.37     563.00
 51.47     585.00
 51.57     587.77
 51.67     594.10
 51.77     571.00
 51.87     564.00
 51.97     516.00
 52.07     561.63
 52.17     492.00
 52.27     597.00
 52.37     540.00
 52.47     543.00
 52.57     533.13
 52.67     577.87
 52.77     530.56
 52.87     612.99
 52.97     666.00
 53.07     757.00
 53.17     916.00
 53.27     953.00
 53.37    1122.00
 53.47    1136.00
 53.57    1217.87
 53.67    1114.00
 53.77    1101.02
 53.87     942.00
 53.97     832.00
 54.07     727.00
 54.17     635.69
 54.27     642.00
 54.37     575.00
 54.47     557.35
 54.57     557.00
 54.67     503.50
 54.77     571.00
 54.87     569.00
 54.97     521.00
 55.07     571.00
 55.17     534.00
 55.27     553.00
 55.37     548.07
 55.47     527.00
 55.57     551.00
 55.67     535.00
 55.77     548.82
 55.87     560.86
 55.97     598.00
 56.07     598.04
 56.17     687.00
 56.27     829.00
 56.37     955.00
 56.47    1238.15
 56.57    1524.14
 56.67    2063.01
 56.77    2403.49
 56.87    2637.00
 56.97    2608.00
 57.07    2648.01
 57.17    2269.00
 57.27    1941.53
 57.37    1505.00
 57.47    1205.35
 57.57     944.92
 57.67     819.00
 57.77     691.15
 57.87     688.01
 57.97     723.00
 58.07     690.55
 58.17     704.00
 58.27     746.00
 58.37     784.00
 58.47     947.00
 58.57    1035.00
 58.67    1207.00
 58.77    1291.01
 58.87    1440.30
 58.97    1644.40
 59.07    1609.00
 59.17    1673.00
 59.27    1572.30
 59.37    1400.00
 59.47    1321.00
 59.57    1202.00
 59.67    1169.00
 59.77    1096.00
 59.87    1139.78
 59.97    1169.30
 60.07    1379.00
 60.17    1466.00
 60.27    1517.21
 60.37    1556.12
 60.47    1455.54
 60.57    1306.14
 60.67    1195.00
 60.77     965.00
 60.87     885.00
 60.97     756.05
 61.07     704.00
 61.17     633.11
 61.27     625.00
 61.37     614.94
 61.47     654.00
 61.57     680.00
 61.67     789.00
 61.77     830.50
 61.87     971.99
 61.97    1054.00
 62.07    1275.00
 62.17    1358.00
 62.27    1527.82
 62.37    1318.00
 62.47    1308.00
 62.57    1107.00
 62.67     998.00
 62.77     849.00
 62.87     725.00
 62.97     662.00
 63.07     612.01
 63.17     586.37
 63.27     576.00
 63.37     594.67
 63.47     571.00
 63.57     581.59
 63.67     560.00
 63.77     581.00
 63.87     619.00
 63.97     629.00
 64.07     665.00
 64.17     661.03
 64.27     774.00
 64.37     834.05
 64.47     885.47
 64.57     905.00
 64.67    1042.00
 64.77    1049.00
 64.87    1024.00
 64.97     985.00
 65.07     813.00
 65.17     861.00
 65.27     705.17
 65.37     755.00
 65.47     683.00
 65.57     638.63
 65.67     625.10
 65.77     559.00
 65.87     555.00
 65.97     530.94
 66.07     579.93
 66.17     517.00
 66.27     562.00
 66.37     594.00
 66.47     535.00
 66.57     534.00
 66.67     544.20
 66.77     580.00
 66.87     545.00
 66.97     632.54
 67.07     628.00
 67.17     654.04
 67.27     670.00
 67.37     748.00
 67.47    1002.00
 67.57    1114.08
 67.67    1390.91
 67.77    1618.30
 67.87    1830.00
 67.97    2165.15
 68.07    2432.95
 68.17    2452.00
 68.27    2393.00
 68.37    2294.00
 68.47    1984.00
 68.57    1787.94
 68.67    1414.22
 68.77    1211.00
 68.87     975.00
 68.97     859.00
 69.07     757.00
 69.17     740.00
 69.27     655.15
 69.37     583.17
 69.47     558.74
 69.57     593.00
 69.67     540.91
 69.77     582.54
 69.87     566.00
 69.97     601.21
 70.07     557.73
 70.17     617.00
 70.27     578.00
 70.37     520.00
 70.47     535.00
 70.57     542.00
 70.67     552.12
 70.77     529.55
 70.87     591.09
 70.97     636.70
 71.07     638.54
 71.17     713.63
 71.27     760.00
 71.37     793.34
 71.47     934.00
 71.57    1041.47
 71.67    1187.00
 71.77    1530.00
 71.87    1689.39
 71.97    1846.00
 72.07    1852.62
 72.17    1836.20
 72.27    1827.00
 72.37    1748.63
 72.47    1680.00
 72.57    1397.50
 72.67    1328.00
 72.77    1253.36
 72.87    1157.81
 72.97     888.00
 73.07     897.82
 73.17     885.75
 73.27     767.00
 73.37     670.00
 73.47     752.31
 73.57     657.87
 73.67     593.00
 73.77     582.31
 73.87     570.49
 73.97     543.09
 74.07     580.00
 74.17     561.00
 74.27     552.00
 74.37     546.79
 74.47     612.00
 74.57     595.77
 74.67     600.00
 74.77     636.00
 74.87     604.00
 74.97     529.36
 75.07     619.00
 75.17     598.00
 75.27     555.57
 75.37     536.00
 75.47     552.00
 75.57     630.00
 75.67     568.00
 75.77     573.00
 75.87     581.00
 75.97     576.00
 76.07     598.00
 76.17     592.00
 76.27     601.47
 76.37     677.51
 76.47     668.00
 76.57     704.12
 76.67     721.00
 76.77     686.00
 76.87     730.29
 76.97     643.56
 77.07     609.00
 77.17     629.00
 77.27     558.91
 77.37     564.00
 77.47     527.03
 77.57     574.53
 77.67     534.00
 77.77     554.00
 77.87     487.40
 77.97     535.00
 78.07     537.90
 78.17     534.27
 78.27     521.76
 78.37     494.20
 78.47     534.00
 78.57     523.00
 78.67     540.96
 78.77     494.00
 78.87     483.31
 78.97     515.00
 79.07     550.00
 79.17     515.00
 79.27     523.88
 79.37     513.00
 79.47     508.00
 79.57     575.33
 79.67     500.66
 79.77     540.00
 79.87     575.00
 79.97     531.00
 80.07     543.00
 80.17     542.00
 80.27     539.00
 80.37     537.00
 80.47     566.16
 80.57     618.58
 80.67     593.19
 80.77     660.00
 80.87     659.00
 80.97     642.00
 81.07     706.00
 81.17     687.00
 81.27     732.28
 81.37     782.00
 81.47     712.00
 81.57     741.00
 81.67     733.00
 81.77     673.00
 81.87     756.00
 81.97     735.00
 82.07     717.00
 82.17     698.00
 82.27     625.05
 82.37     594.00
 82.47     625.54
 82.57     596.55
 82.67     550.27
 82.77     578.00
 82.87     545.61
 82.97     531.00
 83.07     552.00
 83.17     530.00
 83.27     493.00
 83.37     550.00
 83.47     516.08
 83.57     519.00
 83.67     515.00
 83.77     592.59
 83.87     587.00
 83.97     574.00
 84.07     596.00
 84.17     602.21
 84.27     548.00
 84.37     593.32
 84.47     567.00
 84.57     511.47
 84.67     528.00
 84.77     494.84
 84.87     512.00
 84.97     483.90
 85.07     500.23
 85.17     546.90
 85.27     538.00
 85.37     521.06
 85.47     555.83
 85.57     534.00
 85.67     494.00
 85.77     515.00
 85.87     534.34
 85.97     518.00
 86.07     522.00
 86.17     488.08
 86.27     490.92
 86.37     528.00
 86.47     606.00
 86.57     553.00
 86.67     587.00
 86.77     554.00
 86.87     578.00
 86.97     626.10
 87.07     572.00
 87.17     584.00
 87.27     629.75
 87.37     641.56
 87.47     643.00
 87.57     619.00
 87.67     575.71
 87.77     618.04
 87.87     642.93
 87.97     584.00
 88.07     566.00
 88.17     565.08
 88.27     583.44
 88.37     582.00
 88.47     570.00
 88.57     609.59
 88.67     532.29
 88.77     556.00
 88.87     599.00
 88.97     568.00
 89.07     603.00
 89.17     626.79
 89.27     533.52
 89.37     555.60
 89.47     588.45
 89.57     630.18
 89.67     562.00
 89.77     546.00
 89.87     594.00
 89.97     543.00
 90.07     532.60
 90.17     534.61
 90.27     529.00
 90.37     510.51
 90.47     577.00
 90.57     525.00
 90.67     536.40
 90.77     478.22
 90.87     533.02
 90.97     511.00
 91.07     510.00
 91.17     482.00
 91.27     503.70
 91.37     523.00
 91.47     539.29
 91.57     480.00
 91.67     480.00
 91.77     561.76
 91.87     574.00
 91.97     540.00
 92.07     569.29
 92.17     562.00
 92.27     584.19
 92.37     539.00
 92.47     617.28
 92.57     606.00
 92.67     660.00
 92.77     654.72
 92.87     710.09
 92.97     724.22
 93.07     750.00
 93.17     715.87
 93.27     806.11
 93.37     801.00
 93.47     814.00
 93.57     783.73
 93.67     839.00
 93.77     818.00
 93.87     852.00
 93.97     834.00
 94.07     852.76
 94.17     813.28
 94.27     865.00
 94.37     914.05
 94.47     862.00
 94.57     916.28
 94.67     896.00
 94.77     953.56
 94.87     920.00
 94.97     970.00
 95.07     840.47
 95.17     924.00
 95.27     827.64
 95.37     815.00
 95.47     804.00
 95.57     709.70
 95.67     772.00
 95.77     728.00
 95.87     756.00
 95.97     729.77
 96.07     618.00
 96.17     653.00
 96.27     695.88
 96.37     684.77
 96.47     771.00
 96.57     782.70
 96.67     810.00
 96.77     870.00
 96.87     975.13
 96.97    1078.00
 97.07    1106.91
 97.17    1239.00
 97.27    1281.00
 97.37    1389.69
 97.47    1427.00
 97.57    1406.00
 97.67    1483.33
 97.77    1443.00
 97.87    1429.00
 97.97    1394.00
 98.07    1288.28
 98.17    1280.00
 98.27    1203.00
 98.37    1060.00
 98.47    1054.00
 98.57     969.63
 98.67     904.94
 98.77     827.49
 98.87     842.00
 98.97     835.46
 99.07     745.00
 99.17     795.00
 99.27     845.00
 99.37     877.00
 99.47     901.05
 99.57     982.21
 99.67    1043.00
 99.77    1167.00
 99.87    1203.07
 99.97    1357.00
100.07    1452.16
100.17    1575.00
100.27    1767.00
100.37    1784.20
100.47    1997.00
100.57    1936.74
100.67    2011.52
100.77    2146.36
100.87    2109.00
100.97    2238.00
101.07    2019.00
101.17    1989.00
101.27    1953.00
101.37    1903.94
101.47    1719.00
101.57    1730.15
101.67    1545.46
101.77    1484.00
101.87    1399.77
101.97    1390.08
102.07    1324.93
102.17    1284.50
102.27    1253.39
102.37    1170.00
102.47    1189.03
102.57    1075.00
102.67    1162.29
102.77    1019.00
102.87    1033.00
102.97    1046.00
103.07     970.00
103.17     896.00
103.27     878.00
103.37     869.00
103.47     846.00
103.57     819.00
103.67     772.00
103.77     722.00
103.87     691.00
103.97     638.23
104.07     590.67
104.17     590.00
104.27     581.00
104.37     561.00
104.47     571.35
104.57     555.00
104.67     506.19
104.77     533.00
104.87     561.00
104.97     532.68
105.07     547.47
105.17     535.00
105.27     553.00
105.37     517.00
105.47     566.00
105.57     527.00
105.67     528.37
105.77     518.00
105.87     565.00
105.97     581.08
106.07     554.00
106.17     593.00
106.27     555.00
106.37     573.00
106.47     563.00
106.57     580.70
106.67     648.85
106.77     628.00
106.87     630.00
106.97     622.68
107.07     612.00
107.17     653.00
107.27     697.00
107.37     740.68
107.47     620.00
107.57     743.53
107.67     690.09
107.77     664.02
107.87     669.00
107.97     695.50
108.07     669.00
108.17     684.00
108.27     662.83
108.37     636.38
108.47     673.00
108.57     653.00
108.67     709.84
108.77     656.38
108.87     699.05
108.97     647.00
109.07     716.00
109.17     632.73
109.27     666.00
109.37     653.00
109.47     665.00
109.57     638.00
109.67     595.00
109.77     621.00
109.87     652.00
109.97     655.00
110.07     559.85
110.17     586.00
110.27     636.00
110.37     515.88
110.47     537.00
110.57     579.06
110.67     494.76
110.77     552.30
110.87     534.28
110.97     551.00
111.07     487.94
111.17     535.00
111.27     552.00
111.37     528.79
111.47     523.96
111.57     550.00
111.67     553.00
111.77     566.00
111.87     488.00
111.97     555.00
112.07     510.00
112.17     553.00
112.27     575.00
112.37     598.00
112.47     535.44
112.57     582.00
112.67     586.77
112.77     563.00
112.87     587.00
112.97     611.00
113.07     661.00
113.17     695.00
113.27     699.00
113.37     756.54
113.47     736.12
113.57     741.00
113.67     756.00
113.77     913.62
113.87     964.00
113.97     920.00
114.07     953.68
114.17    1015.38
114.27    1077.02
114.37    1122.00
114.47    1204.00
114.57    1325.00
114.67    1433.00
114.77    1553.00
114.87    1681.27
114.97    1857.00
115.07    2119.00
115.17    2301.00
115.27    2573.00
115.37    2783.00
115.47    3034.33
115.57    3257.15
115.67    3622.66
115.77    3986.00
115.87    4376.00
115.97    4672.00
116.07    5135.00
116.17    5468.00
116.27    5973.00
116.37    6343.00
116.47    6594.00
116.57    6970.71
116.67    7027.00
116.77    7141.00
116.87    7160.00
116.97    7090.00
117.07    6905.00
117.17    6855.00
117.27    6420.00
117.37    6001.00
117.47    5809.46
117.57    5194.00
117.67    5029.55
117.77    4592.00
117.87    4256.00
117.97    3917.00
118.07    3601.00
118.17    3044.14
118.27    2871.00
118.37    2445.00
118.47    2102.00
118.57    1874.00
118.67    1630.00
118.77    1509.79
118.87    1318.00
118.97    1170.00
119.07    1014.00
119.17     956.00
119.27     925.00
119.37     858.00
119.47     765.00
119.57     778.63
119.67     681.00
119.77     635.00
119.87     658.84
119.97     621.56
120.07     669.85
120.17     584.00
120.27     641.02
120.37     663.00
120.47     576.00
120.57     595.27
120.67     572.00
120.77     593.00
120.87     552.00
120.97     561.00
121.07     602.55
121.17     575.00
121.27     569.00
121.37     520.00
121.47     548.00
121.57     603.00
121.67     598.16
121.77     564.38
121.87     552.00
121.97     626.00
122.07     619.10
122.17     571.20
122.27     608.00
122.37     593.03
122.47     577.08
122.57     635.31
122.67     571.00
122.77     655.00
122.87     591.81
122.97     660.00
123.07     621.00
123.17     664.00
123.27     680.00
123.37     688.94
123.47     686.00
123.57     615.00
123.67     633.00
123.77     667.00
123.87     602.03
123.97     662.96
124.07     605.00
124.17     625.00
124.27     606.00
124.37     609.00
124.47     619.00
124.57     618.00
124.67     611.00
124.77     606.00
124.87     628.90
124.97     627.00
