  9.97     666.00
 10.07     600.00
 10.17     593.00
 10.27     551.38
 10.37     585.00
 10.47     572.00
 10.57     562.14
 10.67     625.00
 10.77     586.00
 10.87     583.00
 10.97     586.00
 11.07     601.62
 11.17     562.28
 11.27     576.59
 11.37     597.00
 11.47     580.00
 11.57     632.00
 11.67     643.00
 11.77     634.00
 11.87     654.00
 11.97     669.01
 12.07     664.00
 12.17     665.90
 12.27     684.00
 12.37     679.00
 12.47     655.00
 12.57     632.15
 12.67     556.00
 12.77     575.79
 12.87     603.19
 12.97     558.09
 13.07     548.00
 13.17     613.20
 13.27     557.00
 13.37     559.00
 13.47     575.92
 13.57     549.06
 13.67     595.00
 13.77     543.39
 13.87     558.40
 13.97     556.00
 14.07     542.16
 14.17     574.00
 14.27     532.00
 14.37     553.00
 14.47     616.00
 14.57     556.43
 14.67     606.00
 14.77     519.00
 14.87     530.50
 14.97     539.00
 15.07     545.90
 15.17     619.00
 15.27     504.00
 15.37     553.00
 15.47     586.00
 15.57     521.00
 15.67     548.00
 15.77     566.00
 15.87     612.64
 15.97     585.00
 16.07     539.00
 16.17     612.00
 16.27     549.00
 16.37     525.00
 16.47     621.00
 16.57     610.72
 16.67     550.00
 16.77     560.00
 16.87     541.46
 16.97     593.00
 17.07     540.06
 17.17     567.00
 17.27     533.00
 17.37     551.00
 17.47     526.02
 17.57     545.00
 17.67     555.00
 17.77     507.00
 17.87     544.00
 17.97     542.00
 18.07     580.00
 18.17     565.00
 18.27     595.00
 18.37     592.71
 18.47     554.00
 18.57     599.00
 18.67     591.07
 18.77     575.92
 18.87     546.04
 18.97     564.00
 19.07     572.34
 19.17     555.00
 19.27     528.82
 19.37     523.66
 19.47     530.63
 19.57     596.00
 19.67     593.79
 19.77     593.00
 19.87     551.71
 19.97     549.00
 20.07     556.00
 20.17     553.00
 20.27     522.71
 20.37     527.81
 20.47     584.02
 20.57     598.96
 20.67     557.00
 20.77     543.00
 20.87     595.46
 20.97     545.00
 21.07     494.00
 21.17     550.53
 21.27     577.00
 21.37     536.00
 21.47     527.00
 21.57     562.00
 21.67     563.73
 21.77     582.82
 21.87     567.51
 21.97     552.00
 22.07     513.41
 22.17     530.00
 22.27     582.24
 22.37     589.00
 22.47     527.00
 22.57     562.00
 22.67     544.00
 22.77     544.00
 22.87     571.00
 22.97     583.88
 23.07     573.14
 23.17     569.00
 23.27     560.00
 23.37     532.99
 23.47     554.08
 23.57     542.00
 23.67     524.45
 23.77     544.34
 23.87     584.55
 23.97     578.94
 24.07     587.02
 24.17     546.00
 24.27     557.71
 24.37     605.36
 24.47     619.11
 24.57     609.00
 24.67     601.56
 24.77     675.00
 24.87     587.43
 24.97     612.39
 25.07     621.91
 25.17     568.00
 25.27     589.97
 25.37     558.43
 25.47     580.00
 25.57     554.00
 25.67     561.00
 25.77     557.00
 25.87     574.00
 25.97     539.00
 26.07     576.48
 26.17     575.00
 26.27     510.50
 26.37     541.00
 26.47     534.26
 26.57     518.00
 26.67     552.00
 26.77     528.87
 26.87     537.00
 26.97     564.70
 27.07     538.97
 27.17     531.00
 27.27     549.00
 27.37     567.99
 27.47     515.23
 27.57     583.79
 27.67     593.00
 27.77     537.27
 27.87     621.43
 27.97     634.02
 28.07     766.11
 28.17     867.92
 28.27     910.00
 28.37     828.00
 28.47     805.49
 28.57     722.75
 28.67     661.18
 28.77     721.15
 28.87     776.44
 28.97     825.00
 29.07     808.01
 29.17     676.00
 29.27     615.52
 29.37     620.00
 29.47     654.00
 29.57     564.70
 29.67     549.08
 29.77     542.56
 29.87     603.00
 29.97     582.00
 30.07     564.00
 30.17     562.00
 30.27     522.00
 30.37     513.48
 30.47     520.99
 30.57     531.03
 30.67     579.00
 30.77     598.00
 30.87     612.00
 30.97     598.32
 31.07     610.00
 31.17     572.43
 31.27     533.55
 31.37     566.00
 31.47     531.00
 31.57     528.00
 31.67     514.00
 31.77     516.45
 31.87     540.74
 31.97     523.50
 32.07     531.00
 32.17     537.93
 32.27     528.00
 32.37     519.62
 32.47     545.33
 32.57     509.00
 32.67     559.00
 32.77     537.00
 32.87     495.92
 32.97     528.04
 33.07     542.00
 33.17     519.00
 33.27     555.00
 33.37     570.44
 33.47     581.00
 33.57     589.00
 33.67     634.00
 33.77     781.00
 33.87     910.00
 33.97    1016.00
 34.07    1088.85
 34.17     973.11
 34.27     920.49
 34.37     749.00
 34.47     631.00
 34.57     609.49
 34.67     561.00
 34.77     564.00
 34.87     561.00
 34.97     514.00
 35.07     536.74
 35.17     511.00
 35.27     491.91
 35.37     547.00
 35.47     528.81
 35.57     528.00
 35.67     493.00
 35.77     537.28
 35.87     523.00
 35.97     478.29
 36.07     496.00
 36.17     489.00
 36.27     530.00
 36.37     507.00
 36.47     538.00
 36.57     502.24
 36.67     468.00
 36.77     549.99
 36.87     492.00
 36.97     526.13
 37.07     508.00
 37.17     489.15
 37.27     530.06
 37.37     497.42
 37.47     489.00
 37.57     485.00
 37.67     492.00
 37.77     502.00
 37.87     530.00
 37.97     525.00
 38.07     526.00
 38.17     526.00
 38.27     528.00
 38.37     493.00
 38.47     482.67
 38.57     480.16
 38.67     472.05
 38.77     517.00
 38.87     490.00
 38.97     482.15
 39.07     489.00
 39.17     456.00
 39.27     501.00
 39.37     525.00
 39.47     531.00
 39.57     524.00
 39.67     478.22
 39.77     505.65
 39.87     498.00
 39.97     508.00
 40.07     467.00
 40.17     493.00
 40.27     464.00
 40.37     515.00
 40.47     487.00
 40.57     508.00
 40.67     543.00
 40.77     515.80
 40.87     478.00
 40.97     475.19
 41.07     523.00
 41.17     456.00
 41.27     529.00
 41.37     523.00
 41.47     499.00
 41.57     474.88
 41.67     551.00
 41.77     508.24
 41.87     468.00
 41.97     461.00
 42.07     541.00
 42.17     508.59
 42.27     529.00
 42.37     543.00
 42.47     545.60
 42.57     599.00
 42.67     620.00
 42.77     622.00
 42.87     593.00
 42.97     612.93
 43.07     548.60
 43.17     543.00
 43.27     507.00
 43.37     510.21
 43.47     503.00
 43.57     476.56
 43.67     503.00
 43.77     526.00
 43.87     491.00
 43.97     502.00
 44.07     525.00
 44.17     491.68
 44.27     465.75
 44.37     512.00
 44.47     477.00
 44.57     493.55
 44.67     519.00
 44.77     514.29
 44.87     529.00
 44.97     527.49
 45.07     534.00
 45.17     519.00
 45.27     471.49
 45.37     544.09
 45.47     477.52
 45.57     495.00
 45.67     464.61
 45.77     451.00
 45.87     466.20
 45.97     525.00
 46.07     515.00
 46.17     476.00
 46.27     515.00
 46.37     508.57
 46.47     532.63
 46.57     524.13
 46.67     541.15
 46.77     493.36
 46.87     533.00
 46.97     526.00
 47.07     498.15
 47.17     494.00
 47.27     517.56
 47.37     521.75
 47.47     525.00
 47.57     560.00
 47.67     549.00
 47.77     617.00
 47.87     567.00
 47.97     599.00
 48.07     551.00
 48.17     570.00
 48.27     518.00
 48.37     567.11
 48.47     535.72
 48.57     533.64
 48.67     538.00
 48.77     521.00
 48.87     560.00
 48.97     548.00
 49.07     568.00
 49.17     540.00
 49.27     592.95
 49.37     646.00
 49.47     673.32
 49.57     787.00
 49.67     870.00
 49.77    1148.00
 49.87    1496.00
 49.97    1848.00
 50.07    2202.03
 50.17    2470.00
 50.27    2478.81
 50.37    2198.89
 50.47    1830.00
 50.57    1437.55
 50.67    1033.00
 50.77     857.00
 50.87     739.00
 50.97     643.00
 51.07     625.00
 51.17     612.00
 51.27     600.00
 51.37     608.00
 51.47     547.57
 51.57     585.00
 51.67     565.33
 51.77     517.00
 51.87     503.75
 51.97     573.14
 52.07     557.00
 52.17     494.45
 52.27     529.00
 52.37     535.00
 52.47     590.00
 52.57     571.00
 52.67     557.00
 52.77     633.84
 52.87     668.00
 52.97     703.00
 53.07     793.00
 53.17     921.00
 53.27    1039.00
 53.37    1212.00
 53.47    1184.00
 53.57    1181.00
 53.67    1102.00
 53.77     976.33
 53.87     902.51
 53.97     787.00
 54.07     687.25
 54.17     630.00
 54.27     594.00
 54.37     601.00
 54.47     558.00
 54.57     570.44
 54.67     570.67
 54.77     525.86
 54.87     577.00
 54.97     554.00
 55.07     547.00
 55.17     523.00
 55.27     536.68
 55.37     555.08
 55.47     551.00
 55.57     574.00
 55.67     559.00
 55.77     600.00
 55.87     594.00
 55.97     679.14
 56.07     698.00
 56.17     792.75
 56.27     900.91
 56.37    1179.00
 56.47    1470.95
 56.57    1765.00
 56.67    2161.00
 56.77    2422.21
 56.87    2678.00
 56.97    2546.48
 57.07    2302.00
 57.17    2093.00
 57.27    1640.35
 57.37    1260.23
 57.47    1050.00
 57.57     897.00
 57.67     805.00
 57.77     656.30
 57.87     706.00
 57.97     667.00
 58.07     657.00
 58.17     728.00
 58.27     744.13
 58.37     866.00
 58.47     884.00
 58.57    1055.00
 58.67    1171.00
 58.77    1258.60
 58.87    1351.00
 58.97    1465.00
 59.07    1517.96
 59.17    1469.00
 59.27    1399.90
 59.37    1323.66
 59.47    1245.23
 59.57    1158.00
 59.67    1126.00
 59.77    1189.00
 59.87    1226.00
 59.97    1396.00
 60.07    1435.27
 60.17    1492.00
 60.27    1508.73
 60.37    1513.00
 60.47    1353.13
 60.57    1278.00
 60.67    1115.32
 60.77    1006.00
 60.87     801.00
 60.97     711.43
 61.07     706.65
 61.17     693.00
 61.27     670.00
 61.37     605.93
 61.47     693.00
 61.57     731.00
 61.67     839.52
 61.77    1001.00
 61.87    1078.00
 61.97    1229.00
 62.07    1371.37
 62.17    1434.00
 62.27    1370.66
 62.37    1296.00
 62.47    1268.09
 62.57    1036.00
 62.67     942.00
 62.77     805.76
 62.87     680.00
 62.97     608.00
 63.07     606.00
 63.17     594.75
 63.27     581.00
 63.37     580.00
 63.47     617.00
 63.57     526.90
 63.67     561.31
 63.77     650.00
 63.87     587.04
 63.97     705.00
 64.07     717.65
 64.17     796.00
 64.27     802.09
 64.37     899.00
 64.47     968.00
 64.57     988.86
 64.67    1065.00
 64.77    1002.00
 64.87    1000.00
 64.97     947.53
 65.07     866.00
 65.17     800.49
 65.27     757.00
 65.37     713.30
 65.47     620.58
 65.57     621.17
 65.67     581.26
 65.77     566.00
 65.87     576.00
 65.97     541.00
 66.07     569.57
 66.17     581.00
 66.27     591.46
 66.37     528.00
 66.47     527.00
 66.57     605.00
 66.67     586.00
 66.77     563.00
 66.87     624.70
 66.97     596.07
 67.07     623.34
 67.17     699.77
 67.27     766.00
 67.37     880.00
 67.47    1095.00
 67.57    1304.00
 67.67    1521.00
 67.77    1843.00
 67.87    2031.00
 67.97    2199.00
 68.07    2473.00
 68.17    2417.00
 68.27    2314.47
 68.37    2106.00
 68.47    1860.00
 68.57    1568.00
 68.67    1247.00
 68.77    1032.00
 68.87     857.00
 68.97     740.63
 69.07     713.00
 69.17     671.14
 69.27     640.51
 69.37     588.00
 69.47     586.00
 69.57     597.00
 69.67     583.13
 69.77     599.00
 69.87     537.85
 69.97     507.00
 70.07     570.00
 70.17     602.61
 70.27     578.00
 70.37     560.00
 70.47     566.00
 70.57     574.00
 70.67     574.94
 70.77     564.00
 70.87     618.01
 70.97     610.00
 71.07     637.00
 71.17     735.00
 71.27     822.00
 71.37     932.00
 71.47    1050.09
 71.57    1264.00
 71.67    1445.99
 71.77    1562.00
 71.87    1813.00
 71.97    1908.90
 72.07    1938.63
 72.17    1805.86
 72.27    1705.62
 72.37    1616.53
 72.47    1452.00
 72.57    1308.21
 72.67    1147.00
 72.77    1012.00
 72.87     995.66
 72.97     791.00
 73.07     737.00
 73.17     752.00
 73.27     707.00
 73.37     689.00
 73.47     625.00
 73.57     586.00
 73.67     638.00
 73.77     606.00
 73.87     589.00
 73.97     568.00
 74.07     564.00
 74.17     623.05
 74.27     603.00
 74.37     563.95
 74.47     601.17
 74.57     548.33
 74.67     625.00
 74.77     596.19
 74.87     606.00
 74.97     588.65
 75.07     589.00
 75.17     616.00
 75.27     579.00
 75.37     575.00
 75.47     550.00
 75.57     562.00
 75.67     595.05
 75.77     578.00
 75.87     600.78
 75.97     634.00
 76.07     628.00
 76.17     625.54
 76.27     709.00
 76.37     645.00
 76.47     706.00
 76.57     753.00
 76.67     725.00
 76.77     675.35
 76.87     694.00
 76.97     638.00
 77.07     616.14
 77.17     580.00
 77.27     558.58
 77.37     556.00
 77.47     568.00
 77.57     481.00
 77.67     486.00
 77.77     510.30
 77.87     497.10
 77.97     502.66
 78.07     510.00
 78.17     533.61
 78.27     510.00
 78.37     526.00
 78.47     555.00
 78.57     526.74
 78.67     519.00
 78.77     517.00
 78.87     510.00
 78.97     502.00
 79.07     544.34
 79.17     482.00
 79.27     518.00
 79.37     500.48
 79.47     565.00
 79.57     552.00
 79.67     523.42
 79.77     596.00
 79.87     550.00
 79.97     525.00
 80.07     561.19
 80.17     507.00
 80.27     601.00
 80.37     579.00
 80.47     563.00
 80.57     657.24
 80.67     641.00
 80.77     691.00
 80.87     663.49
 80.97     689.00
 81.07     708.00
 81.17     702.19
 81.27     760.24
 81.37     790.00
 81.47     761.45
 81.57     770.00
 81.67     744.00
 81.77     797.00
 81.87     744.17
 81.97     662.09
 82.07     664.93
 82.17     691.00
 82.27     649.44
 82.37     600.00
 82.47     588.00
 82.57     625.01
 82.67     601.00
 82.77     576.00
 82.87     595.30
 82.97     548.49
 83.07     587.23
 83.17     538.00
 83.27     594.36
 83.37     530.00
 83.47     520.91
 83.57     565.00
 83.67     534.23
 83.77     544.00
 83.87     580.00
 83.97     591.81
 84.07     530.00
 84.17     551.00
 84.27     583.00
 84.37     568.00
 84.47     580.75
 84.57     595.00
 84.67     608.00
 84.77     570.12
 84.87     570.16
 84.97     521.00
 85.07     523.41
 85.17     551.00
 85.27     526.00
 85.37     552.00
 85.47     514.32
 85.57     511.00
 85.67     557.00
 85.77     538.00
 85.87     520.00
 85.97     539.00
 86.07     504.96
 86.17     550.00
 86.27     553.34
 86.37     535.00
 86.47     528.00
 86.57     525.92
 86.67     558.00
 86.77     585.17
 86.87     617.64
 86.97     615.00
 87.07     664.00
 87.17     657.00
 87.27     657.00
 87.37     649.82
 87.47     604.00
 87.57     608.93
 87.67     646.00
 87.77     622.00
 87.87     594.16
 87.97     615.00
 88.07     622.00
 88.17     546.14
 88.27     559.55
 88.37     529.60
 88.47     596.00
 88.57     547.55
 88.67     573.95
 88.77     554.97
 88.87     601.00
 88.97     552.00
 89.07     627.32
 89.17     605.00
 89.27     605.00
 89.37     570.00
 89.47     596.00
 89.57     558.55
 89.67     566.00
 89.77     559.54
 89.87     574.00
 89.97     588.51
 90.07     561.59
 90.17     548.29
 90.27     590.61
 90.37     505.00
 90.47     496.77
 90.57     524.00
 90.67     533.04
 90.77     500.64
 90.87     528.00
 90.97     516.72
 91.07     493.00
 91.17     549.00
 91.27     485.00
 91.37     564.03
 91.47     502.00
 91.57     534.00
 91.67     573.04
 91.77     485.00
 91.87     537.00
 91.97     554.00
 92.07     557.00
 92.17     607.68
 92.27     576.75
 92.37     580.00
 92.47     654.89
 92.57     640.42
 92.67     690.17
 92.77     689.08
 92.87     730.00
 92.97     751.00
 93.07     747.00
 93.17     748.27
 93.27     730.94
 93.37     795.00
 93.47     817.17
 93.57     804.00
 93.67     831.00
 93.77     791.00
 93.87     857.00
 93.97     846.00
 94.07     861.90
 94.17     866.00
 94.27     862.00
 94.37     929.00
 94.47     847.00
 94.57     937.00
 94.67     872.00
 94.77     913.00
 94.87     947.00
 94.97     926.33
 95.07     951.00
 95.17     876.44
 95.27     866.00
 95.37     757.00
 95.47     784.75
 95.57     731.00
 95.67     709.00
 95.77     670.00
 95.87     686.96
 95.97     691.00
 96.07     653.37
 96.17     723.00
 96.27     696.00
 96.37     787.63
 96.47     846.00
 96.57     843.00
 96.67     927.00
 96.77    1033.00
 96.87    1065.00
 96.97    1141.00
 97.07    1246.00
 97.17    1294.00
 97.27    1309.85
 97.37    1388.48
 97.47    1445.00
 97.57    1418.00
 97.67    1430.00
 97.77    1412.12
 97.87    1319.00
 97.97    1293.00
 98.07    1204.00
 98.17    1200.36
 98.27    1098.00
 98.37    1083.00
 98.47     961.00
 98.57     910.00
 98.67     879.00
 98.77     785.00
 98.87     775.14
 98.97     818.00
 99.07     830.00
 99.17     850.00
 99.27     870.00
 99.37     901.97
 99.47    1072.00
 99.57    1134.00
 99.67    1175.31
 99.77    1321.45
 99.87    1424.00
 99.97    1495.22
100.07    1687.00
100.17    1841.00
100.27    1853.99
100.37    1929.52
100.47    1954.00
100.57    2058.00
100.67    2077.00
100.77    2087.00
100.87    2049.00
100.97    2005.00
101.07    2000.19
101.17    1758.00
101.27    1742.00
101.37    1699.00
101.47    1656.94
101.57    1496.00
101.67    1415.00
101.77    1376.00
101.87    1261.00
101.97    1228.00
102.07    1166.00
102.17    1189.00
102.27    1194.53
102.37    1112.00
102.47    1079.52
102.57    1027.00
102.67    1038.00
102.77    1010.30
102.87     974.00
102.97     983.00
103.07     864.00
103.17     830.00
103.27     871.00
103.37     775.00
103.47     775.00
103.57     736.00
103.67     652.08
103.77     726.00
103.87     660.00
103.97     610.00
104.07     628.66
104.17     613.00
104.27     553.00
104.37     594.00
104.47     588.00
104.57     555.00
104.67     521.08
104.77     571.00
104.87     560.00
104.97     507.01
105.07     560.26
105.17     551.00
105.27     541.00
105.37     561.52
105.47     534.00
105.57     532.74
105.67     508.41
105.77     571.83
105.87     584.00
105.97     587.00
106.07     556.00
106.17     562.24
106.27     586.00
106.37     630.61
106.47     586.00
106.57     563.00
106.67     631.75
106.77     684.95
106.87     633.81
106.97     663.00
107.07     644.00
107.17     670.31
107.27     704.00
107.37     633.00
107.47     663.00
107.57     716.00
107.67     623.00
107.77     677.00
107.87     723.00
107.97     683.00
108.07     688.00
108.17     665.99
108.27     640.00
108.37     665.00
108.47     634.00
108.57     713.00
108.67     707.00
108.77     677.00
108.87     656.35
108.97     697.00
109.07     697.00
109.17     672.00
109.27     697.81
109.37     649.83
109.47     658.00
109.57     622.00
109.67     700.00
109.77     628.27
109.87     635.00
109.97     605.00
110.07     558.90
110.17     624.00
110.27     572.00
110.37     610.00
110.47     566.00
110.57     570.00
110.67     501.00
110.77     545.00
110.87     558.00
110.97     553.00
111.07     494.05
111.17     550.00
111.27     503.81
111.37     550.00
111.47     545.00
111.57     542.00
111.67     568.31
111.77     513.79
111.87     562.00
111.97     582.00
112.07     604.09
112.17     554.55
112.27     559.00
112.37     584.32
112.47     569.00
112.57     595.00
112.67     568.64
112.77     585.48
112.87     645.00
112.97     696.94
113.07     703.84
113.17     732.93
113.27     687.00
113.37     764.37
113.47     761.00
113.57     798.45
113.67     819.24
113.77     821.00
113.87     824.00
113.97     971.52
114.07     998.00
114.17    1005.00
114.27    1029.00
114.37    1191.95
114.47    1295.00
114.57    1447.00
114.67    1467.09
114.77    1720.54
114.87    1886.00
114.97    2008.53
115.07    2249.01
115.17    2735.00
115.27    2956.00
115.37    3040.33
115.47    3467.23
115.57    3728.00
115.67    4225.35
115.77    4527.30
115.87    4975.25
115.97    5286.00
116.07    5658.92
116.17    6005.00
116.27    6168.00
116.37    6460.00
116.47    6814.00
116.57    6663.00
116.67    6804.00
116.77    6819.00
116.87    6748.00
116.97    6501.00
117.07    6172.00
117.17    5937.00
117.27    5750.23
117.37    5191.00
117.47    4930.00
117.57    4504.00
117.67    4128.55
117.77    3841.00
117.87    3464.00
117.97    3092.17
118.07    2741.01
118.17    2587.01
118.27    2138.00
118.37    1996.00
118.47    1751.95
118.57    1548.00
118.67    1420.14
118.77    1342.48
118.87    1186.53
118.97    1037.36
119.07     996.14
119.17     875.30
119.27     843.00
119.37     788.00
119.47     720.00
119.57     755.72
119.67     722.00
119.77     640.25
119.87     581.00
119.97     650.00
120.07     606.00
120.17     607.00
120.27     554.00
120.37     621.00
120.47     621.00
120.57     562.00
120.67     514.00
120.77     565.00
120.87     601.00
120.97     563.77
121.07     615.73
121.17     546.00
121.27     610.04
121.37     572.00
121.47     596.00
121.57     598.00
121.67     640.00
121.77     631.70
121.87     632.38
121.97     600.75
122.07     594.84
122.17     635.00
122.27     620.00
122.37     576.00
122.47     587.78
122.57     632.37
122.67     643.16
122.77     653.01
122.87     656.00
122.97     627.75
123.07     575.00
123.17     659.00
123.27     621.00
123.37     671.00
123.47     664.00
123.57     611.00
123.67     622.00
123.77     606.00
123.87     630.00
123.97     598.38
124.07     650.00
124.17     656.96
124.27     623.00
124.37     598.21
124.47     584.00
124.57     608.00
124.67     646.00
124.77     549.74
124.87     627.00
124.97     547.00
