  9.97     553.00
 10.07     615.00
 10.17     578.36
 10.27     535.00
 10.37     570.00
 10.47     590.00
 10.57     563.00
 10.67     570.00
 10.77     590.81
 10.87     594.00
 10.97     572.00
 11.07     602.00
 11.17     607.00
 11.27     590.37
 11.37     581.00
 11.47     543.54
 11.57     581.00
 11.67     570.00
 11.77     638.00
 11.87     585.53
 11.97     658.00
 12.07     625.00
 12.17     691.96
 12.27     731.13
 12.37     702.05
 12.47     627.00
 12.57     615.21
 12.67     578.00
 12.77     568.00
 12.87     547.00
 12.97     583.00
 13.07     554.00
 13.17     567.00
 13.27     534.00
 13.37     583.57
 13.47     591.24
 13.57     585.79
 13.67     581.00
 13.77     524.93
 13.87     527.39
 13.97     530.54
 14.07     541.55
 14.17     547.00
 14.27     575.00
 14.37     568.52
 14.47     511.00
 14.57     549.00
 14.67     557.00
 14.77     554.00
 14.87     533.96
 14.97     603.00
 15.07     582.00
 15.17     558.00
 15.27     570.00
 15.37     546.00
 15.47     572.00
 15.57     569.05
 15.67     546.02
 15.77     560.00
 15.87     534.00
 15.97     601.79
 16.07     539.27
 16.17     568.00
 16.27     575.77
 16.37     554.00
 16.47     530.00
 16.57     573.09
 16.67     598.48
 16.77     549.00
 16.87     600.47
 16.97     550.12
 17.07     541.00
 17.17     546.00
 17.27     591.00
 17.37     533.00
 17.47     520.00
 17.57     521.32
 17.67     529.00
 17.77     536.68
 17.87     513.00
 17.97     550.82
 18.07     557.00
 18.17     504.00
 18.27     555.00
 18.37     562.00
 18.47     544.00
 18.57     560.00
 18.67     568.00
 18.77     565.73
 18.87     592.61
 18.97     530.00
 19.07     557.00
 19.17     555.00
 19.27     524.00
 19.37     537.00
 19.47     551.00
 19.57     521.00
 19.67     567.28
 19.77     542.00
 19.87     578.12
 19.97     548.00
 20.07     560.00
 20.17     532.00
 20.27     574.77
 20.37     583.74
 20.47     540.00
 20.57     533.00
 20.67     512.00
 20.77     551.35
 20.87     583.20
 20.97     554.00
 21.07     525.00
 21.17     549.86
 21.27     544.00
 21.37     582.47
 21.47     561.00
 21.57     553.00
 21.67     540.15
 21.77     532.09
 21.87     548.00
 21.97     539.00
 22.07     565.00
 22.17     557.12
 22.27     591.00
 22.37     527.00
 22.47     536.00
 22.57     517.40
 22.67     545.00
 22.77     533.00
 22.87     577.27
 22.97     527.25
 23.07     556.14
 23.17     549.00
 23.27     545.15
 23.37     541.00
 23.47     597.00
 23.57     530.00
 23.67     579.00
 23.77     532.66
 23.87     601.00
 23.97     562.00
 24.07     529.28
 24.17     543.00
 24.27     551.75
 24.37     555.00
 24.47     546.00
 24.57     584.00
 24.67     652.00
 24.77     646.00
 24.87     673.00
 24.97     643.00
 25.07     574.00
 25.17     550.00
 25.27     579.00
 25.37     586.00
 25.47     513.00
 25.57     528.65
 25.67     575.36
 25.77     574.00
 25.87     494.00
 25.97     499.43
 26.07     586.00
 26.17     506.03
 26.27     544.00
 26.37     582.83
 26.47     523.00
 26.57     556.00
 26.67     556.00
 26.77     504.58
 26.87     500.42
 26.97     530.50
 27.07     567.00
 27.17     540.00
 27.27     568.26
 27.37     525.00
 27.47     595.00
 27.57     539.45
 27.67     527.00
 27.77     566.00
 27.87     623.00
 27.97     631.00
 28.07     742.00
 28.17     875.27
 28.27     897.00
 28.37     877.00
 28.47     822.39
 28.57     752.00
 28.67     693.00
 28.77     790.00
 28.87     766.00
 28.97     810.73
 29.07     785.00
 29.17     782.46
 29.27     667.00
 29.37     574.23
 29.47     578.24
 29.57     537.00
 29.67     591.00
 29.77     558.00
 29.87     609.00
 29.97     575.00
 30.07     582.00
 30.17     562.00
 30.27     523.17
 30.37     578.00
 30.47     570.43
 30.57     608.00
 30.67     547.57
 30.77     598.00
 30.87     607.48
 30.97     619.00
 31.07     606.00
 31.17     544.00
 31.27     612.00
 31.37     600.00
 31.47     537.00
 31.57     511.13
 31.67     564.75
 31.77     511.08
 31.87     556.31
 31.97     512.45
 32.07     552.00
 32.17     490.61
 32.27     560.00
 32.37     543.00
 32.47     528.00
 32.57     560.00
 32.67     525.00
 32.77     562.00
 32.87     545.00
 32.97     522.29
 33.07     527.89
 33.17     569.00
 33.27     490.00
 33.37     579.00
 33.47     580.70
 33.57     578.27
 33.67     598.00
 33.77     780.00
 33.87     838.00
 33.97     998.00
 34.07     987.13
 34.17    1017.00
 34.27     913.03
 34.37     795.00
 34.47     721.00
 34.57     580.00
 34.67     551.00
 34.77     585.77
 34.87     541.59
 34.97     528.00
 35.07     498.00
 35.17     532.00
 35.27     484.43
 35.37     503.30
 35.47     534.80
 35.57     507.00
 35.67     554.99
 35.77     523.00
 35.87     500.17
 35.97     531.00
 36.07     532.66
 36.17     515.00
 36.27     515.00
 36.37     516.00
 36.47     500.00
 36.57     474.85
 36.67     546.66
 36.77     515.00
 36.87     480.34
 36.97     474.00
 37.07     495.00
 37.17     541.15
 37.27     522.46
 37.37     514.00
 37.47     506.00
 37.57     510.00
 37.67     501.42
 37.77     503.00
 37.87     521.00
 37.97     497.00
 38.07     484.46
 38.17     499.47
 38.27     507.00
 38.37     500.00
 38.47     456.00
 38.57     529.00
 38.67     504.23
 38.77     506.92
 38.87     495.00
 38.97     506.12
 39.07     487.00
 39.17     520.00
 39.27     496.61
 39.37     479.00
 39.47     519.65
 39.57     514.00
 39.67     504.00
 39.77     522.89
 39.87     532.00
 39.97     520.53
 40.07     530.91
 40.17     483.00
 40.27     498.00
 40.37     556.00
 40.47     514.00
 40.57     466.00
 40.67     491.00
 40.77     510.57
 40.87     477.00
 40.97     497.00
 41.07     460.00
 41.17     457.00
 41.27     521.13
 41.37     466.00
 41.47     468.00
 41.57     520.00
 41.67     508.00
 41.77     524.69
 41.87     524.00
 41.97     540.68
 42.07     468.00
 42.17     511.00
 42.27     533.78
 42.37     551.00
 42.47     570.84
 42.57     559.68
 42.67     593.04
 42.77     638.94
 42.87     607.00
 42.97     587.00
 43.07     576.31
 43.17     533.25
 43.27     520.00
 43.37     526.00
 43.47     484.20
 43.57     484.00
 43.67     491.00
 43.77     498.00
 43.87     464.90
 43.97     479.00
 44.07     455.60
 44.17     472.57
 44.27     512.00
 44.37     530.00
 44.47     503.96
 44.57     487.94
 44.67     520.00
 44.77     488.00
 44.87     490.00
 44.97     506.00
 45.07     493.14
 45.17     526.05
 45.27     543.00
 45.37     526.76
 45.47     515.00
 45.57     482.43
 45.67     519.10
 45.77     464.13
 45.87     514.00
 45.97     473.00
 46.07     488.00
 46.17     511.80
 46.27     483.15
 46.37     520.00
 46.47     507.35
 46.57     477.56
 46.67     527.00
 46.77     529.78
 46.87     480.28
 46.97     534.00
 47.07     509.91
 47.17     534.00
 47.27     509.00
 47.37     546.00
 47.47     538.80
 47.57     559.00
 47.67     580.69
 47.77     562.00
 47.87     625.00
 47.97     619.00
 48.07     627.00
 48.17     592.00
 48.27     593.03
 48.37     562.00
 48.47     525.00
 48.57     531.00
 48.67     561.49
 48.77     533.66
 48.87     529.42
 48.97     538.00
 49.07     580.84
 49.17     554.28
 49.27     562.00
 49.37     595.00
 49.47     660.00
 49.57     684.00
 49.67     798.85
 49.77    1023.47
 49.87    1261.00
 49.97    1644.00
 50.07    2025.00
 50.17    2329.66
 50.27    2344.48
 50.37    2339.00
 50.47    2009.00
 50.57    1637.41
 50.67    1180.00
 50.77     955.00
 50.87     766.00
 50.97     660.00
 51.07     700.00
 51.17     608.47
 51.27     613.56
 51.37     568.00
 51.47     556.90
 51.57     600.50
 51.67     580.07
 51.77     528.00
 51.87     560.04
 51.97     576.40
 52.07     561.00
 52.17     490.34
 52.27     526.00
 52.37     578.00
 52.47     515.40
 52.57     581.00
 52.67     553.29
 52.77     559.84
 52.87     654.00
 52.97     669.00
 53.07     802.00
 53.17     860.00
 53.27     972.00
 53.37    1148.69
 53.47    1192.00
 53.57    1267.04
 53.67    1207.57
 53.77     980.00
 53.87     944.04
 53.97     830.00
 54.07     728.00
 54.17     634.00
 54.27     598.41
 54.37     590.00
 54.47     604.54
 54.57     564.99
 54.67     550.00
 54.77     568.00
 54.87     565.00
 54.97     569.00
 55.07     571.00
 55.17     591.00
 55.27     524.95
 55.37     515.00
 55.47     536.00
 55.57     531.00
 55.67     575.85
 55.77     607.40
 55.87     638.00
 55.97     610.19
 56.07     643.00
 56.17     800.30
 56.27     833.00
 56.37     976.00
 56.47    1280.00
 56.57    1677.54
 56.67    2060.00
 56.77    2221.00
 56.87    2461.00
 56.97    2494.00
 57.07    2434.00
 57.17    2153.43
 57.27    1869.00
 57.37    1449.58
 57.47    1198.00
 57.57     977.00
 57.67     886.00
 57.77     782.41
 57.87     718.00
 57.97     705.29
 58.07     718.00
 58.17     676.97
 58.27     721.00
 58.37     787.00
 58.47     906.87
 58.57     903.00
 58.67    1073.78
 58.77    1094.00
 58.87    1150.06
 58.97    1307.84
 59.07    1396.00
 59.17    1346.00
 59.27    1245.18
 59.37    1312.00
 59.47    1285.00
 59.57    1290.00
 59.67    1140.02
 59.77    1157.00
 59.87    1129.17
 59.97    1295.00
 60.07    1427.00
 60.17    1464.00
 60.27    1564.00
 60.37    1596.00
 60.47    1440.95
 60.57    1324.00
 60.67    1219.00
 60.77     995.45
 60.87     876.00
 60.97     733.55
 61.07     708.60
 61.17     673.00
 61.27     690.00
 61.37     619.58
 61.47     706.00
 61.57     700.08
 61.67     821.00
 61.77     965.09
 61.87    1036.00
 61.97    1131.00
 62.07    1319.34
 62.17    1267.00
 62.27    1336.00
 62.37    1316.00
 62.47    1250.74
 62.57    1059.48
 62.67     977.00
 62.77     852.00
 62.87     780.00
 62.97     645.00
 63.07     682.63
 63.17     627.00
 63.27     619.96
 63.37     527.58
 63.47     554.59
 63.57     561.09
 63.67     568.00
 63.77     600.00
 63.87     574.44
 63.97     624.00
 64.07     695.00
 64.17     764.00
 64.27     767.00
 64.37     842.00
 64.47     902.21
 64.57     955.00
 64.67     998.92
 64.77    1054.83
 64.87    1004.00
 64.97     908.00
 65.07     906.00
 65.17     859.51
 65.27     716.00
 65.37     688.00
 65.47     672.00
 65.57     681.00
 65.67     656.80
 65.77     606.05
 65.87     644.00
 65.97     600.84
 66.07     555.09
 66.17     599.56
 66.27     565.00
 66.37     582.69
 66.47     578.95
 66.57     522.00
 66.67     553.00
 66.77     548.00
 66.87     612.00
 66.97     567.00
 67.07     612.00
 67.17     716.29
 67.27     740.00
 67.37     847.00
 67.47     998.00
 67.57    1161.00
 67.67    1408.00
 67.77    1624.00
 67.87    1911.00
 67.97    2160.51
 68.07    2382.00
 68.17    2426.00
 68.27    2400.00
 68.37    2165.00
 68.47    1939.00
 68.57    1718.00
 68.67    1380.45
 68.77    1251.00
 68.87    1059.18
 68.97     865.00
 69.07     802.00
 69.17     726.00
 69.27     676.00
 69.37     650.76
 69.47     571.00
 69.57     554.00
 69.67     582.00
 69.77     575.00
 69.87     566.00
 69.97     551.00
 70.07     571.47
 70.17     604.12
 70.27     569.00
 70.37     598.00
 70.47     545.11
 70.57     557.00
 70.67     546.00
 70.77     622.00
 70.87     598.12
 70.97     573.00
 71.07     616.00
 71.17     710.00
 71.27     842.26
 71.37     842.00
 71.47    1003.00
 71.57    1179.00
 71.67    1357.00
 71.77    1511.62
 71.87    1630.00
 71.97    1822.00
 72.07    1900.75
 72.17    1865.00
 72.27    1861.00
 72.37    1702.00
 72.47    1518.00
 72.57    1400.36
 72.67    1210.00
 72.77    1053.00
 72.87     905.00
 72.97     810.69
 73.07     734.00
 73.17     737.96
 73.27     667.00
 73.37     665.14
 73.47     644.00
 73.57     626.00
 73.67     592.00
 73.77     575.00
 73.87     609.00
 73.97     560.00
 74.07     542.07
 74.17     620.37
 74.27     595.00
 74.37     561.00
 74.47     657.00
 74.57     636.00
 74.67     602.00
 74.77     583.30
 74.87     611.00
 74.97     533.99
 75.07     591.00
 75.17     575.25
 75.27     577.00
 75.37     604.00
 75.47     560.00
 75.57     583.00
 75.67     583.00
 75.77     559.00
 75.87     602.00
 75.97     607.65
 76.07     621.00
 76.17     636.00
 76.27     667.54
 76.37     674.99
 76.47     699.00
 76.57     687.39
 76.67     682.00
 76.77     714.52
 76.87     655.00
 76.97     664.00
 77.07     681.76
 77.17     638.38
 77.27     605.00
 77.37     596.00
 77.47     535.00
 77.57     580.73
 77.67     513.46
 77.77     509.00
 77.87     508.00
 77.97     536.00
 78.07     480.00
 78.17     479.00
 78.27     511.00
 78.37     506.28
 78.47     504.00
 78.57     470.00
 78.67     523.00
 78.77     546.00
 78.87     513.00
 78.97     484.71
 79.07     517.00
 79.17     545.00
 79.27     498.00
 79.37     486.00
 79.47     517.00
 79.57     524.00
 79.67     496.61
 79.77     543.04
 79.87     501.00
 79.97     525.00
 80.07     558.00
 80.17     522.09
 80.27     554.00
 80.37     541.00
 80.47     576.00
 80.57     565.00
 80.67     593.00
 80.77     605.00
 80.87     617.72
 80.97     650.70
 81.07     645.00
 81.17     692.00
 81.27     777.33
 81.37     785.50
 81.47     745.00
 81.57     785.21
 81.67     778.99
 81.77     771.47
 81.87     672.53
 81.97     730.00
 82.07     694.00
 82.17     648.00
 82.27     650.00
 82.37     613.02
 82.47     590.46
 82.57     576.08
 82.67     606.73
 82.77     572.00
 82.87     530.00
 82.97     537.00
 83.07     534.72
 83.17     536.00
 83.27     509.00
 83.37     552.21
 83.47     541.57
 83.57     509.69
 83.67     567.00
 83.77     528.72
 83.87     563.07
 83.97     566.00
 84.07     538.00
 84.17     593.25
 84.27     599.93
 84.37     593.35
 84.47     588.80
 84.57     520.94
 84.67     569.59
 84.77     585.00
 84.87     498.94
 84.97     502.50
 85.07     503.00
 85.17     543.73
 85.27     482.68
 85.37     513.70
 85.47     525.00
 85.57     530.39
 85.67     513.94
 85.77     508.80
 85.87     564.00
 85.97     517.00
 86.07     498.00
 86.17     545.97
 86.27     531.00
 86.37     546.20
 86.47     544.00
 86.57     519.00
 86.67     542.00
 86.77     578.00
 86.87     591.96
 86.97     570.00
 87.07     616.00
 87.17     598.00
 87.27     634.95
 87.37     646.00
 87.47     635.00
 87.57     599.00
 87.67     622.00
 87.77     568.61
 87.87     673.00
 87.97     620.53
 88.07     545.28
 88.17     569.58
 88.27     599.00
 88.37     570.00
 88.47     630.00
 88.57     577.61
 88.67     588.00
 88.77     537.14
 88.87     577.00
 88.97     593.00
 89.07     565.54
 89.17     598.00
 89.27     539.00
 89.37     600.00
 89.47     604.00
 89.57     585.00
 89.67     554.44
 89.77     544.00
 89.87     556.00
 89.97     552.00
 90.07     541.00
 90.17     510.52
 90.27     534.37
 90.37     498.00
 90.47     495.83
 90.57     538.08
 90.67     497.61
 90.77     516.00
 90.87     560.00
 90.97     556.67
 91.07     519.15
 91.17     525.00
 91.27     513.28
 91.37     483.00
 91.47     514.00
 91.57     512.69
 91.67     539.00
 91.77     539.14
 91.87     495.00
 91.97     519.73
 92.07     541.00
 92.17     586.00
 92.27     562.00
 92.37     559.56
 92.47     627.26
 92.57     591.00
 92.67     612.00
 92.77     642.32
 92.87     665.95
 92.97     680.00
 93.07     744.00
 93.17     734.00
 93.27     687.75
 93.37     778.00
 93.47     719.00
 93.57     778.92
 93.67     834.00
 93.77     802.75
 93.87     794.00
 93.97     787.23
 94.07     841.00
 94.17     835.00
 94.27     816.00
 94.37     838.00
 94.47     907.00
 94.57     873.00
 94.67     880.00
 94.77     891.00
 94.87     895.13
 94.97     920.00
 95.07     838.54
 95.17     909.00
 95.27     902.00
 95.37     836.00
 95.47     819.00
 95.57     805.00
 95.67     772.55
 95.77     732.00
 95.87     681.35
 95.97     720.72
 96.07     715.00
 96.17     665.70
 96.27     690.00
 96.37     723.00
 96.47     780.00
 96.57     752.00
 96.67     860.00
 96.77     927.00
 96.87    1054.76
 96.97    1087.00
 97.07    1114.00
 97.17    1234.92
 97.27    1235.00
 97.37    1305.00
 97.47    1399.00
 97.57    1430.93
 97.67    1430.00
 97.77    1353.00
 97.87    1389.60
 97.97    1345.00
 98.07    1247.29
 98.17    1278.83
 98.27    1169.27
 98.37    1113.00
 98.47    1074.00
 98.57     986.00
 98.67     927.00
 98.77     938.06
 98.87     819.00
 98.97     859.27
 99.07     826.00
 99.17     876.00
 99.27     846.69
 99.37     940.00
 99.47    1005.00
 99.57    1013.00
 99.67    1071.00
 99.77    1179.00
 99.87    1237.00
 99.97    1447.00
100.07    1562.00
100.17    1624.18
100.27    1625.00
100.37    1762.68
100.47    1798.00
100.57    1989.00
100.67    2027.00
100.77    2027.00
100.87    2026.00
100.97    2015.00
101.07    1937.00
101.17    1836.88
101.27    1850.46
101.37    1780.00
101.47    1726.00
101.57    1633.11
101.67    1533.00
101.77    1434.31
101.87    1334.09
101.97    1371.34
102.07    1260.85
102.17    1216.00
102.27    1128.00
102.37    1182.00
102.47    1155.00
102.57    1100.00
102.67    1067.00
102.77    1092.00
102.87    1030.00
102.97    1073.79
103.07    1059.00
103.17     940.00
103.27     891.00
103.37     872.00
103.47     827.60
103.57     791.00
103.67     746.00
103.77     684.53
103.87     723.94
103.97     694.23
104.07     671.00
104.17     623.00
104.27     552.25
104.37     613.30
104.47     560.00
104.57     547.00
104.67     537.34
104.77     495.72
104.87     556.00
104.97     570.00
105.07     508.46
105.17     565.00
105.27     523.08
105.37     527.00
105.47     569.00
105.57     559.67
105.67     506.38
105.77     529.00
105.87     537.93
105.97     581.00
106.07     576.82
106.17     560.00
106.27     570.00
106.37     557.00
106.47     623.00
106.57     587.02
106.67     626.00
106.77     625.00
106.87     639.00
106.97     657.00
107.07     642.00
107.17     695.62
107.27     667.00
107.37     703.00
107.47     662.00
107.57     716.92
107.67     709.00
107.77     713.00
107.87     685.70
107.97     688.00
108.07     656.79
108.17     720.49
108.27     686.00
108.37     616.00
108.47     698.30
108.57     683.03
108.67     661.00
108.77     672.00
108.87     734.99
108.97     713.00
109.07     706.00
109.17     660.00
109.27     663.00
109.37     680.00
109.47     667.00
109.57     664.00
109.67     661.55
109.77     605.15
109.87     616.78
109.97     608.61
110.07     619.09
110.17     569.00
110.27     613.00
110.37     561.00
110.47     589.00
110.57     557.00
110.67     552.00
110.77     562.00
110.87     521.00
110.97     515.22
111.07     518.00
111.17     498.04
111.27     534.00
111.37     549.26
111.47     565.98
111.57     571.86
111.67     520.58
111.77     518.01
111.87     523.00
111.97     541.00
112.07     528.00
112.17     575.00
112.27     592.88
112.37     547.08
112.47     618.00
112.57     580.21
112.67     545.00
112.77     559.00
112.87     556.00
112.97     569.00
113.07     661.93
113.17     673.86
113.27     680.74
113.37     667.00
113.47     640.00
113.57     680.90
113.67     702.00
113.77     662.00
113.87     744.12
113.97     748.00
114.07     802.00
114.17     843.00
114.27     897.00
114.37     969.18
114.47    1036.00
114.57    1176.00
114.67    1216.90
114.77    1507.00
114.87    1565.00
114.97    1758.00
115.07    1927.00
115.17    2157.26
115.27    2416.00
115.37    2704.00
115.47    3083.00
115.57    3434.87
115.67    3746.00
115.77    4019.98
115.87    4396.83
115.97    4674.00
116.07    5079.00
116.17    5576.87
116.27    5697.08
116.37    6110.51
116.47    6351.00
116.57    6639.33
116.67    6746.00
116.77    6715.00
116.87    6857.00
116.97    6780.00
117.07    6585.00
117.17    6344.00
117.27    5979.00
117.37    5737.00
117.47    5439.00
117.57    5020.00
117.67    4694.78
117.77    4426.00
117.87    4097.00
117.97    3731.00
118.07    3462.00
118.17    2960.26
118.27    2821.00
118.37    2436.79
118.47    2227.00
118.57    2057.06
118.67    1769.66
118.77    1540.74
118.87    1358.89
118.97    1287.00
119.07    1191.00
119.17    1075.85
119.27     995.00
119.37     873.10
119.47     861.00
119.57     780.30
119.67     724.00
119.77     769.31
119.87     729.00
119.97     688.00
120.07     676.05
120.17     661.69
120.27     622.00
120.37     593.00
120.47     594.00
120.57     562.00
120.67     599.02
120.77     599.00
120.87     553.00
120.97     621.93
121.07     581.00
121.17     585.00
121.27     587.00
121.37     575.00
121.47     532.00
121.57     552.00
121.67     579.63
121.77     595.14
121.87     595.00
121.97     608.00
122.07     573.35
122.17     663.00
122.27     631.86
122.37     579.25
122.47     636.00
122.57     642.00
122.67     625.00
122.77     627.80
122.87     614.00
122.97     625.02
123.07     632.83
123.17     609.00
123.27     654.50
123.37     640.77
123.47     677.00
123.57     661.75
123.67     642.00
123.77     651.00
123.87     602.92
123.97     624.00
124.07     609.48
124.17     586.18
124.27     640.00
124.37     592.00
124.47     601.00
124.57     590.00
124.67     596.00
124.77     585.00
124.87     543.00
124.97     580.00
