  9.97     619.00
 10.07     581.05
 10.17     654.00
 10.27     544.00
 10.37     583.00
 10.47     526.21
 10.57     632.00
 10.67     582.00
 10.77     552.00
 10.87     575.00
 10.97     541.80
 11.07     556.00
 11.17     577.00
 11.27     603.52
 11.37     521.14
 11.47     573.59
 11.57     606.17
 11.67     608.00
 11.77     618.00
 11.87     640.19
 11.97     610.00
 12.07     684.00
 12.17     704.00
 12.27     628.00
 12.37     635.56
 12.47     615.00
 12.57     586.00
 12.67     591.00
 12.77     577.00
 12.87     537.37
 12.97     553.00
 13.07     558.00
 13.17     607.85
 13.27     558.33
 13.37     553.04
 13.47     524.00
 13.57     570.00
 13.67     525.63
 13.77     499.00
 13.87     537.00
 13.97     595.98
 14.07     604.00
 14.17     547.00
 14.27     614.43
 14.37     541.00
 14.47     565.66
 14.57     525.00
 14.67     531.00
 14.77     541.00
 14.87     576.00
 14.97     555.00
 15.07     530.11
 15.17     522.20
 15.27     574.00
 15.37     535.00
 15.47     530.68
 15.57     599.66
 15.67     601.70
 15.77     541.00
 15.87     539.00
 15.97     567.00
 16.07     552.00
 16.17     574.35
 16.27     569.73
 16.37     546.00
 16.47     583.00
 16.57     609.00
 16.67     526.00
 16.77     604.16
 16.87     599.12
 16.97     592.00
 17.07     549.00
 17.17     587.00
 17.27     573.00
 17.37     554.00
 17.47     530.00
 17.57     570.00
 17.67     569.00
 17.77     544.76
 17.87     578.00
 17.97     532.00
 18.07     538.68
 18.17     518.61
 18.27     608.96
 18.37     543.00
 18.47     563.40
 18.57     560.00
 18.67     582.00
 18.77     588.87
 18.87     557.17
 18.97     597.00
 19.07     529.91
 19.17     543.00
 19.27     517.85
 19.37     525.71
 19.47     563.00
 19.57     555.00
 19.67     552.29
 19.77     557.00
 19.87     581.88
 19.97     515.00
 20.07     562.30
 20.17     566.00
 20.27     567.00
 20.37     521.55
 20.47     519.06
 20.57     593.00
 20.67     558.00
 20.77     540.90
 20.87     505.00
 20.97     580.00
 21.07     527.00
 21.17     590.59
 21.27     543.00
 21.37     524.62
 21.47     555.00
 21.57     594.00
 21.67     573.00
 21.77     553.00
 21.87     561.00
 21.97     583.58
 22.07     528.37
 22.17     575.00
 22.27     522.55
 22.37     567.00
 22.47     574.00
 22.57     555.00
 22.67     572.00
 22.77     510.00
 22.87     534.00
 22.97     554.00
 23.07     564.00
 23.17     508.84
 23.27     566.00
 23.37     566.00
 23.47     589.00
 23.57     581.00
 23.67     584.38
 23.77     585.51
 23.87     591.00
 23.97     557.07
 24.07     541.00
 24.17     566.54
 24.27     541.00
 24.37     608.00
 24.47     569.00
 24.57     612.79
 24.67     626.00
 24.77     642.00
 24.87     642.00
 24.97     581.52
 25.07     585.77
 25.17     599.33
 25.27     605.65
 25.37     507.67
 25.47     553.00
 25.57     581.00
 25.67     627.00
 25.77     547.00
 25.87     590.62
 25.97     534.38
 26.07     568.00
 26.17     571.00
 26.27     518.27
 26.37     540.00
 26.47     548.00
 26.57     562.00
 26.67     530.25
 26.77     553.00
 26.87     550.40
 26.97     543.00
 27.07     573.82
 27.17     565.00
 27.27     517.74
 27.37     601.00
 27.47     547.84
 27.57     589.74
 27.67     584.00
 27.77     597.00
 27.87     626.00
 27.97     603.64
 28.07     738.00
 28.17     872.00
 28.27     945.00
 28.37     967.00
 28.47     833.00
 28.57     705.00
 28.67     703.29
 28.77     692.00
 28.87     807.44
 28.97     846.00
 29.07     813.00
 29.17     719.26
 29.27     622.38
 29.37     621.00
 29.47     618.00
 29.57     565.00
 29.67     650.00
 29.77     636.00
 29.87     585.00
 29.97     568.00
 30.07     585.00
 30.17     522.00
 30.27     569.00
 30.37     581.33
 30.47     561.00
 30.57     555.00
 30.67     513.65
 30.77     588.00
 30.87     622.44
 30.97     639.00
 31.07     617.00
 31.17     608.40
 31.27     576.00
 31.37     549.46
 31.47     522.46
 31.57     568.00
 31.67     545.00
 31.77     576.64
 31.87     525.00
 31.97     518.00
 32.07     539.15
 32.17     499.00
 32.27     563.00
 32.37     542.00
 32.47     514.88
 32.57     556.00
 32.67     543.00
 32.77     561.65
 32.87     583.00
 32.97     576.00
 33.07     577.39
 33.17     528.84
 33.27     504.38
 33.37     556.00
 33.47     548.82
 33.57     618.88
 33.67     611.21
 33.77     674.00
 33.87     830.00
 33.97     995.82
 34.07    1082.00
 34.17    1068.85
 34.27     960.07
 34.37     780.18
 34.47     683.00
 34.57     650.93
 34.67     581.00
 34.77     518.83
 34.87     555.80
 34.97     501.00
 35.07     527.00
 35.17     550.20
 35.27     526.74
 35.37     531.00
 35.47     566.95
 35.57     539.00
 35.67     519.63
 35.77     543.57
 35.87     473.52
 35.97     543.00
 36.07     489.64
 36.17     485.00
 36.27     480.78
 36.37     517.00
 36.47     478.51
 36.57     495.00
 36.67     454.00
 36.77     516.00
 36.87     474.77
 36.97     503.00
 37.07     556.64
 37.17     517.00
 37.27     498.97
 37.37     472.00
 37.47     532.00
 37.57     555.72
 37.67     505.00
 37.77     494.00
 37.87     535.00
 37.97     562.66
 38.07     547.45
 38.17     469.49
 38.27     526.00
 38.37     477.00
 38.47     567.00
 38.57     479.00
 38.67     484.00
 38.77     532.46
 38.87     514.00
 38.97     501.39
 39.07     495.69
 39.17     490.17
 39.27     475.00
 39.37     495.00
 39.47     501.00
 39.57     501.00
 39.67     482.82
 39.77     474.98
 39.87     477.00
 39.97     501.00
 40.07     493.00
 40.17     477.00
 40.27     532.00
 40.37     504.00
 40.47     509.00
 40.57     514.00
 40.67     482.00
 40.77     478.00
 40.87     460.00
 40.97     513.56
 41.07     483.12
 41.17     511.82
 41.27     523.98
 41.37     482.67
 41.47     529.18
 41.57     524.29
 41.67     485.00
 41.77     494.00
 41.87     526.00
 41.97     508.00
 42.07     510.00
 42.17     518.00
 42.27     535.31
 42.37     529.00
 42.47     545.00
 42.57     604.00
 42.67     566.00
 42.77     637.00
 42.87     604.52
 42.97     632.87
 43.07     579.90
 43.17     484.00
 43.27     485.00
 43.37     537.38
 43.47     549.98
 43.57     510.00
 43.67     457.99
 43.77     515.00
 43.87     507.00
 43.97     471.88
 44.07     461.00
 44.17     485.00
 44.27     470.00
 44.37     461.00
 44.47     473.00
 44.57     469.65
 44.67     520.00
 44.77     523.93
 44.87     500.07
 44.97     541.26
 45.07     505.99
 45.17     463.36
 45.27     469.00
 45.37     500.00
 45.47     449.00
 45.57     498.00
 45.67     510.81
 45.77     453.93
 45.87     529.93
 45.97     477.00
 46.07     487.00
 46.17     500.26
 46.27     471.00
 46.37     503.00
 46.47     494.00
 46.57     478.03
 46.67     473.00
 46.77     511.00
 46.87     490.00
 46.97     485.00
 47.07     505.00
 47.17     448.00
 47.27     537.40
 47.37     466.00
 47.47     529.00
 47.57     560.00
 47.67     539.00
 47.77     600.00
 47.87     564.00
 47.97     626.92
 48.07     551.80
 48.17     605.97
 48.27     542.00
 48.37     539.07
 48.47     499.66
 48.57     509.00
 48.67     561.58
 48.77     515.00
 48.87     514.00
 48.97     572.63
 49.07     561.00
 49.17     598.94
 49.27     609.57
 49.37     645.10
 49.47     690.00
 49.57     747.38
 49.67     888.00
 49.77     980.98
 49.87    1285.00
 49.97    1714.00
 50.07    2082.01
 50.17    2409.76
 50.27    2552.00
 50.37    2381.00
 50.47    2180.00
 50.57    1589.05
 50.67    1196.08
 50.77     900.00
 50.87     741.94
 50.97     601.00
 51.07     633.70
 51.17     605.00
 51.27     525.00
 51.37     609.58
 51.47     555.00
 51.57     567.00
 51.67     517.79
 51.77     538.00
 51.87     544.00
 51.97     573.00
 52.07     588.00
 52.17     528.00
 52.27     501.33
 52.37     493.16
 52.47     567.00
 52.57     560.41
 52.67     586.00
 52.77     516.96
 52.87     593.00
 52.97     598.00
 53.07     695.67
 53.17     798.00
 53.27     871.68
 53.37    1084.00
 53.47    1099.00
 53.57    1227.14
 53.67    1120.53
 53.77    1104.08
 53.87     963.00
 53.97     794.53
 54.07     758.02
 54.17     646.00
 54.27     626.72
 54.37     589.00
 54.47     575.00
 54.57     572.00
 54.67     565.00
 54.77     578.61
 54.87     548.00
 54.97     543.00
 55.07     569.00
 55.17     589.00
 55.27     547.00
 55.37     531.00
 55.47     565.00
 55.57     539.34
 55.67     517.46
 55.77     571.00
 55.87     611.14
 55.97     606.00
 56.07     620.29
 56.17     717.04
 56.27     793.00
 56.37    1030.99
 56.47    1228.00
 56.57    1510.00
 56.67    1928.00
 56.77    2293.00
 56.87    2665.29
 56.97    2720.00
 57.07    2541.00
 57.17    2287.50
 57.27    1902.00
 57.37    1507.00
 57.47    1157.00
 57.57     939.86
 57.67     782.71
 57.77     741.00
 57.87     707.00
 57.97     695.00
 58.07     685.00
 58.17     647.00
 58.27     712.00
 58.37     800.51
 58.47     898.00
 58.57    1045.00
 58.67    1201.00
 58.77    1265.00
 58.87    1515.00
 58.97    1551.35
 59.07    1616.00
 59.17    1660.23
 59.27    1542.00
 59.37    1365.71
 59.47    1377.24
 59.57    1228.82
 59.67    1181.00
 59.77    1196.00
 59.87    1163.00
 59.97    1237.08
 60.07    1396.00
 60.17    1517.00
 60.27    1609.00
 60.37    1596.00
 60.47    1502.00
 60.57    1409.19
 60.67    1170.48
 60.77     954.53
 60.87     907.00
 60.97     737.00
 61.07     676.00
 61.17     696.00
 61.27     672.00
 61.37     639.00
 61.47     664.13
 61.57     708.00
 61.67     720.00
 61.77     867.20
 61.87     951.00
 61.97    1130.00
 62.07    1358.76
 62.17    1391.00
 62.27    1374.00
 62.37    1386.81
 62.47    1235.11
 62.57    1128.71
 62.67     957.00
 62.77     847.00
 62.87     700.00
 62.97     679.57
 63.07     644.90
 63.17     591.29
 63.27     551.16
 63.37     517.00
 63.47     511.04
 63.57     551.00
 63.67     601.48
 63.77     539.29
 63.87     586.00
 63.97     646.00
 64.07     717.00
 64.17     698.00
 64.27     768.00
 64.37     884.00
 64.47     849.55
 64.57     976.59
 64.67    1001.00
 64.77    1062.00
 64.87    1005.92
 64.97     884.65
 65.07     927.00
 65.17     850.00
 65.27     764.00
 65.37     698.00
 65.47     643.52
 65.57     668.00
 65.67     618.00
 65.77     589.00
 65.87     595.00
 65.97     558.00
 66.07     558.39
 66.17     518.00
 66.27     525.09
 66.37     557.00
 66.47     558.00
 66.57     566.30
 66.67     592.70
 66.77     539.00
 66.87     586.00
 66.97     494.00
 67.07     562.73
 67.17     643.00
 67.27     743.14
 67.37     760.00
 67.47     907.00
 67.57    1092.00
 67.67    1331.00
 67.77    1654.98
 67.87    1775.00
 67.97    2216.00
 68.07    2306.00
 68.17    2374.13
 68.27    2480.25
 68.37    2296.00
 68.47    2073.62
 68.57    1720.00
 68.67    1484.00
 68.77    1186.00
 68.87     944.00
 68.97     797.00
 69.07     724.00
 69.17     689.00
 69.27     654.00
 69.37     614.00
 69.47     621.00
 69.57     537.11
 69.67     593.00
 69.77     572.00
 69.87     577.00
 69.97     552.93
 70.07     607.00
 70.17     531.00
 70.27     571.00
 70.37     571.14
 70.47     553.00
 70.57     576.00
 70.67     550.04
 70.77     604.00
 70.87     601.74
 70.97     585.00
 71.07     660.99
 71.17     626.10
 71.27     718.00
 71.37     842.00
 71.47     906.32
 71.57    1077.38
 71.67    1264.00
 71.77    1475.00
 71.87    1728.47
 71.97    1778.00
 72.07    1916.00
 72.17    1988.00
 72.27    1938.00
 72.37    1752.00
 72.47    1667.00
 72.57    1421.16
 72.67    1377.00
 72.77    1218.70
 72.87    1059.68
 72.97     971.00
 73.07     846.00
 73.17     907.26
 73.27     873.97
 73.37     727.28
 73.47     717.00
 73.57     652.45
 73.67     684.12
 73.77     646.67
 73.87     611.81
 73.97     561.00
 74.07     582.00
 74.17     610.34
 74.27     542.00
 74.37     594.00
 74.47     550.07
 74.57     610.00
 74.67     629.00
 74.77     598.00
 74.87     585.00
 74.97     644.00
 75.07     592.63
 75.17     579.00
 75.27     520.28
 75.37     536.00
 75.47     539.08
 75.57     521.00
 75.67     583.44
 75.77     556.00
 75.87     571.00
 75.97     552.74
 76.07     558.35
 76.17     603.00
 76.27     656.00
 76.37     650.25
 76.47     650.00
 76.57     678.24
 76.67     688.00
 76.77     630.00
 76.87     645.00
 76.97     698.00
 77.07     623.00
 77.17     621.00
 77.27     624.35
 77.37     578.60
 77.47     550.82
 77.57     527.00
 77.67     581.13
 77.77     536.41
 77.87     543.00
 77.97     487.59
 78.07     504.00
 78.17     534.00
 78.27     494.00
 78.37     534.21
 78.47     513.94
 78.57     476.00
 78.67     515.00
 78.77     539.00
 78.87     511.69
 78.97     508.27
 79.07     486.00
 79.17     522.00
 79.27     532.57
 79.37     545.80
 79.47     539.46
 79.57     540.75
 79.67     550.00
 79.77     477.00
 79.87     516.00
 79.97     508.00
 80.07     560.00
 80.17     537.00
 80.27     520.00
 80.37     581.34
 80.47     529.00
 80.57     583.00
 80.67     572.00
 80.77     619.88
 80.87     663.00
 80.97     604.00
 81.07     699.00
 81.17     703.00
 81.27     722.87
 81.37     738.00
 81.47     725.00
 81.57     768.00
 81.67     740.18
 81.77     829.00
 81.87     729.82
 81.97     742.00
 82.07     679.80
 82.17     678.00
 82.27     675.00
 82.37     610.00
 82.47     584.00
 82.57     596.62
 82.67     614.00
 82.77     578.00
 82.87     533.43
 82.97     530.00
 83.07     495.00
 83.17     500.87
 83.27     595.00
 83.37     579.00
 83.47     569.85
 83.57     572.83
 83.67     567.00
 83.77     568.00
 83.87     569.54
 83.97     512.00
 84.07     585.12
 84.17     547.00
 84.27     593.78
 84.37     552.00
 84.47     565.93
 84.57     507.00
 84.67     494.00
 84.77     530.00
 84.87     521.00
 84.97     505.89
 85.07     478.58
 85.17     513.27
 85.27     566.00
 85.37     510.70
 85.47     516.00
 85.57     520.89
 85.67     542.00
 85.77     499.00
 85.87     515.48
 85.97     471.70
 86.07     539.00
 86.17     535.00
 86.27     488.98
 86.37     504.12
 86.47     512.92
 86.57     577.00
 86.67     566.00
 86.77     567.00
 86.87     550.00
 86.97     567.00
 87.07     579.00
 87.17     573.00
 87.27     656.18
 87.37     625.03
 87.47     595.65
 87.57     642.00
 87.67     577.02
 87.77     600.08
 87.87     563.01
 87.97     637.00
 88.07     591.00
 88.17     620.00
 88.27     565.01
 88.37     566.00
 88.47     522.25
 88.57     565.00
 88.67     595.00
 88.77     569.00
 88.87     582.02
 88.97     572.00
 89.07     598.00
 89.17     599.00
 89.27     566.00
 89.37     582.07
 89.47     589.70
 89.57     617.00
 89.67     596.00
 89.77     552.21
 89.87     520.00
 89.97     536.00
 90.07     556.00
 90.17     587.00
 90.27     539.00
 90.37     578.62
 90.47     480.00
 90.57     494.00
 90.67     540.00
 90.77     520.00
 90.87     545.00
 90.97     507.00
 91.07     478.00
 91.17     522.00
 91.27     527.00
 91.37     527.00
 91.47     495.00
 91.57     532.00
 91.67     520.00
 91.77     527.55
 91.87     494.00
 91.97     522.00
 92.07     559.00
 92.17     593.74
 92.27     589.00
 92.37     544.00
 92.47     541.00
 92.57     582.85
 92.67     674.00
 92.77     684.00
 92.87     661.00
 92.97     690.86
 93.07     694.00
 93.17     770.09
 93.27     779.00
 93.37     753.66
 93.47     836.00
 93.57     779.00
 93.67     845.00
 93.77     769.91
 93.87     889.00
 93.97     790.00
 94.07     882.96
 94.17     881.00
 94.27     887.00
 94.37     890.00
 94.47     894.00
 94.57     872.00
 94.67     939.00
 94.77     915.00
 94.87     925.00
 94.97     911.85
 95.07     907.00
 95.17     869.00
 95.27     870.00
 95.37     910.00
 95.47     766.00
 95.57     772.00
 95.67     717.00
 95.77     769.00
 95.87     661.02
 95.97     709.45
 96.07     664.00
 96.17     648.00
 96.27     663.00
 96.37     703.00
 96.47     748.00
 96.57     767.85
 96.67     853.00
 96.77     861.09
 96.87     936.00
 96.97    1024.00
 97.07    1127.00
 97.17    1214.00
 97.27    1263.00
 97.37    1384.24
 97.47    1381.00
 97.57    1422.82
 97.67    1504.00
 97.77    1420.69
 97.87    1448.52
 97.97    1371.00
 98.07    1309.02
 98.17    1228.00
 98.27    1227.00
 98.37    1055.56
 98.47    1023.00
 98.57     952.00
 98.67     905.00
 98.77     874.45
 98.87     805.48
 98.97     849.27
 99.07     829.10
 99.17     804.79
 99.27     786.00
 99.37     828.00
 99.47     897.00
 99.57    1001.00
 99.67    1062.00
 99.77    1162.00
 99.87    1217.00
 99.97    1270.08
100.07    1422.88
100.17    1610.86
100.27    1722.00
100.37    1726.00
100.47    1849.00
100.57    1980.00
100.67    2032.50
100.77    2171.00
100.87    2091.79
100.97    2022.87
101.07    2135.00
101.17    2111.00
101.27    1908.61
101.37    2039.00
101.47    1795.00
101.57    1709.00
101.67    1589.00
101.77    1509.00
101.87    1444.81
101.97    1397.00
102.07    1250.79
102.17    1208.45
102.27    1190.00
102.37    1154.00
102.47    1102.00
102.57    1063.00
102.67    1065.00
102.77    1071.94
102.87    1015.00
102.97    1043.00
103.07     978.00
103.17     916.00
103.27     923.54
103.37     810.00
103.47     845.00
103.57     793.00
103.67     769.00
103.77     708.00
103.87     697.00
103.97     616.00
104.07     612.00
104.17     641.00
104.27     618.00
104.37     563.49
104.47     516.00
104.57     551.08
104.67     555.25
104.77     543.49
104.87     485.76
104.97     545.00
105.07     470.80
105.17     524.00
105.27     512.00
105.37     547.18
105.47     534.00
105.57     494.00
105.67     510.00
105.77     518.00
105.87     497.00
105.97     513.00
106.07     564.00
106.17     584.00
106.27     544.00
106.37     595.56
106.47     551.49
106.57     655.00
106.67     593.00
106.77     604.67
106.87     608.76
106.97     669.00
107.07     635.13
107.17     676.82
107.27     651.02
107.37     593.00
107.47     721.00
107.57     687.00
107.67     693.46
107.77     664.00
107.87     648.00
107.97     705.13
108.07     669.00
108.17     664.20
108.27     646.00
108.37     693.54
108.47     714.24
108.57     677.00
108.67     663.57
108.77     712.81
108.87     661.45
108.97     683.00
109.07     638.00
109.17     672.38
109.27     667.00
109.37     659.00
109.47     613.00
109.57     581.00
109.67     621.00
109.77     605.00
109.87     644.00
109.97     596.00
110.07     562.00
110.17     617.12
110.27     571.00
110.37     531.13
110.47     565.00
110.57     510.43
110.67     497.59
110.77     524.00
110.87     512.00
110.97     497.71
111.07     476.20
111.17     525.00
111.27     505.00
111.37     520.00
111.47     522.57
111.57     538.00
111.67     523.00
111.77     552.00
111.87     527.00
111.97     496.89
112.07     567.14
112.17     549.00
112.27     534.77
112.37     564.13
112.47     603.00
112.57     530.00
112.67     608.00
112.77     567.00
112.87     607.00
112.97     606.16
113.07     613.00
113.17     641.00
113.27     674.00
113.37     712.86
113.47     751.00
113.57     767.00
113.67     746.54
113.77     816.00
113.87     851.05
113.97     910.00
114.07     902.94
114.17     955.98
114.27    1093.00
114.37    1198.00
114.47    1208.00
114.57    1313.47
114.67    1423.00
114.77    1478.50
114.87    1679.00
114.97    1822.00
115.07    2085.80
115.17    2261.16
115.27    2625.00
115.37    2715.00
115.47    2944.72
115.57    3246.00
115.67    3738.33
115.77    4013.00
115.87    4299.00
115.97    4874.50
116.07    5144.81
116.17    5542.00
116.27    6151.99
116.37    6375.00
116.47    6667.00
116.57    6915.59
116.67    7127.00
116.77    7142.12
116.87    7292.00
116.97    7106.00
117.07    7111.00
117.17    6865.00
117.27    6467.00
117.37    6194.00
117.47    5869.36
117.57    5262.00
117.67    5011.00
117.77    4571.15
117.87    4405.00
117.97    3918.52
118.07    3635.00
118.17    3282.00
118.27    2782.93
118.37    2632.00
118.47    2240.00
118.57    1948.00
118.67    1696.36
118.77    1600.00
118.87    1332.00
118.97    1177.84
119.07    1082.22
119.17    1057.00
119.27     964.31
119.37     847.00
119.47     791.00
119.57     756.00
119.67     698.00
119.77     744.90
119.87     635.86
119.97     625.00
120.07     600.07
120.17     660.02
120.27     612.56
120.37     561.01
120.47     556.00
120.57     564.00
120.67     555.00
120.77     604.80
120.87     564.00
120.97     601.00
121.07     541.00
121.17     556.00
121.27     568.31
121.37     558.00
121.47     545.51
121.57     520.60
121.67     578.96
121.77     546.00
121.87     589.00
121.97     592.00
122.07     627.89
122.17     608.00
122.27     612.00
122.37     591.00
122.47     580.00
122.57     616.00
122.67     576.30
122.77     651.00
122.87     613.13
122.97     654.00
123.07     638.00
123.17     638.00
123.27     640.00
123.37     621.00
123.47     634.00
123.57     669.57
123.67     605.68
123.77     606.00
123.87     648.00
123.97     582.00
124.07     644.00
124.17     656.00
124.27     610.00
124.37     555.22
124.47     621.97
124.57     572.00
124.67     603.00
124.77     609.00
124.87     580.00
124.97     606.00
