  9.97     653.00
 10.07     686.00
 10.17     693.00
 10.27     648.00
 10.37     617.31
 10.47     680.00
 10.57     664.00
 10.67     662.00
 10.77     619.98
 10.87     641.00
 10.97     590.73
 11.07     617.00
 11.17     602.00
 11.27     688.88
 11.37     593.66
 11.47     645.00
 11.57     660.40
 11.67     729.00
 11.77     737.00
 11.87     662.32
 11.97     773.00
 12.07     672.30
 12.17     802.00
 12.27     745.61
 12.37     766.07
 12.47     753.47
 12.57     691.00
 12.67     638.44
 12.77     660.00
 12.87     652.00
 12.97     648.00
 13.07     625.00
 13.17     675.00
 13.27     603.00
 13.37     626.00
 13.47     601.00
 13.57     584.00
 13.67     587.25
 13.77     656.60
 13.87     598.00
 13.97     603.66
 14.07     657.23
 14.17     567.00
 14.27     592.80
 14.37     597.41
 14.47     601.00
 14.57     586.00
 14.67     594.18
 14.77     645.00
 14.87     685.28
 14.97     592.00
 15.07     627.14
 15.17     583.00
 15.27     651.00
 15.37     581.00
 15.47     623.00
 15.57     560.00
 15.67     604.00
 15.77     625.00
 15.87     685.36
 15.97     643.00
 16.07     660.49
 16.17     582.00
 16.27     657.00
 16.37     589.58
 16.47     612.00
 16.57     654.00
 16.67     610.00
 16.77     583.25
 16.87     611.00
 16.97     602.44
 17.07     598.64
 17.17     628.50
 17.27     641.68
 17.37     636.00
 17.47     601.00
 17.57     637.00
 17.67     590.50
 17.77     598.00
 17.87     613.45
 17.97     607.12
 18.07     575.99
 18.17     572.81
 18.27     661.06
 18.37     575.29
 18.47     636.64
 18.57     591.00
 18.67     627.00
 18.77     674.62
 18.87     597.62
 18.97     667.09
 19.07     651.69
 19.17     612.93
 19.27     637.00
 19.37     578.00
 19.47     617.00
 19.57     614.00
 19.67     584.00
 19.77     612.41
 19.87     675.46
 19.97     617.00
 20.07     631.00
 20.17     601.00
 20.27     614.07
 20.37     637.00
 20.47     597.00
 20.57     595.00
 20.67     636.03
 20.77     642.67
 20.87     637.31
 20.97     633.68
 21.07     628.00
 21.17     608.00
 21.27     667.24
 21.37     614.00
 21.47     601.00
 21.57     585.04
 21.67     629.00
 21.77     625.79
 21.87     574.82
 21.97     584.00
 22.07     604.00
 22.17     568.87
 22.27     590.00
 22.37     632.00
 22.47     585.00
 22.57     592.00
 22.67     623.00
 22.77     634.00
 22.87     570.00
 22.97     585.00
 23.07     617.00
 23.17     538.00
 23.27     575.36
 23.37     655.47
 23.47     625.88
 23.57     655.00
 23.67     588.11
 23.77     599.00
 23.87     628.00
 23.97     642.86
 24.07     604.00
 24.17     665.00
 24.27     644.00
 24.37     631.74
 24.47     627.00
 24.57     586.01
 24.67     670.00
 24.77     690.00
 24.87     695.00
 24.97     679.00
 25.07     706.00
 25.17     711.00
 25.27     673.72
 25.37     672.00
 25.47     652.00
 25.57     569.68
 25.67     574.15
 25.77     592.33
 25.87     663.14
 25.97     655.00
 26.07     652.36
 26.17     666.00
 26.27     625.80
 26.37     603.82
 26.47     654.00
 26.57     575.32
 26.67     648.00
 26.77     680.00
 26.87     635.98
 26.97     634.85
 27.07     687.00
 27.17     738.00
 27.27     678.00
 27.37     678.00
 27.47     620.52
 27.57     660.18
 27.67     765.00
 27.77     847.00
 27.87     880.00
 27.97     939.26
 28.07    1123.00
 28.17    1502.25
 28.27    1867.00
 28.37    2129.00
 28.47    2006.00
 28.57    1802.00
 28.67    1478.93
 28.77    1449.55
 28.87    1426.59
 28.97    1448.25
 29.07    1461.00
 29.17    1483.00
 29.27    1236.00
 29.37    1112.00
 29.47     915.72
 29.57     831.00
 29.67     726.11
 29.77     650.81
 29.87     703.00
 29.97     605.29
 30.07     592.52
 30.17     623.46
 30.27     624.30
 30.37     646.50
 30.47     649.00
 30.57     681.00
 30.67     690.00
 30.77     645.49
 30.87     701.83
 30.97     687.00
 31.07     694.00
 31.17     717.00
 31.27     706.00
 31.37     619.24
 31.47     664.00
 31.57     669.00
 31.67     608.41
 31.77     614.00
 31.87     656.00
 31.97     641.00
 32.07     627.00
 32.17     593.00
 32.27     596.33
 32.37     613.00
 32.47     630.00
 32.57     586.00
 32.67     587.00
 32.77     603.00
 32.87     587.00
 32.97     588.00
 33.07     631.81
 33.17     629.96
 33.27     626.00
 33.37     658.74
 33.47     669.01
 33.57     624.00
 33.67     589.00
 33.77     703.81
 33.87     814.00
 33.97     912.00
 34.07     999.00
 34.17     998.86
 34.27     996.92
 34.37     993.00
 34.47     875.00
 34.57     804.00
 34.67     716.79
 34.77     639.53
 34.87     622.00
 34.97     630.00
 35.07     600.91
 35.17     627.00
 35.27     554.01
 35.37     576.00
 35.47     560.00
 35.57     618.68
 35.67     549.00
 35.77     548.00
 35.87     598.77
 35.97     553.00
 36.07     548.57
 36.17     615.11
 36.27     516.78
 36.37     557.00
 36.47     585.44
 36.57     606.31
 36.67     576.00
 36.77     526.00
 36.87     565.00
 36.97     588.66
 37.07     535.00
 37.17     579.00
 37.27     559.00
 37.37     576.00
 37.47     555.00
 37.57     588.00
 37.67     593.95
 37.77     544.65
 37.87     629.00
 37.97     584.00
 38.07     584.00
 38.17     598.00
 38.27     587.00
 38.37     550.00
 38.47     538.38
 38.57     582.00
 38.67     523.00
 38.77     557.00
 38.87     581.86
 38.97     512.00
 39.07     532.00
 39.17     493.00
 39.27     507.68
 39.37     543.00
 39.47     584.28
 39.57     540.00
 39.67     514.00
 39.77     504.00
 39.87     556.00
 39.97     595.50
 40.07     579.00
 40.17     507.83
 40.27     558.00
 40.37     532.00
 40.47     531.20
 40.57     568.00
 40.67     533.00
 40.77     548.83
 40.87     540.00
 40.97     533.00
 41.07     547.00
 41.17     537.82
 41.27     523.00
 41.37     568.00
 41.47     538.00
 41.57     555.00
 41.67     599.00
 41.77     550.00
 41.87     541.37
 41.97     548.00
 42.07     583.61
 42.17     524.00
 42.27     569.00
 42.37     581.59
 42.47     599.54
 42.57     587.68
 42.67     646.00
 42.77     620.00
 42.87     645.00
 42.97     639.36
 43.07     584.00
 43.17     593.63
 43.27     565.00
 43.37     586.00
 43.47     569.00
 43.57     526.90
 43.67     540.00
 43.77     565.00
 43.87     548.97
 43.97     591.00
 44.07     597.00
 44.17     507.76
 44.27     585.91
 44.37     521.77
 44.47     530.00
 44.57     595.05
 44.67     593.00
 44.77     565.00
 44.87     547.00
 44.97     536.00
 45.07     569.00
 45.17     532.23
 45.27     524.00
 45.37     571.00
 45.47     539.00
 45.57     537.04
 45.67     541.25
 45.77     575.00
 45.87     526.00
 45.97     550.00
 46.07     537.00
 46.17     570.00
 46.27     538.00
 46.37     520.00
 46.47     596.00
 46.57     579.00
 46.67     503.18
 46.77     581.00
 46.87     535.00
 46.97     546.00
 47.07     547.00
 47.17     582.00
 47.27     549.00
 47.37     631.00
 47.47     560.09
 47.57     561.67
 47.67     598.00
 47.77     542.20
 47.87     580.00
 47.97     658.00
 48.07     681.00
 48.17     615.00
 48.27     608.02
 48.37     585.00
 48.47     596.52
 48.57     608.00
 48.67     566.11
 48.77     615.68
 48.87     587.00
 48.97     579.71
 49.07     607.00
 49.17     607.41
 49.27     596.00
 49.37     611.00
 49.47     656.00
 49.57     655.01
 49.67     772.66
 49.77     831.48
 49.87     922.21
 49.97    1098.00
 50.07    1428.00
 50.17    1786.00
 50.27    2179.00
 50.37    2339.80
 50.47    2551.00
 50.57    2245.00
 50.67    1985.00
 50.77    1586.00
 50.87    1312.00
 50.97    1037.00
 51.07     866.00
 51.17     796.00
 51.27     745.00
 51.37     674.38
 51.47     708.87
 51.57     634.00
 51.67     652.00
 51.77     672.10
 51.87     617.66
 51.97     645.00
 52.07     555.00
 52.17     577.21
 52.27     635.00
 52.37     622.00
 52.47     562.93
 52.57     605.00
 52.67     639.46
 52.77     615.96
 52.87     620.22
 52.97     585.00
 53.07     682.35
 53.17     705.00
 53.27     763.00
 53.37     870.00
 53.47     974.00
 53.57    1048.32
 53.67    1187.00
 53.77    1219.65
 53.87    1301.98
 53.97    1116.00
 54.07    1058.00
 54.17     992.18
 54.27     821.25
 54.37     782.00
 54.47     738.26
 54.57     632.00
 54.67     632.70
 54.77     634.00
 54.87     617.00
 54.97     601.53
 55.07     603.00
 55.17     629.00
 55.27     582.00
 55.37     609.00
 55.47     591.13
 55.57     606.00
 55.67     641.00
 55.77     592.05
 55.87     657.00
 55.97     698.56
 56.07     733.00
 56.17     725.00
 56.27     754.90
 56.37     875.00
 56.47     972.10
 56.57    1078.00
 56.67    1337.00
 56.77    1662.54
 56.87    1937.00
 56.97    2282.00
 57.07    2572.00
 57.17    2642.48
 57.27    2499.06
 57.37    2305.00
 57.47    1896.00
 57.57    1592.00
 57.67    1357.00
 57.77    1041.00
 57.87     923.00
 57.97     874.52
 58.07     788.00
 58.17     776.00
 58.27     762.00
 58.37     757.00
 58.47     757.00
 58.57     804.00
 58.67     872.90
 58.77     982.00
 58.87    1004.00
 58.97    1140.60
 59.07    1191.59
 59.17    1180.00
 59.27    1288.00
 59.37    1349.00
 59.47    1239.83
 59.57    1238.00
 59.67    1198.00
 59.77    1270.00
 59.87    1193.00
 59.97    1198.98
 60.07    1203.83
 60.17    1278.73
 60.27    1392.07
 60.37    1530.00
 60.47    1558.00
 60.57    1500.00
 60.67    1628.00
 60.77    1382.00
 60.87    1263.00
 60.97    1133.00
 61.07     914.61
 61.17     892.00
 61.27     788.81
 61.37     747.00
 61.47     770.00
 61.57     700.95
 61.67     790.22
 61.77     766.00
 61.87     820.00
 61.97     897.56
 62.07    1061.00
 62.17    1137.00
 62.27    1280.56
 62.37    1325.00
 62.47    1376.00
 62.57    1323.00
 62.67    1276.00
 62.77    1213.46
 62.87    1059.47
 62.97     956.00
 63.07     843.36
 63.17     773.00
 63.27     681.05
 63.37     732.00
 63.47     649.00
 63.57     643.00
 63.67     633.00
 63.77     666.93
 63.87     669.86
 63.97     684.00
 64.07     675.00
 64.17     643.72
 64.27     691.00
 64.37     791.00
 64.47     878.00
 64.57     850.78
 64.67     959.00
 64.77    1055.00
 64.87    1098.58
 64.97    1157.00
 65.07    1106.00
 65.17    1084.00
 65.27    1116.00
 65.37     930.18
 65.47     913.00
 65.57     858.54
 65.67     839.30
 65.77     759.00
 65.87     684.00
 65.97     629.00
 66.07     694.00
 66.17     661.00
 66.27     609.00
 66.37     602.54
 66.47     684.00
 66.57     642.49
 66.67     585.00
 66.77     572.00
 66.87     620.44
 66.97     586.12
 67.07     634.00
 67.17     664.90
 67.27     712.00
 67.37     787.29
 67.47     803.00
 67.57     896.84
 67.67     952.00
 67.77    1119.00
 67.87    1330.00
 67.97    1478.41
 68.07    1785.00
 68.17    1980.53
 68.27    2192.24
 68.37    2435.00
 68.47    2328.00
 68.57    2436.78
 68.67    2156.64
 68.77    1928.00
 68.87    1775.00
 68.97    1482.00
 69.07    1347.52
 69.17    1111.44
 69.27     925.86
 69.37     834.00
 69.47     775.54
 69.57     700.95
 69.67     635.00
 69.77     675.00
 69.87     683.56
 69.97     651.00
 70.07     619.00
 70.17     606.00
 70.27     603.00
 70.37     624.00
 70.47     680.00
 70.57     661.00
 70.67     643.93
 70.77     605.00
 70.87     654.00
 70.97     642.06
 71.07     636.00
 71.17     641.00
 71.27     665.78
 71.37     684.70
 71.47     811.00
 71.57     892.85
 71.67     909.13
 71.77    1107.00
 71.87    1203.00
 71.97    1397.00
 72.07    1555.98
 72.17    1752.00
 72.27    1843.33
 72.37    1887.00
 72.47    1848.41
 72.57    1827.00
 72.67    1710.00
 72.77    1558.00
 72.87    1363.00
 72.97    1247.00
 73.07    1097.00
 73.17     896.85
 73.27     863.00
 73.37     786.00
 73.47     748.00
 73.57     773.00
 73.67     716.00
 73.77     672.00
 73.87     595.88
 73.97     653.00
 74.07     624.00
 74.17     646.00
 74.27     571.21
 74.37     559.00
 74.47     594.00
 74.57     636.00
 74.67     622.00
 74.77     642.00
 74.87     563.54
 74.97     669.00
 75.07     689.00
 75.17     609.37
 75.27     670.00
 75.37     721.00
 75.47     648.43
 75.57     562.48
 75.67     547.91
 75.77     554.99
 75.87     655.00
 75.97     632.00
 76.07     601.00
 76.17     628.00
 76.27     667.25
 76.37     659.00
 76.47     692.00
 76.57     700.85
 76.67     746.00
 76.77     710.60
 76.87     740.01
 76.97     793.00
 77.07     723.00
 77.17     744.12
 77.27     698.00
 77.37     680.00
 77.47     670.86
 77.57     693.00
 77.67     650.00
 77.77     594.12
 77.87     657.78
 77.97     600.00
 78.07     586.00
 78.17     563.00
 78.27     610.88
 78.37     516.26
 78.47     562.00
 78.57     525.01
 78.67     565.00
 78.77     512.69
 78.87     584.00
 78.97     527.00
 79.07     552.00
 79.17     575.77
 79.27     536.81
 79.37     611.15
 79.47     577.00
 79.57     586.49
 79.67     592.00
 79.77     589.07
 79.87     529.00
 79.97     558.93
 80.07     579.00
 80.17     599.00
 80.27     596.00
 80.37     616.00
 80.47     661.58
 80.57     609.00
 80.67     595.52
 80.77     634.00
 80.87     671.74
 80.97     761.10
 81.07     741.00
 81.17     758.84
 81.27     839.03
 81.37     799.00
 81.47     796.00
 81.57     832.00
 81.67     866.31
 81.77     898.00
 81.87     820.00
 81.97     794.14
 82.07     821.37
 82.17     820.00
 82.27     773.00
 82.37     762.00
 82.47     754.00
 82.57     734.26
 82.67     705.00
 82.77     693.00
 82.87     676.00
 82.97     612.00
 83.07     622.59
 83.17     618.00
 83.27     648.46
 83.37     585.00
 83.47     575.00
 83.57     607.00
 83.67     584.00
 83.77     553.00
 83.87     569.37
 83.97     560.26
 84.07     596.00
 84.17     563.39
 84.27     634.68
 84.37     593.00
 84.47     571.00
 84.57     598.00
 84.67     581.00
 84.77     575.00
 84.87     622.51
 84.97     636.17
 85.07     595.00
 85.17     533.75
 85.27     570.00
 85.37     560.00
 85.47     577.00
 85.57     570.00
 85.67     565.00
 85.77     575.00
 85.87     590.00
 85.97     587.00
 86.07     556.00
 86.17     578.00
 86.27     571.00
 86.37     561.00
 86.47     593.00
 86.57     524.00
 86.67     567.00
 86.77     603.00
 86.87     541.00
 86.97     561.00
 87.07     582.18
 87.17     583.10
 87.27     655.00
 87.37     598.17
 87.47     626.00
 87.57     601.38
 87.67     673.00
 87.77     661.00
 87.87     730.00
 87.97     674.32
 88.07     679.00
 88.17     700.00
 88.27     642.00
 88.37     664.00
 88.47     672.00
 88.57     633.00
 88.67     596.00
 88.77     636.95
 88.87     608.00
 88.97     621.00
 89.07     583.00
 89.17     614.47
 89.27     619.00
 89.37     610.00
 89.47     663.00
 89.57     553.00
 89.67     606.00
 89.77     674.22
 89.87     592.47
 89.97     633.00
 90.07     596.00
 90.17     602.00
 90.27     655.45
 90.37     571.00
 90.47     584.50
 90.57     596.71
 90.67     552.50
 90.77     525.96
 90.87     519.69
 90.97     546.00
 91.07     599.70
 91.17     547.00
 91.27     560.00
 91.37     512.00
 91.47     553.51
 91.57     561.48
 91.67     505.83
 91.77     570.00
 91.87     561.00
 91.97     526.64
 92.07     555.00
 92.17     514.00
 92.27     560.00
 92.37     597.00
 92.47     568.65
 92.57     537.90
 92.67     561.00
 92.77     617.34
 92.87     639.00
 92.97     617.00
 93.07     630.84
 93.17     654.00
 93.27     708.45
 93.37     673.17
 93.47     717.00
 93.57     711.00
 93.67     767.00
 93.77     751.00
 93.87     754.34
 93.97     841.00
 94.07     761.14
 94.17     867.00
 94.27     800.78
 94.37     845.00
 94.47     858.00
 94.57     909.00
 94.67     898.00
 94.77     887.00
 94.87     864.75
 94.97     927.00
 95.07     876.05
 95.17     889.95
 95.27     865.00
 95.37     950.00
 95.47     924.00
 95.57     957.54
 95.67     901.00
 95.77     942.00
 95.87     900.00
 95.97     771.66
 96.07     734.18
 96.17     744.00
 96.27     768.00
 96.37     751.00
 96.47     732.00
 96.57     779.15
 96.67     815.03
 96.77     837.00
 96.87     784.00
 96.97     902.00
 97.07     906.13
 97.17     900.51
 97.27    1023.35
 97.37    1162.00
 97.47    1151.00
 97.57    1294.37
 97.67    1312.00
 97.77    1305.70
 97.87    1413.00
 97.97    1465.00
 98.07    1481.15
 98.17    1444.91
 98.27    1465.60
 98.37    1416.80
 98.47    1417.00
 98.57    1361.53
 98.67    1321.00
 98.77    1241.02
 98.87    1123.00
 98.97    1053.00
 99.07    1013.00
 99.17     996.00
 99.27     920.00
 99.37     950.29
 99.47     959.00
 99.57     981.22
 99.67     968.00
 99.77     919.53
 99.87    1064.36
 99.97    1038.00
100.07    1148.59
100.17    1228.76
100.27    1291.00
100.37    1277.32
100.47    1472.00
100.57    1644.00
100.67    1635.00
100.77    1657.67
100.87    1855.00
100.97    1848.21
101.07    1899.00
101.17    2065.00
101.27    1952.00
101.37    1957.00
101.47    2076.85
101.57    2009.00
101.67    1954.00
101.77    1971.25
101.87    1847.73
101.97    1773.00
102.07    1690.00
102.17    1660.00
102.27    1519.00
102.37    1399.00
102.47    1372.00
102.57    1341.00
102.67    1255.00
102.77    1240.00
102.87    1327.06
102.97    1215.50
103.07    1189.00
103.17    1137.93
103.27    1157.00
103.37    1054.00
103.47    1158.47
103.57    1031.29
103.67     989.85
103.77     986.93
103.87     981.26
103.97     897.00
104.07     859.00
104.17     854.93
104.27     850.00
104.37     773.36
104.47     744.00
104.57     694.00
104.67     617.75
104.77     647.00
104.87     701.00
104.97     644.00
105.07     587.00
105.17     647.00
105.27     619.00
105.37     580.00
105.47     602.00
105.57     574.00
105.67     586.00
105.77     556.00
105.87     530.00
105.97     570.68
106.07     520.00
106.17     584.73
106.27     576.00
106.37     604.00
106.47     602.00
106.57     631.45
106.67     587.77
106.77     576.12
106.87     664.00
106.97     571.60
107.07     632.82
107.17     656.00
107.27     628.00
107.37     618.00
107.47     698.00
107.57     725.00
107.67     738.00
107.77     752.74
107.87     694.00
107.97     710.00
108.07     719.00
108.17     692.58
108.27     729.72
108.37     688.00
108.47     752.00
108.57     728.67
108.67     692.00
108.77     684.00
108.87     672.72
108.97     751.45
109.07     705.00
109.17     717.00
109.27     701.75
109.37     725.57
109.47     758.59
109.57     699.00
109.67     671.86
109.77     677.07
109.87     758.00
109.97     653.00
110.07     686.00
110.17     675.00
110.27     700.00
110.37     717.33
110.47     665.00
110.57     678.00
110.67     663.00
110.77     667.00
110.87     639.00
110.97     576.00
111.07     605.00
111.17     624.32
111.27     570.00
111.37     523.19
111.47     588.00
111.57     534.00
111.67     556.81
111.77     611.00
111.87     601.00
111.97     556.00
112.07     556.00
112.17     557.00
112.27     520.41
112.37     534.36
112.47     580.29
112.57     567.00
112.67     583.00
112.77     561.00
112.87     592.54
112.97     597.00
113.07     532.00
113.17     615.25
113.27     566.00
113.37     574.00
113.47     598.00
113.57     617.00
113.67     581.00
113.77     574.00
113.87     640.81
113.97     606.00
114.07     638.10
114.17     684.42
114.27     722.79
114.37     674.93
114.47     713.00
114.57     799.00
114.67     812.00
114.77     916.00
114.87     878.51
114.97     999.00
115.07    1062.87
115.17    1190.00
115.27    1256.47
115.37    1509.00
115.47    1687.00
115.57    1822.20
115.67    2056.95
115.77    2336.05
115.87    2631.00
115.97    3011.00
116.07    3283.00
116.17    3516.00
116.27    3964.25
116.37    4263.80
116.47    4678.29
116.57    4884.00
116.67    5262.00
116.77    5688.01
116.87    6033.00
116.97    6456.00
117.07    6852.00
117.17    6812.14
117.27    7061.08
117.37    7221.00
117.47    7278.00
117.57    7043.11
117.67    7007.29
117.77    6811.00
117.87    6721.08
117.97    6138.00
118.07    5798.00
118.17    5678.06
118.27    5317.67
118.37    4757.00
118.47    4551.00
118.57    4215.08
118.67    3748.00
118.77    3541.00
118.87    3212.28
118.97    2795.00
119.07    2471.00
119.17    2381.78
119.27    1993.85
119.37    1849.00
119.47    1738.00
119.57    1468.60
119.67    1370.00
119.77    1304.00
119.87    1213.00
119.97    1191.00
120.07     972.00
120.17     952.33
120.27     866.00
120.37     863.00
120.47     886.00
120.57     779.00
120.67     816.00
120.77     724.00
120.87     687.07
120.97     678.21
121.07     691.00
121.17     655.00
121.27     626.00
121.37     670.18
121.47     703.33
121.57     591.00
121.67     620.00
121.77     663.00
121.87     604.18
121.97     601.00
122.07     653.70
122.17     602.80
122.27     598.00
122.37     624.00
122.47     660.62
122.57     606.38
122.67     622.00
122.77     618.64
122.87     676.00
122.97     599.00
123.07     688.00
123.17     676.00
123.27     667.00
123.37     668.00
123.47     620.87
123.57     686.00
123.67     673.00
123.77     680.00
123.87     690.00
123.97     674.00
124.07     654.00
124.17     685.00
124.27     618.00
124.37     631.00
124.47     664.54
124.57     674.76
124.67     631.00
124.77     633.85
124.87     629.35
124.97     647.00
