  9.97     619.11
 10.07     688.22
 10.17     653.14
 10.27     677.00
 10.37     625.49
 10.47     699.00
 10.57     640.07
 10.67     708.62
 10.77     657.94
 10.87     660.00
 10.97     710.00
 11.07     616.17
 11.17     709.68
 11.27     672.93
 11.37     722.00
 11.47     613.30
 11.57     690.00
 11.67     732.00
 11.77     726.38
 11.87     634.01
 11.97     813.00
 12.07     677.60
 12.17     696.88
 12.27     786.00
 12.37     812.00
 12.47     726.00
 12.57     713.00
 12.67     717.00
 12.77     686.00
 12.87     610.54
 12.97     650.00
 13.07     634.00
 13.17     690.65
 13.27     663.60
 13.37     645.00
 13.47     588.00
 13.57     650.00
 13.67     599.00
 13.77     656.00
 13.87     654.00
 13.97     668.30
 14.07     637.00
 14.17     637.00
 14.27     603.05
 14.37     621.00
 14.47     648.91
 14.57     600.00
 14.67     596.07
 14.77     591.00
 14.87     630.01
 14.97     598.00
 15.07     600.00
 15.17     622.00
 15.27     591.00
 15.37     638.49
 15.47     635.00
 15.57     592.00
 15.67     669.07
 15.77     617.00
 15.87     600.00
 15.97     614.00
 16.07     607.00
 16.17     616.73
 16.27     595.10
 16.37     657.81
 16.47     634.31
 16.57     628.00
 16.67     616.00
 16.77     595.00
 16.87     581.00
 16.97     610.00
 17.07     612.85
 17.17     673.89
 17.27     659.18
 17.37     575.00
 17.47     604.00
 17.57     646.00
 17.67     619.00
 17.77     583.00
 17.87     583.00
 17.97     615.00
 18.07     606.10
 18.17     592.00
 18.27     595.88
 18.37     614.16
 18.47     574.00
 18.57     606.00
 18.67     592.00
 18.77     580.00
 18.87     641.59
 18.97     561.00
 19.07     569.00
 19.17     617.94
 19.27     583.00
 19.37     604.00
 19.47     608.00
 19.57     618.00
 19.67     633.00
 19.77     618.00
 19.87     583.00
 19.97     591.18
 20.07     654.70
 20.17     650.00
 20.27     646.00
 20.37     599.00
 20.47     610.00
 20.57     586.00
 20.67     604.00
 20.77     606.00
 20.87     626.00
 20.97     624.44
 21.07     603.00
 21.17     649.16
 21.27     578.00
 21.37     654.44
 21.47     578.21
 21.57     606.00
 21.67     621.07
 21.77     579.00
 21.87     599.00
 21.97     578.00
 22.07     585.00
 22.17     563.40
 22.27     545.00
 22.37     613.00
 22.47     613.00
 22.57     560.00
 22.67     616.00
 22.77     603.11
 22.87     586.00
 22.97     617.00
 23.07     613.00
 23.17     568.00
 23.27     599.00
 23.37     615.00
 23.47     595.81
 23.57     625.77
 23.67     640.00
 23.77     622.00
 23.87     635.15
 23.97     623.00
 24.07     575.00
 24.17     622.00
 24.27     589.00
 24.37     611.00
 24.47     659.31
 24.57     649.00
 24.67     580.50
 24.77     662.00
 24.87     710.00
 24.97     698.00
 25.07     668.00
 25.17     665.00
 25.27     656.00
 25.37     611.68
 25.47     627.42
 25.57     618.00
 25.67     553.14
 25.77     599.00
 25.87     588.97
 25.97     645.00
 26.07     620.00
 26.17     637.00
 26.27     631.61
 26.37     582.00
 26.47     630.00
 26.57     613.00
 26.67     674.00
 26.77     655.00
 26.87     654.77
 26.97     637.64
 27.07     683.00
 27.17     669.00
 27.27     696.63
 27.37     617.48
 27.47     722.00
 27.57     739.00
 27.67     776.30
 27.77     796.00
 27.87     884.32
 27.97    1162.00
 28.07    1635.00
 28.17    2540.00
 28.27    3755.00
 28.37    4537.42
 28.47    4650.00
 28.57    3856.10
 28.67    2878.62
 28.77    2242.00
 28.87    2177.00
 28.97    2408.00
 29.07    2779.00
 29.17    2679.00
 29.27    2251.01
 29.37    1686.44
 29.47    1320.00
 29.57     993.00
 29.67     908.00
 29.77     780.18
 29.87     802.00
 29.97     730.00
 30.07     764.00
 30.17     691.11
 30.27     638.88
 30.37     718.00
 30.47     661.00
 30.57     636.00
 30.67     670.00
 30.77     702.00
 30.87     708.00
 30.97     676.81
 31.07     653.89
 31.17     753.00
 31.27     696.00
 31.37     627.00
 31.47     664.00
 31.57     571.12
 31.67     626.00
 31.77     640.00
 31.87     597.00
 31.97     618.72
 32.07     534.01
 32.17     616.00
 32.27     606.08
 32.37     575.00
 32.47     618.00
 32.57     606.00
 32.67     618.00
 32.77     627.30
 32.87     605.00
 32.97     582.00
 33.07     590.00
 33.17     637.60
 33.27     587.00
 33.37     565.22
 33.47     607.80
 33.57     572.09
 33.67     662.99
 33.77     683.00
 33.87     761.73
 33.97     861.00
 34.07     899.17
 34.17    1061.00
 34.27    1161.00
 34.37    1062.00
 34.47     964.00
 34.57     821.00
 34.67     748.26
 34.77     730.00
 34.87     656.87
 34.97     653.16
 35.07     646.00
 35.17     580.00
 35.27     628.98
 35.37     605.00
 35.47     546.79
 35.57     577.39
 35.67     585.00
 35.77     568.00
 35.87     528.36
 35.97     558.54
 36.07     587.00
 36.17     548.00
 36.27     559.00
 36.37     555.00
 36.47     512.00
 36.57     597.30
 36.67     553.77
 36.77     524.22
 36.87     570.56
 36.97     596.00
 37.07     566.00
 37.17     599.00
 37.27     546.00
 37.37     544.00
 37.47     543.58
 37.57     554.00
 37.67     586.00
 37.77     599.80
 37.87     618.00
 37.97     632.00
 38.07     632.78
 38.17     637.03
 38.27     659.00
 38.37     654.38
 38.47     617.00
 38.57     576.00
 38.67     617.43
 38.77     580.44
 38.87     547.00
 38.97     532.00
 39.07     551.00
 39.17     510.06
 39.27     579.60
 39.37     557.32
 39.47     547.00
 39.57     543.00
 39.67     567.00
 39.77     501.00
 39.87     561.00
 39.97     502.90
 40.07     541.00
 40.17     536.00
 40.27     519.00
 40.37     555.00
 40.47     550.00
 40.57     511.62
 40.67     516.00
 40.77     576.45
 40.87     509.00
 40.97     596.79
 41.07     551.00
 41.17     589.00
 41.27     509.00
 41.37     549.00
 41.47     508.00
 41.57     567.00
 41.67     537.87
 41.77     572.00
 41.87     516.90
 41.97     549.00
 42.07     523.00
 42.17     515.00
 42.27     565.00
 42.37     540.00
 42.47     615.92
 42.57     620.33
 42.67     594.00
 42.77     650.26
 42.87     689.16
 42.97     635.00
 43.07     646.00
 43.17     606.00
 43.27     641.00
 43.37     546.00
 43.47     550.02
 43.57     554.37
 43.67     597.72
 43.77     599.71
 43.87     569.00
 43.97     521.88
 44.07     524.49
 44.17     562.00
 44.27     547.29
 44.37     569.00
 44.47     545.00
 44.57     526.00
 44.67     553.00
 44.77     560.00
 44.87     550.00
 44.97     510.95
 45.07     565.00
 45.17     535.89
 45.27     524.86
 45.37     550.85
 45.47     494.00
 45.57     544.00
 45.67     507.00
 45.77     533.00
 45.87     545.00
 45.97     597.00
 46.07     576.20
 46.17     551.00
 46.27     544.00
 46.37     518.00
 46.47     496.00
 46.57     559.00
 46.67     523.29
 46.77     569.00
 46.87     531.00
 46.97     528.00
 47.07     591.36
 47.17     560.00
 47.27     572.00
 47.37     514.72
 47.47     558.00
 47.57     566.98
 47.67     592.00
 47.77     623.12
 47.87     617.00
 47.97     591.34
 48.07     669.00
 48.17     612.00
 48.27     634.06
 48.37     659.00
 48.47     610.00
 48.57     637.96
 48.67     594.00
 48.77     584.86
 48.87     561.22
 48.97     588.12
 49.07     569.00
 49.17     563.83
 49.27     602.00
 49.37     660.77
 49.47     658.25
 49.57     644.00
 49.67     658.00
 49.77     727.36
 49.87     867.00
 49.97    1105.69
 50.07    1427.00
 50.17    1784.00
 50.27    2201.00
 50.37    2581.00
 50.47    2771.00
 50.57    2812.10
 50.67    2355.00
 50.77    2017.96
 50.87    1522.68
 50.97    1297.38
 51.07     970.00
 51.17     903.92
 51.27     750.55
 51.37     712.00
 51.47     646.17
 51.57     717.47
 51.67     679.00
 51.77     680.00
 51.87     648.00
 51.97     637.00
 52.07     631.00
 52.17     585.00
 52.27     695.00
 52.37     618.00
 52.47     638.00
 52.57     665.00
 52.67     613.00
 52.77     625.00
 52.87     628.00
 52.97     635.00
 53.07     636.83
 53.17     733.27
 53.27     790.00
 53.37     807.57
 53.47     917.00
 53.57    1023.18
 53.67    1186.00
 53.77    1237.52
 53.87    1222.48
 53.97    1273.59
 54.07    1171.00
 54.17    1075.00
 54.27     970.53
 54.37     812.00
 54.47     772.00
 54.57     710.00
 54.67     672.00
 54.77     676.47
 54.87     684.00
 54.97     615.00
 55.07     615.00
 55.17     576.31
 55.27     612.05
 55.37     661.00
 55.47     632.50
 55.57     579.39
 55.67     651.00
 55.77     645.00
 55.87     624.00
 55.97     663.00
 56.07     634.31
 56.17     729.07
 56.27     723.87
 56.37     818.18
 56.47     900.00
 56.57    1033.00
 56.67    1269.19
 56.77    1507.00
 56.87    1907.64
 56.97    2278.00
 57.07    2319.66
 57.17    2584.00
 57.27    2688.23
 57.37    2517.00
 57.47    2266.00
 57.57    1886.77
 57.67    1644.89
 57.77    1241.00
 57.87    1029.00
 57.97     880.00
 58.07     852.00
 58.17     802.00
 58.27     761.00
 58.37     814.67
 58.47     814.22
 58.57     794.00
 58.67     829.96
 58.77     952.00
 58.87    1015.00
 58.97    1125.00
 59.07    1139.73
 59.17    1258.00
 59.27    1206.18
 59.37    1247.00
 59.47    1340.00
 59.57    1204.31
 59.67    1234.68
 59.77    1191.13
 59.87    1173.00
 59.97    1150.98
 60.07    1261.00
 60.17    1284.23
 60.27    1313.62
 60.37    1430.09
 60.47    1566.10
 60.57    1526.00
 60.67    1470.86
 60.77    1489.00
 60.87    1376.00
 60.97    1196.00
 61.07    1030.00
 61.17     994.00
 61.27     905.60
 61.37     792.00
 61.47     754.81
 61.57     798.61
 61.67     803.00
 61.77     817.00
 61.87     880.00
 61.97     982.43
 62.07    1105.00
 62.17    1139.00
 62.27    1314.00
 62.37    1372.00
 62.47    1496.00
 62.57    1490.33
 62.67    1462.00
 62.77    1457.81
 62.87    1208.00
 62.97    1087.00
 63.07     977.00
 63.17     850.00
 63.27     772.00
 63.37     707.00
 63.47     743.02
 63.57     632.00
 63.67     649.00
 63.77     653.00
 63.87     700.00
 63.97     607.15
 64.07     652.00
 64.17     663.02
 64.27     725.00
 64.37     814.37
 64.47     812.15
 64.57    1003.00
 64.67    1050.00
 64.77    1117.00
 64.87    1257.00
 64.97    1218.63
 65.07    1240.00
 65.17    1329.00
 65.27    1208.73
 65.37    1222.00
 65.47    1024.96
 65.57     970.00
 65.67     891.00
 65.77     828.51
 65.87     799.00
 65.97     699.00
 66.07     692.63
 66.17     678.00
 66.27     664.00
 66.37     628.00
 66.47     618.02
 66.57     604.00
 66.67     608.00
 66.77     647.88
 66.87     672.09
 66.97     696.00
 67.07     626.00
 67.17     711.99
 67.27     689.50
 67.37     721.00
 67.47     823.00
 67.57     791.37
 67.67     951.66
 67.77    1064.00
 67.87    1193.00
 67.97    1391.00
 68.07    1581.00
 68.17    1887.00
 68.27    2120.00
 68.37    2266.72
 68.47    2449.67
 68.57    2427.00
 68.67    2414.00
 68.77    2236.00
 68.87    1933.00
 68.97    1745.00
 69.07    1519.97
 69.17    1237.00
 69.27    1140.00
 69.37     931.00
 69.47     843.00
 69.57     827.00
 69.67     743.00
 69.77     729.42
 69.87     721.00
 69.97     626.22
 70.07     683.00
 70.17     618.00
 70.27     651.00
 70.37     651.00
 70.47     629.07
 70.57     615.20
 70.67     693.00
 70.77     629.00
 70.87     653.98
 70.97     698.43
 71.07     704.50
 71.17     711.29
 71.27     694.65
 71.37     751.60
 71.47     750.00
 71.57     846.20
 71.67     972.36
 71.77     997.00
 71.87    1177.00
 71.97    1283.00
 72.07    1508.00
 72.17    1661.00
 72.27    1738.29
 72.37    1858.00
 72.47    1947.71
 72.57    1875.00
 72.67    1775.00
 72.77    1796.00
 72.87    1501.55
 72.97    1385.00
 73.07    1261.48
 73.17    1123.00
 73.27     979.00
 73.37     912.74
 73.47     822.00
 73.57     765.43
 73.67     717.00
 73.77     687.00
 73.87     603.82
 73.97     596.11
 74.07     594.00
 74.17     636.00
 74.27     602.00
 74.37     655.29
 74.47     635.00
 74.57     684.00
 74.67     574.94
 74.77     630.00
 74.87     591.22
 74.97     692.00
 75.07     592.81
 75.17     660.00
 75.27     585.01
 75.37     676.48
 75.47     684.00
 75.57     673.41
 75.67     625.16
 75.77     606.00
 75.87     612.31
 75.97     569.72
 76.07     623.57
 76.17     706.00
 76.27     668.00
 76.37     626.93
 76.47     665.24
 76.57     708.00
 76.67     812.00
 76.77     811.00
 76.87     821.00
 76.97     868.00
 77.07     854.00
 77.17     817.86
 77.27     782.06
 77.37     835.70
 77.47     777.00
 77.57     768.74
 77.67     713.00
 77.77     672.00
 77.87     628.00
 77.97     624.20
 78.07     581.00
 78.17     615.00
 78.27     592.00
 78.37     548.29
 78.47     563.00
 78.57     574.00
 78.67     589.72
 78.77     585.43
 78.87     594.00
 78.97     564.00
 79.07     623.58
 79.17     562.00
 79.27     563.00
 79.37     531.26
 79.47     542.00
 79.57     574.00
 79.67     574.00
 79.77     563.00
 79.87     559.96
 79.97     591.94
 80.07     559.00
 80.17     604.00
 80.27     632.48
 80.37     587.00
 80.47     616.82
 80.57     605.30
 80.67     651.97
 80.77     671.87
 80.87     732.13
 80.97     741.99
 81.07     907.69
 81.17     921.43
 81.27     926.94
 81.37     948.34
 81.47    1016.19
 81.57    1074.00
 81.67    1046.44
 81.77    1006.62
 81.87    1047.00
 81.97    1100.00
 82.07     968.79
 82.17     995.68
 82.27     922.00
 82.37     905.00
 82.47     813.00
 82.57     780.00
 82.67     773.00
 82.77     748.23
 82.87     736.14
 82.97     678.00
 83.07     720.80
 83.17     627.46
 83.27     639.81
 83.37     603.00
 83.47     650.00
 83.57     626.32
 83.67     584.00
 83.77     577.00
 83.87     557.00
 83.97     572.00
 84.07     581.00
 84.17     605.00
 84.27     582.39
 84.37     579.00
 84.47     588.00
 84.57     624.00
 84.67     590.00
 84.77     612.00
 84.87     604.29
 84.97     599.00
 85.07     622.00
 85.17     623.79
 85.27     603.00
 85.37     595.00
 85.47     576.00
 85.57     530.00
 85.67     582.03
 85.77     569.63
 85.87     581.00
 85.97     553.00
 86.07     535.21
 86.17     593.00
 86.27     559.00
 86.37     589.00
 86.47     600.03
 86.57     546.00
 86.67     580.00
 86.77     661.00
 86.87     604.00
 86.97     658.00
 87.07     601.71
 87.17     651.03
 87.27     648.00
 87.37     647.44
 87.47     649.00
 87.57     632.89
 87.67     656.87
 87.77     670.57
 87.87     673.00
 87.97     633.00
 88.07     638.91
 88.17     656.00
 88.27     680.68
 88.37     651.00
 88.47     659.00
 88.57     628.00
 88.67     622.00
 88.77     649.00
 88.87     576.31
 88.97     583.00
 89.07     593.00
 89.17     595.97
 89.27     600.00
 89.37     611.10
 89.47     606.00
 89.57     590.00
 89.67     619.00
 89.77     585.00
 89.87     654.00
 89.97     652.00
 90.07     602.00
 90.17     643.00
 90.27     600.00
 90.37     610.00
 90.47     618.00
 90.57     625.00
 90.67     588.00
 90.77     584.88
 90.87     589.00
 90.97     581.62
 91.07     604.00
 91.17     555.00
 91.27     536.00
 91.37     575.00
 91.47     558.00
 91.57     579.13
 91.67     544.00
 91.77     579.00
 91.87     542.00
 91.97     580.00
 92.07     522.88
 92.17     567.00
 92.27     614.02
 92.37     596.25
 92.47     545.00
 92.57     560.00
 92.67     595.00
 92.77     616.39
 92.87     598.00
 92.97     609.00
 93.07     677.00
 93.17     652.00
 93.27     700.24
 93.37     720.58
 93.47     756.00
 93.57     689.00
 93.67     778.50
 93.77     766.00
 93.87     728.00
 93.97     761.02
 94.07     818.00
 94.17     780.91
 94.27     810.42
 94.37     908.62
 94.47     828.47
 94.57     927.41
 94.67     941.00
 94.77     929.62
 94.87     898.00
 94.97     925.00
 95.07     971.00
 95.17    1028.63
 95.27     944.59
 95.37     989.22
 95.47    1013.79
 95.57     978.00
 95.67     953.00
 95.77     904.00
 95.87     943.00
 95.97     874.00
 96.07     843.00
 96.17     854.00
 96.27     819.00
 96.37     826.00
 96.47     702.00
 96.57     749.54
 96.67     754.00
 96.77     738.70
 96.87     870.00
 96.97     817.00
 97.07     858.00
 97.17     967.38
 97.27    1001.56
 97.37    1069.00
 97.47    1148.60
 97.57    1186.00
 97.67    1216.09
 97.77    1264.53
 97.87    1390.00
 97.97    1497.00
 98.07    1520.00
 98.17    1578.00
 98.27    1551.00
 98.37    1505.00
 98.47    1481.00
 98.57    1429.00
 98.67    1362.00
 98.77    1322.00
 98.87    1318.59
 98.97    1156.38
 99.07    1160.18
 99.17    1044.00
 99.27    1030.00
 99.37     975.30
 99.47    1013.00
 99.57     897.77
 99.67     930.00
 99.77    1022.00
 99.87    1048.00
 99.97     964.52
100.07    1065.68
100.17    1160.00
100.27    1256.00
100.37    1263.25
100.47    1436.44
100.57    1469.00
100.67    1494.21
100.77    1653.69
100.87    1760.87
100.97    1837.00
101.07    1954.42
101.17    1945.00
101.27    2010.00
101.37    2056.00
101.47    2072.00
101.57    2024.00
101.67    2027.00
101.77    2035.00
101.87    1997.00
101.97    1895.00
102.07    1801.00
102.17    1717.00
102.27    1614.00
102.37    1582.00
102.47    1555.00
102.57    1463.65
102.67    1419.41
102.77    1275.00
102.87    1302.23
102.97    1258.00
103.07    1280.00
103.17    1237.95
103.27    1189.00
103.37    1258.12
103.47    1142.00
103.57    1142.01
103.67    1066.00
103.77    1116.23
103.87    1026.00
103.97    1001.00
104.07     926.00
104.17     863.00
104.27     798.15
104.37     771.32
104.47     737.00
104.57     755.00
104.67     749.00
104.77     665.00
104.87     631.00
104.97     641.00
105.07     690.00
105.17     665.00
105.27     601.00
105.37     590.17
105.47     583.07
105.57     601.00
105.67     581.00
105.77     580.00
105.87     584.00
105.97     576.00
106.07     613.00
106.17     611.61
106.27     620.00
106.37     606.00
106.47     538.01
106.57     627.00
106.67     628.00
106.77     615.00
106.87     631.00
106.97     663.28
107.07     683.00
107.17     682.34
107.27     680.89
107.37     699.00
107.47     709.00
107.57     654.46
107.67     742.00
107.77     684.79
107.87     709.00
107.97     722.00
108.07     742.00
108.17     714.56
108.27     738.00
108.37     776.49
108.47     752.00
108.57     699.56
108.67     687.00
108.77     749.39
108.87     698.29
108.97     695.97
109.07     715.00
109.17     751.00
109.27     691.00
109.37     710.00
109.47     759.25
109.57     712.00
109.67     764.00
109.77     739.00
109.87     790.38
109.97     699.00
110.07     777.32
110.17     772.69
110.27     766.00
110.37     730.16
110.47     643.00
110.57     674.00
110.67     698.01
110.77     650.00
110.87     690.26
110.97     653.60
111.07     615.00
111.17     589.46
111.27     591.00
111.37     647.00
111.47     545.18
111.57     618.00
111.67     608.00
111.77     618.59
111.87     586.00
111.97     531.42
112.07     639.00
112.17     586.00
112.27     574.80
112.37     577.00
112.47     616.55
112.57     612.00
112.67     572.00
112.77     527.72
112.87     555.00
112.97     572.00
113.07     547.20
113.17     627.00
113.27     567.00
113.37     555.00
113.47     562.00
113.57     610.00
113.67     609.00
113.77     621.00
113.87     628.87
113.97     656.00
114.07     631.50
114.17     641.00
114.27     658.00
114.37     680.53
114.47     665.00
114.57     770.62
114.67     750.00
114.77     789.00
114.87     844.00
114.97     893.67
115.07     937.14
115.17    1035.00
115.27    1171.00
115.37    1315.32
115.47    1443.00
115.57    1524.62
115.67    1642.64
115.77    2037.00
115.87    2259.00
115.97    2462.00
116.07    2795.02
116.17    3088.00
116.27    3325.00
116.37    3637.73
116.47    4101.00
116.57    4430.00
116.67    4851.00
116.77    5234.00
116.87    5805.00
116.97    5813.00
117.07    6289.00
117.17    6621.00
117.27    7090.44
117.37    7090.61
117.47    7117.69
117.57    7266.28
117.67    7308.00
117.77    7370.00
117.87    7032.00
117.97    6966.00
118.07    6775.52
118.17    6315.00
118.27    5826.00
118.37    5475.00
118.47    5270.00
118.57    4764.35
118.67    4544.51
118.77    4202.48
118.87    3753.00
118.97    3509.00
119.07    3079.00
119.17    2865.21
119.27    2434.76
119.37    2290.00
119.47    2033.00
119.57    1900.00
119.67    1699.00
119.77    1522.00
119.87    1447.00
119.97    1273.00
120.07    1201.45
120.17    1134.00
120.27     957.00
120.37     907.00
120.47     930.00
120.57     874.00
120.67     862.00
120.77     771.20
120.87     736.58
120.97     753.00
121.07     747.00
121.17     698.00
121.27     727.00
121.37     654.44
121.47     663.98
121.57     660.00
121.67     635.16
121.77     658.00
121.87     701.49
121.97     650.00
122.07     649.69
122.17     639.56
122.27     651.55
122.37     673.68
122.47     632.00
122.57     692.00
122.67     656.17
122.77     702.00
122.87     655.00
122.97     707.73
123.07     661.25
123.17     700.00
123.27     684.00
123.37     680.00
123.47     704.27
123.57     748.00
123.67     667.14
123.77     742.02
123.87     680.32
123.97     682.54
124.07     756.00
124.17     740.00
124.27     695.00
124.37     740.60
124.47     712.86
124.57     725.00
124.67     703.00
124.77     713.00
124.87     734.00
124.97     681.00
