  9.97     616.00
 10.07     571.00
 10.17     558.94
 10.27     604.00
 10.37     585.00
 10.47     593.00
 10.57     609.00
 10.67     573.00
 10.77     582.00
 10.87     517.25
 10.97     594.15
 11.07     596.00
 11.17     614.00
 11.27     577.00
 11.37     647.00
 11.47     568.00
 11.57     552.00
 11.67     576.00
 11.77     531.30
 11.87     636.00
 11.97     655.07
 12.07     605.76
 12.17     674.00
 12.27     650.00
 12.37     625.00
 12.47     620.00
 12.57     566.00
 12.67     631.49
 12.77     631.00
 12.87     523.00
 12.97     555.00
 13.07     561.01
 13.17     576.00
 13.27     560.00
 13.37     518.00
 13.47     549.21
 13.57     589.00
 13.67     566.00
 13.77     557.00
 13.87     569.18
 13.97     568.00
 14.07     571.00
 14.17     541.00
 14.27     556.00
 14.37     538.67
 14.47     597.91
 14.57     552.37
 14.67     577.84
 14.77     532.00
 14.87     518.00
 14.97     553.34
 15.07     571.55
 15.17     544.77
 15.27     523.32
 15.37     541.00
 15.47     515.06
 15.57     559.00
 15.67     521.00
 15.77     503.00
 15.87     529.41
 15.97     529.00
 16.07     579.00
 16.17     539.00
 16.27     529.00
 16.37     562.54
 16.47     561.00
 16.57     529.00
 16.67     600.00
 16.77     597.66
 16.87     576.00
 16.97     545.00
 17.07     554.67
 17.17     574.62
 17.27     592.05
 17.37     541.00
 17.47     517.00
 17.57     572.00
 17.67     603.36
 17.77     544.00
 17.87     543.42
 17.97     565.70
 18.07     575.17
 18.17     573.00
 18.27     600.30
 18.37     610.31
 18.47     582.97
 18.57     594.87
 18.67     542.00
 18.77     580.00
 18.87     566.00
 18.97     532.00
 19.07     577.00
 19.17     559.91
 19.27     540.00
 19.37     539.00
 19.47     609.66
 19.57     565.00
 19.67     518.19
 19.77     522.10
 19.87     577.00
 19.97     556.01
 20.07     606.52
 20.17     593.51
 20.27     567.00
 20.37     561.00
 20.47     524.17
 20.57     524.00
 20.67     552.76
 20.77     558.00
 20.87     584.11
 20.97     547.00
 21.07     564.00
 21.17     536.08
 21.27     516.00
 21.37     552.00
 21.47     539.00
 21.57     594.68
 21.67     575.00
 21.77     529.00
 21.87     555.00
 21.97     571.00
 22.07     525.05
 22.17     538.00
 22.27     568.00
 22.37     569.71
 22.47     557.23
 22.57     546.77
 22.67     536.00
 22.77     531.00
 22.87     551.03
 22.97     551.00
 23.07     556.00
 23.17     540.00
 23.27     555.59
 23.37     561.00
 23.47     528.00
 23.57     598.00
 23.67     568.00
 23.77     526.00
 23.87     567.00
 23.97     555.00
 24.07     558.40
 24.17     537.74
 24.27     557.00
 24.37     572.00
 24.47     600.00
 24.57     541.97
 24.67     618.61
 24.77     621.00
 24.87     608.02
 24.97     635.00
 25.07     567.45
 25.17     588.02
 25.27     575.00
 25.37     594.00
 25.47     518.99
 25.57     559.09
 25.67     554.54
 25.77     586.28
 25.87     570.00
 25.97     540.00
 26.07     556.77
 26.17     565.00
 26.27     540.35
 26.37     568.00
 26.47     624.00
 26.57     515.75
 26.67     604.00
 26.77     564.00
 26.87     496.00
 26.97     602.00
 27.07     640.00
 27.17     544.00
 27.27     579.00
 27.37     599.00
 27.47     623.00
 27.57     568.00
 27.67     575.00
 27.77     563.00
 27.87     604.00
 27.97     653.83
 28.07     700.45
 28.17     854.00
 28.27     882.48
 28.37     940.00
 28.47     896.00
 28.57     799.00
 28.67     708.00
 28.77     765.00
 28.87     778.00
 28.97     862.01
 29.07     850.73
 29.17     787.00
 29.27     740.93
 29.37     649.12
 29.47     636.00
 29.57     596.00
 29.67     589.33
 29.77     557.35
 29.87     652.00
 29.97     504.99
 30.07     521.56
 30.17     564.00
 30.27     581.00
 30.37     555.00
 30.47     535.23
 30.57     542.00
 30.67     609.00
 30.77     575.38
 30.87     603.00
 30.97     670.00
 31.07     587.00
 31.17     605.00
 31.27     591.00
 31.37     570.56
 31.47     560.00
 31.57     571.00
 31.67     536.00
 31.77     565.00
 31.87     537.00
 31.97     528.00
 32.07     588.00
 32.17     551.00
 32.27     567.00
 32.37     541.00
 32.47     561.35
 32.57     499.00
 32.67     552.00
 32.77     542.00
 32.87     546.00
 32.97     528.00
 33.07     540.00
 33.17     584.00
 33.27     589.00
 33.37     530.16
 33.47     587.90
 33.57     532.14
 33.67     647.98
 33.77     671.45
 33.87     728.00
 33.97     901.00
 34.07     934.00
 34.17     964.00
 34.27     974.00
 34.37     827.00
 34.47     808.49
 34.57     648.00
 34.67     609.39
 34.77     560.91
 34.87     522.00
 34.97     545.00
 35.07     573.41
 35.17     507.00
 35.27     519.00
 35.37     529.61
 35.47     531.23
 35.57     532.00
 35.67     516.00
 35.77     506.00
 35.87     513.00
 35.97     517.00
 36.07     536.35
 36.17     502.38
 36.27     478.00
 36.37     494.00
 36.47     489.00
 36.57     476.00
 36.67     479.00
 36.77     467.00
 36.87     551.85
 36.97     521.00
 37.07     472.00
 37.17     500.00
 37.27     497.70
 37.37     470.20
 37.47     545.00
 37.57     537.32
 37.67     509.64
 37.77     554.13
 37.87     537.00
 37.97     532.59
 38.07     514.00
 38.17     518.59
 38.27     492.00
 38.37     525.00
 38.47     528.66
 38.57     500.00
 38.67     547.97
 38.77     476.31
 38.87     546.00
 38.97     463.00
 39.07     485.75
 39.17     472.00
 39.27     485.00
 39.37     516.00
 39.47     472.00
 39.57     496.47
 39.67     510.12
 39.77     492.00
 39.87     494.00
 39.97     467.26
 40.07     480.00
 40.17     486.00
 40.27     543.59
 40.37     540.28
 40.47     518.00
 40.57     549.00
 40.67     522.27
 40.77     496.00
 40.87     470.00
 40.97     469.00
 41.07     470.00
 41.17     500.41
 41.27     497.00
 41.37     515.00
 41.47     489.90
 41.57     470.35
 41.67     506.20
 41.77     501.00
 41.87     516.00
 41.97     505.31
 42.07     475.02
 42.17     499.00
 42.27     490.00
 42.37     488.00
 42.47     549.00
 42.57     585.27
 42.67     570.00
 42.77     616.97
 42.87     576.00
 42.97     596.00
 43.07     579.47
 43.17     502.00
 43.27     517.48
 43.37     563.96
 43.47     510.00
 43.57     480.00
 43.67     483.00
 43.77     504.00
 43.87     537.56
 43.97     504.00
 44.07     461.00
 44.17     469.00
 44.27     520.00
 44.37     488.69
 44.47     451.24
 44.57     482.00
 44.67     524.00
 44.77     490.00
 44.87     500.00
 44.97     486.00
 45.07     505.00
 45.17     485.00
 45.27     502.00
 45.37     535.00
 45.47     480.66
 45.57     486.00
 45.67     496.02
 45.77     453.00
 45.87     481.32
 45.97     495.00
 46.07     513.00
 46.17     471.00
 46.27     524.00
 46.37     505.00
 46.47     519.00
 46.57     474.00
 46.67     461.05
 46.77     475.15
 46.87     509.00
 46.97     490.00
 47.07     464.00
 47.17     524.30
 47.27     499.00
 47.37     510.39
 47.47     548.00
 47.57     523.00
 47.67     554.00
 47.77     569.77
 47.87     589.00
 47.97     585.29
 48.07     568.00
 48.17     560.00
 48.27     581.00
 48.37     537.00
 48.47     554.00
 48.57     527.31
 48.67     572.72
 48.77     552.00
 48.87     491.96
 48.97     548.00
 49.07     570.00
 49.17     588.00
 49.27     595.99
 49.37     606.27
 49.47     541.47
 49.57     626.00
 49.67     717.00
 49.77     822.74
 49.87    1033.00
 49.97    1312.00
 50.07    1680.00
 50.17    2065.97
 50.27    2363.09
 50.37    2382.00
 50.47    2205.00
 50.57    1898.00
 50.67    1456.00
 50.77    1152.91
 50.87     985.33
 50.97     743.17
 51.07     659.00
 51.17     669.00
 51.27     620.00
 51.37     578.38
 51.47     599.00
 51.57     574.86
 51.67     585.00
 51.77     505.54
 51.87     531.00
 51.97     561.00
 52.07     570.00
 52.17     506.47
 52.27     548.00
 52.37     534.00
 52.47     593.00
 52.57     612.00
 52.67     587.00
 52.77     527.88
 52.87     555.62
 52.97     646.00
 53.07     640.10
 53.17     758.64
 53.27     890.28
 53.37     923.00
 53.47     987.83
 53.57    1173.00
 53.67    1148.00
 53.77    1177.56
 53.87    1083.46
 53.97     993.00
 54.07     830.00
 54.17     774.00
 54.27     694.00
 54.37     665.55
 54.47     631.00
 54.57     566.41
 54.67     566.00
 54.77     525.58
 54.87     561.00
 54.97     592.00
 55.07     579.00
 55.17     544.67
 55.27     538.00
 55.37     544.18
 55.47     562.00
 55.57     526.62
 55.67     630.00
 55.77     579.00
 55.87     604.00
 55.97     616.00
 56.07     659.00
 56.17     700.00
 56.27     748.00
 56.37     896.00
 56.47    1112.22
 56.57    1307.84
 56.67    1571.00
 56.77    1948.00
 56.87    2260.00
 56.97    2483.00
 57.07    2469.00
 57.17    2352.00
 57.27    2158.03
 57.37    1792.12
 57.47    1530.00
 57.57    1286.88
 57.67    1037.58
 57.77     834.00
 57.87     741.28
 57.97     723.00
 58.07     710.00
 58.17     685.63
 58.27     675.79
 58.37     755.00
 58.47     839.79
 58.57     820.86
 58.67     965.99
 58.77    1063.35
 58.87    1094.00
 58.97    1115.00
 59.07    1228.00
 59.17    1268.00
 59.27    1204.71
 59.37    1232.00
 59.47    1243.86
 59.57    1132.61
 59.67    1136.00
 59.77    1108.79
 59.87    1179.21
 59.97    1231.00
 60.07    1301.72
 60.17    1321.00
 60.27    1541.00
 60.37    1540.00
 60.47    1451.77
 60.57    1493.00
 60.67    1365.00
 60.77    1189.00
 60.87     969.88
 60.97     889.12
 61.07     824.00
 61.17     722.00
 61.27     667.00
 61.37     696.00
 61.47     690.00
 61.57     723.00
 61.67     724.00
 61.77     792.00
 61.87     848.00
 61.97    1079.96
 62.07    1163.59
 62.17    1317.00
 62.27    1410.92
 62.37    1382.37
 62.47    1300.00
 62.57    1183.00
 62.67    1088.85
 62.77     983.00
 62.87     929.98
 62.97     795.82
 63.07     691.00
 63.17     626.00
 63.27     573.82
 63.37     588.00
 63.47     575.00
 63.57     626.00
 63.67     617.58
 63.77     580.00
 63.87     547.49
 63.97     618.00
 64.07     680.00
 64.17     662.29
 64.27     721.00
 64.37     789.68
 64.47     894.92
 64.57     863.11
 64.67     937.00
 64.77    1010.00
 64.87     982.00
 64.97     951.49
 65.07     998.00
 65.17     910.73
 65.27     828.34
 65.37     759.00
 65.47     733.02
 65.57     646.00
 65.67     666.77
 65.77     617.00
 65.87     618.00
 65.97     604.89
 66.07     566.00
 66.17     581.00
 66.27     589.00
 66.37     553.00
 66.47     543.00
 66.57     556.56
 66.67     577.00
 66.77     548.54
 66.87     614.89
 66.97     610.05
 67.07     627.48
 67.17     685.22
 67.27     681.00
 67.37     789.00
 67.47     796.00
 67.57    1021.63
 67.67    1117.13
 67.77    1322.75
 67.87    1566.00
 67.97    1900.85
 68.07    2144.89
 68.17    2217.00
 68.27    2376.00
 68.37    2271.14
 68.47    2156.71
 68.57    2043.00
 68.67    1889.00
 68.77    1583.00
 68.87    1339.00
 68.97    1092.00
 69.07    1014.00
 69.17     808.00
 69.27     766.00
 69.37     638.82
 69.47     663.00
 69.57     618.00
 69.67     564.85
 69.77     555.00
 69.87     559.00
 69.97     577.00
 70.07     623.00
 70.17     567.00
 70.27     574.00
 70.37     607.72
 70.47     601.07
 70.57     554.00
 70.67     620.98
 70.77     570.01
 70.87     589.00
 70.97     634.00
 71.07     650.00
 71.17     645.00
 71.27     705.00
 71.37     772.00
 71.47     852.00
 71.57     958.83
 71.67    1123.00
 71.77    1259.75
 71.87    1436.00
 71.97    1557.00
 72.07    1732.66
 72.17    1763.00
 72.27    1863.92
 72.37    1864.93
 72.47    1677.00
 72.57    1575.00
 72.67    1492.00
 72.77    1247.00
 72.87    1125.00
 72.97     996.46
 73.07     907.32
 73.17     821.00
 73.27     768.00
 73.37     651.44
 73.47     656.00
 73.57     597.34
 73.67     669.00
 73.77     617.00
 73.87     566.87
 73.97     581.00
 74.07     560.07
 74.17     547.14
 74.27     598.86
 74.37     604.99
 74.47     582.24
 74.57     566.00
 74.67     596.00
 74.77     606.33
 74.87     572.26
 74.97     622.00
 75.07     611.00
 75.17     596.00
 75.27     559.46
 75.37     635.00
 75.47     509.87
 75.57     613.00
 75.67     561.00
 75.77     558.71
 75.87     581.02
 75.97     590.29
 76.07     580.00
 76.17     530.00
 76.27     598.48
 76.37     636.20
 76.47     618.46
 76.57     664.00
 76.67     652.82
 76.77     672.00
 76.87     668.64
 76.97     664.00
 77.07     680.00
 77.17     603.00
 77.27     659.15
 77.37     578.00
 77.47     574.00
 77.57     569.30
 77.67     564.00
 77.77     541.00
 77.87     515.00
 77.97     504.00
 78.07     512.00
 78.17     481.00
 78.27     501.00
 78.37     531.00
 78.47     547.00
 78.57     457.00
 78.67     538.00
 78.77     483.66
 78.87     508.00
 78.97     542.20
 79.07     534.59
 79.17     482.00
 79.27     465.00
 79.37     462.30
 79.47     481.74
 79.57     501.00
 79.67     493.00
 79.77     514.12
 79.87     513.00
 79.97     494.38
 80.07     490.00
 80.17     538.00
 80.27     488.00
 80.37     527.00
 80.47     514.00
 80.57     510.00
 80.67     576.00
 80.77     553.00
 80.87     637.82
 80.97     600.00
 81.07     676.77
 81.17     701.00
 81.27     662.00
 81.37     751.03
 81.47     757.07
 81.57     711.00
 81.67     676.00
 81.77     723.00
 81.87     750.00
 81.97     670.74
 82.07     700.00
 82.17     704.00
 82.27     703.69
 82.37     695.00
 82.47     599.00
 82.57     609.00
 82.67     549.88
 82.77     560.00
 82.87     586.00
 82.97     546.79
 83.07     555.05
 83.17     542.00
 83.27     515.00
 83.37     546.23
 83.47     531.79
 83.57     519.00
 83.67     516.00
 83.77     536.85
 83.87     540.12
 83.97     545.00
 84.07     550.00
 84.17     551.05
 84.27     507.00
 84.37     541.00
 84.47     588.09
 84.57     532.68
 84.67     538.00
 84.77     545.00
 84.87     501.00
 84.97     553.00
 85.07     519.00
 85.17     477.00
 85.27     480.00
 85.37     498.00
 85.47     494.45
 85.57     495.00
 85.67     524.00
 85.77     491.00
 85.87     533.00
 85.97     543.00
 86.07     562.00
 86.17     541.00
 86.27     543.00
 86.37     521.00
 86.47     509.65
 86.57     523.00
 86.67     507.84
 86.77     549.59
 86.87     498.62
 86.97     519.38
 87.07     543.45
 87.17     590.23
 87.27     591.00
 87.37     607.00
 87.47     600.00
 87.57     576.00
 87.67     626.00
 87.77     633.00
 87.87     660.00
 87.97     637.00
 88.07     575.90
 88.17     591.69
 88.27     590.00
 88.37     534.00
 88.47     567.00
 88.57     564.90
 88.67     571.00
 88.77     561.00
 88.87     538.00
 88.97     552.00
 89.07     568.00
 89.17     585.00
 89.27     575.00
 89.37     577.00
 89.47     592.00
 89.57     571.99
 89.67     611.00
 89.77     520.00
 89.87     562.00
 89.97     518.25
 90.07     531.00
 90.17     556.05
 90.27     511.50
 90.37     571.51
 90.47     575.38
 90.57     479.00
 90.67     509.00
 90.77     558.25
 90.87     490.00
 90.97     493.00
 91.07     519.28
 91.17     524.00
 91.27     505.00
 91.37     483.00
 91.47     522.00
 91.57     542.10
 91.67     518.78
 91.77     487.00
 91.87     478.00
 91.97     561.59
 92.07     530.00
 92.17     526.79
 92.27     563.00
 92.37     522.62
 92.47     566.84
 92.57     563.79
 92.67     605.00
 92.77     577.00
 92.87     581.00
 92.97     657.00
 93.07     695.00
 93.17     648.00
 93.27     740.65
 93.37     663.32
 93.47     711.00
 93.57     782.00
 93.67     715.00
 93.77     704.00
 93.87     785.00
 93.97     751.00
 94.07     833.00
 94.17     852.00
 94.27     910.00
 94.37     846.00
 94.47     799.25
 94.57     857.00
 94.67     902.56
 94.77     928.00
 94.87     838.26
 94.97     933.86
 95.07     851.09
 95.17     865.00
 95.27     901.00
 95.37     800.27
 95.47     835.00
 95.57     818.00
 95.67     801.03
 95.77     791.99
 95.87     753.00
 95.97     751.00
 96.07     710.00
 96.17     691.00
 96.27     723.00
 96.37     688.00
 96.47     724.00
 96.57     725.00
 96.67     807.00
 96.77     841.00
 96.87     891.04
 96.97     917.00
 97.07    1023.12
 97.17    1130.92
 97.27    1126.23
 97.37    1198.18
 97.47    1206.20
 97.57    1279.00
 97.67    1416.00
 97.77    1425.00
 97.87    1499.00
 97.97    1423.16
 98.07    1415.67
 98.17    1412.00
 98.27    1317.00
 98.37    1240.00
 98.47    1243.34
 98.57    1186.08
 98.67    1074.42
 98.77    1067.00
 98.87     904.00
 98.97     928.49
 99.07     936.00
 99.17     870.18
 99.27     879.00
 99.37     896.00
 99.47     877.43
 99.57     969.26
 99.67     989.00
 99.77    1050.60
 99.87    1153.86
 99.97    1242.41
100.07    1296.16
100.17    1343.00
100.27    1441.00
100.37    1580.00
100.47    1632.00
100.57    1819.50
100.67    1787.00
100.77    1833.97
100.87    1948.65
100.97    1991.00
101.07    1930.00
101.17    1967.00
101.27    1951.77
101.37    1962.68
101.47    1875.00
101.57    1788.00
101.67    1674.00
101.77    1561.32
101.87    1593.42
101.97    1483.41
102.07    1411.00
102.17    1402.00
102.27    1261.85
102.37    1263.00
102.47    1218.00
102.57    1159.07
102.67    1139.00
102.77    1145.00
102.87    1080.00
102.97    1104.00
103.07    1015.00
103.17    1052.00
103.27     998.00
103.37     920.29
103.47     974.00
103.57     870.00
103.67     871.00
103.77     797.00
103.87     723.00
103.97     747.00
104.07     739.00
104.17     654.18
104.27     677.16
104.37     637.88
104.47     606.70
104.57     576.00
104.67     577.00
104.77     578.00
104.87     583.00
104.97     562.00
105.07     524.00
105.17     582.00
105.27     520.00
105.37     519.91
105.47     536.00
105.57     492.47
105.67     536.00
105.77     505.56
105.87     550.00
105.97     556.00
106.07     573.37
106.17     578.00
106.27     596.00
106.37     553.28
106.47     621.00
106.57     532.62
106.67     553.00
106.77     637.00
106.87     592.71
106.97     672.14
107.07     650.16
107.17     679.82
107.27     692.50
107.37     708.14
107.47     689.00
107.57     659.00
107.67     701.04
107.77     650.00
107.87     695.25
107.97     639.00
108.07     678.00
108.17     640.96
108.27     718.21
108.37     681.38
108.47     647.00
108.57     648.00
108.67     730.29
108.77     676.00
108.87     663.54
108.97     687.00
109.07     700.00
109.17     663.00
109.27     676.00
109.37     671.00
109.47     715.00
109.57     681.00
109.67     664.00
109.77     653.00
109.87     669.00
109.97     693.49
110.07     668.95
110.17     638.82
110.27     618.06
110.37     569.86
110.47     558.34
110.57     565.08
110.67     583.00
110.77     588.99
110.87     548.00
110.97     546.00
111.07     591.00
111.17     592.00
111.27     559.00
111.37     552.00
111.47     557.22
111.57     532.58
111.67     573.00
111.77     546.00
111.87     541.00
111.97     540.08
112.07     545.00
112.17     526.80
112.27     589.00
112.37     592.63
112.47     552.00
112.57     583.11
112.67     563.11
112.77     538.00
112.87     557.00
112.97     603.00
113.07     631.46
113.17     608.00
113.27     563.00
113.37     670.52
113.47     575.00
113.57     632.00
113.67     651.00
113.77     646.00
113.87     678.00
113.97     731.94
114.07     708.00
114.17     759.00
114.27     794.50
114.37     895.87
114.47     953.72
114.57     897.00
114.67    1095.89
114.77    1111.00
114.87    1217.00
114.97    1348.00
115.07    1519.00
115.17    1754.00
115.27    1847.77
115.37    2210.00
115.47    2324.90
115.57    2688.00
115.67    2952.62
115.77    3115.31
115.87    3527.25
115.97    4022.00
116.07    4263.95
116.17    4741.00
116.27    4924.00
116.37    5380.00
116.47    5835.00
116.57    6192.15
116.67    6505.00
116.77    6586.34
116.87    6868.16
116.97    6910.00
117.07    6941.00
117.17    6794.46
117.27    6760.00
117.37    6506.00
117.47    6553.84
117.57    6239.38
117.67    5594.00
117.77    5406.61
117.87    5088.23
117.97    4769.67
118.07    4391.00
118.17    4208.27
118.27    3824.00
118.37    3292.44
118.47    2973.00
118.57    2747.00
118.67    2483.32
118.77    2179.00
118.87    1933.00
118.97    1761.00
119.07    1614.47
119.17    1433.00
119.27    1263.00
119.37    1206.00
119.47    1131.00
119.57     959.86
119.67     939.00
119.77     903.00
119.87     887.00
119.97     772.00
120.07     808.00
120.17     682.79
120.27     653.00
120.37     629.80
120.47     602.81
120.57     623.00
120.67     620.00
120.77     617.00
120.87     638.00
120.97     624.00
121.07     563.00
121.17     608.00
121.27     574.00
121.37     560.00
121.47     570.00
121.57     596.00
121.67     567.08
121.77     571.00
121.87     600.40
121.97     547.00
122.07     612.00
122.17     603.00
122.27     552.00
122.37     579.00
122.47     607.63
122.57     564.62
122.67     585.00
122.77     641.64
122.87     602.00
122.97     642.74
123.07     632.00
123.17     611.11
123.27     675.00
123.37     616.00
123.47     633.00
123.57     587.38
123.67     634.00
123.77     572.50
123.87     636.00
123.97     571.00
124.07     592.87
124.17     600.00
124.27     604.00
124.37     558.62
124.47     599.13
124.57     601.00
124.67     617.00
124.77     596.00
124.87     602.85
124.97     562.00
