  9.97     620.00
 10.07     590.00
 10.17     603.00
 10.27     586.00
 10.37     623.00
 10.47     607.00
 10.57     566.00
 10.67     544.50
 10.77     613.00
 10.87     584.00
 10.97     629.00
 11.07     543.20
 11.17     570.00
 11.27     594.48
 11.37     554.00
 11.47     621.38
 11.57     579.77
 11.67     626.35
 11.77     579.46
 11.87     658.00
 11.97     628.00
 12.07     695.00
 12.17     657.00
 12.27     679.00
 12.37     670.00
 12.47     575.00
 12.57     588.00
 12.67     568.00
 12.77     631.28
 12.87     536.00
 12.97     623.43
 13.07     599.19
 13.17     592.33
 13.27     540.00
 13.37     565.31
 13.47     585.46
 13.57     538.00
 13.67     620.85
 13.77     528.00
 13.87     562.93
 13.97     610.00
 14.07     548.00
 14.17     605.00
 14.27     514.00
 14.37     551.00
 14.47     577.00
 14.57     593.47
 14.67     555.00
 14.77     540.00
 14.87     567.14
 14.97     532.00
 15.07     533.76
 15.17     585.26
 15.27     604.00
 15.37     606.32
 15.47     528.00
 15.57     566.00
 15.67     572.00
 15.77     560.00
 15.87     529.08
 15.97     538.61
 16.07     548.00
 16.17     540.00
 16.27     577.00
 16.37     594.00
 16.47     568.21
 16.57     549.00
 16.67     595.00
 16.77     544.15
 16.87     599.00
 16.97     590.00
 17.07     577.00
 17.17     567.00
 17.27     524.34
 17.37     542.12
 17.47     562.91
 17.57     544.23
 17.67     521.00
 17.77     602.94
 17.87     567.00
 17.97     523.88
 18.07     573.00
 18.17     587.17
 18.27     527.28
 18.37     606.30
 18.47     525.61
 18.57     570.00
 18.67     563.00
 18.77     609.34
 18.87     589.29
 18.97     561.00
 19.07     581.34
 19.17     536.00
 19.27     556.00
 19.37     566.94
 19.47     520.00
 19.57     561.00
 19.67     539.00
 19.77     581.47
 19.87     576.46
 19.97     552.00
 20.07     564.00
 20.17     566.00
 20.27     566.71
 20.37     582.00
 20.47     519.00
 20.57     563.00
 20.67     555.00
 20.77     523.00
 20.87     554.00
 20.97     555.69
 21.07     551.67
 21.17     544.00
 21.27     601.88
 21.37     559.25
 21.47     578.00
 21.57     559.00
 21.67     527.00
 21.77     550.73
 21.87     562.00
 21.97     532.00
 22.07     555.68
 22.17     584.48
 22.27     583.28
 22.37     545.00
 22.47     554.00
 22.57     530.00
 22.67     507.91
 22.77     598.50
 22.87     531.83
 22.97     565.00
 23.07     577.00
 23.17     603.00
 23.27     575.00
 23.37     538.00
 23.47     578.00
 23.57     548.00
 23.67     553.00
 23.77     584.00
 23.87     563.00
 23.97     570.00
 24.07     524.53
 24.17     556.00
 24.27     550.00
 24.37     559.00
 24.47     605.00
 24.57     624.00
 24.67     602.00
 24.77     618.00
 24.87     614.00
 24.97     599.00
 25.07     597.00
 25.17     541.97
 25.27     594.00
 25.37     576.00
 25.47     521.00
 25.57     501.78
 25.67     551.07
 25.77     563.00
 25.87     578.00
 25.97     525.34
 26.07     540.14
 26.17     592.00
 26.27     572.00
 26.37     540.00
 26.47     544.00
 26.57     549.00
 26.67     584.00
 26.77     564.00
 26.87     516.30
 26.97     532.30
 27.07     549.54
 27.17     587.97
 27.27     560.00
 27.37     550.00
 27.47     590.00
 27.57     552.25
 27.67     531.35
 27.77     545.00
 27.87     641.71
 27.97     697.00
 28.07     786.00
 28.17     918.63
 28.27     951.32
 28.37     894.00
 28.47     772.86
 28.57     726.00
 28.67     721.43
 28.77     735.19
 28.87     836.00
 28.97     792.00
 29.07     772.00
 29.17     696.00
 29.27     694.74
 29.37     606.00
 29.47     561.00
 29.57     596.00
 29.67     637.00
 29.77     566.00
 29.87     613.00
 29.97     556.80
 30.07     535.70
 30.17     540.59
 30.27     548.86
 30.37     525.00
 30.47     565.00
 30.57     598.32
 30.67     580.36
 30.77     570.00
 30.87     636.44
 30.97     582.85
 31.07     603.00
 31.17     596.83
 31.27     576.00
 31.37     532.00
 31.47     552.65
 31.57     558.00
 31.67     503.81
 31.77     562.00
 31.87     501.82
 31.97     501.89
 32.07     498.00
 32.17     546.00
 32.27     505.45
 32.37     560.58
 32.47     584.00
 32.57     571.16
 32.67     592.00
 32.77     535.35
 32.87     526.00
 32.97     505.74
 33.07     563.00
 33.17     530.00
 33.27     548.00
 33.37     580.00
 33.47     585.00
 33.57     565.00
 33.67     661.00
 33.77     748.00
 33.87     844.92
 33.97    1037.00
 34.07    1066.00
 34.17    1059.16
 34.27     884.00
 34.37     746.00
 34.47     673.22
 34.57     561.16
 34.67     553.37
 34.77     511.15
 34.87     527.00
 34.97     495.40
 35.07     551.00
 35.17     520.89
 35.27     553.29
 35.37     485.00
 35.47     509.00
 35.57     536.46
 35.67     504.62
 35.77     510.86
 35.87     511.27
 35.97     520.76
 36.07     518.00
 36.17     543.00
 36.27     521.00
 36.37     542.00
 36.47     488.93
 36.57     489.95
 36.67     470.00
 36.77     516.00
 36.87     507.00
 36.97     494.00
 37.07     502.00
 37.17     520.00
 37.27     540.21
 37.37     559.98
 37.47     539.00
 37.57     535.00
 37.67     560.80
 37.77     517.00
 37.87     523.14
 37.97     541.00
 38.07     480.00
 38.17     529.00
 38.27     532.00
 38.37     486.88
 38.47     518.60
 38.57     464.10
 38.67     510.00
 38.77     492.07
 38.87     498.00
 38.97     519.00
 39.07     467.81
 39.17     514.13
 39.27     488.00
 39.37     513.45
 39.47     510.55
 39.57     515.00
 39.67     456.00
 39.77     532.41
 39.87     456.00
 39.97     466.46
 40.07     516.00
 40.17     507.00
 40.27     500.54
 40.37     486.30
 40.47     495.00
 40.57     463.00
 40.67     519.00
 40.77     531.00
 40.87     531.00
 40.97     461.00
 41.07     501.00
 41.17     527.85
 41.27     496.00
 41.37     472.00
 41.47     510.96
 41.57     518.00
 41.67     502.83
 41.77     498.00
 41.87     482.22
 41.97     502.00
 42.07     497.00
 42.17     474.00
 42.27     499.18
 42.37     500.00
 42.47     558.00
 42.57     578.00
 42.67     630.87
 42.77     596.00
 42.87     606.80
 42.97     554.00
 43.07     526.00
 43.17     510.00
 43.27     520.40
 43.37     496.00
 43.47     493.00
 43.57     553.00
 43.67     532.00
 43.77     491.49
 43.87     487.69
 43.97     470.00
 44.07     542.00
 44.17     501.00
 44.27     524.00
 44.37     510.00
 44.47     526.76
 44.57     514.00
 44.67     485.00
 44.77     471.05
 44.87     513.00
 44.97     498.21
 45.07     549.00
 45.17     462.20
 45.27     529.46
 45.37     500.94
 45.47     546.00
 45.57     543.00
 45.67     482.30
 45.77     498.78
 45.87     540.53
 45.97     516.00
 46.07     499.00
 46.17     499.00
 46.27     490.00
 46.37     482.00
 46.47     469.00
 46.57     527.00
 46.67     521.45
 46.77     494.00
 46.87     509.00
 46.97     483.00
 47.07     508.00
 47.17     542.03
 47.27     487.00
 47.37     554.00
 47.47     558.00
 47.57     556.00
 47.67     556.00
 47.77     611.00
 47.87     598.35
 47.97     628.00
 48.07     547.20
 48.17     586.29
 48.27     561.00
 48.37     563.18
 48.47     540.00
 48.57     562.00
 48.67     503.00
 48.77     494.00
 48.87     542.59
 48.97     528.00
 49.07     554.26
 49.17     620.99
 49.27     599.00
 49.37     660.00
 49.47     652.61
 49.57     803.00
 49.67     919.00
 49.77    1123.47
 49.87    1422.00
 49.97    1774.54
 50.07    2215.00
 50.17    2556.00
 50.27    2523.00
 50.37    2355.82
 50.47    1833.86
 50.57    1515.96
 50.67     986.00
 50.77     819.00
 50.87     676.00
 50.97     610.00
 51.07     627.00
 51.17     598.06
 51.27     630.64
 51.37     531.00
 51.47     613.00
 51.57     551.00
 51.67     562.00
 51.77     552.00
 51.87     535.00
 51.97     567.00
 52.07     562.00
 52.17     594.00
 52.27     552.00
 52.37     570.57
 52.47     552.81
 52.57     575.00
 52.67     569.00
 52.77     589.16
 52.87     631.00
 52.97     751.00
 53.07     749.00
 53.17     841.58
 53.27     997.84
 53.37    1183.00
 53.47    1151.00
 53.57    1184.00
 53.67    1142.09
 53.77     979.24
 53.87     839.00
 53.97     732.00
 54.07     676.00
 54.17     608.66
 54.27     617.00
 54.37     537.00
 54.47     587.00
 54.57     517.46
 54.67     603.00
 54.77     534.00
 54.87     604.00
 54.97     514.00
 55.07     583.00
 55.17     570.00
 55.27     587.00
 55.37     552.00
 55.47     581.16
 55.57     598.24
 55.67     606.00
 55.77     604.27
 55.87     612.22
 55.97     634.00
 56.07     720.07
 56.17     744.09
 56.27     876.00
 56.37    1108.00
 56.47    1380.00
 56.57    1759.00
 56.67    2140.00
 56.77    2440.00
 56.87    2621.57
 56.97    2531.00
 57.07    2401.15
 57.17    2026.00
 57.27    1701.00
 57.37    1361.00
 57.47     966.05
 57.57     910.00
 57.67     743.00
 57.77     635.00
 57.87     639.04
 57.97     693.00
 58.07     705.00
 58.17     716.29
 58.27     774.53
 58.37     917.71
 58.47     968.00
 58.57    1097.72
 58.67    1288.00
 58.77    1395.05
 58.87    1521.00
 58.97    1577.38
 59.07    1626.00
 59.17    1477.00
 59.27    1493.00
 59.37    1380.32
 59.47    1288.00
 59.57    1100.00
 59.67    1147.83
 59.77    1221.00
 59.87    1213.00
 59.97    1409.00
 60.07    1472.00
 60.17    1636.00
 60.27    1562.00
 60.37    1530.00
 60.47    1443.00
 60.57    1315.00
 60.67    1042.00
 60.77     917.72
 60.87     827.30
 60.97     685.00
 61.07     654.01
 61.17     626.00
 61.27     605.00
 61.37     639.07
 61.47     713.15
 61.57     773.00
 61.67     866.00
 61.77     943.00
 61.87    1171.11
 61.97    1234.00
 62.07    1361.00
 62.17    1390.00
 62.27    1331.00
 62.37    1335.21
 62.47    1142.00
 62.57    1069.04
 62.67     913.00
 62.77     828.13
 62.87     707.87
 62.97     616.00
 63.07     561.00
 63.17     571.00
 63.27     528.63
 63.37     569.00
 63.47     565.00
 63.57     539.18
 63.67     570.00
 63.77     558.79
 63.87     560.41
 63.97     602.61
 64.07     697.05
 64.17     690.00
 64.27     832.50
 64.37     918.38
 64.47     974.62
 64.57    1011.00
 64.67    1076.00
 64.77     966.37
 64.87    1008.82
 64.97     915.00
 65.07     793.74
 65.17     776.46
 65.27     731.00
 65.37     715.26
 65.47     654.00
 65.57     587.00
 65.67     549.00
 65.77     569.00
 65.87     613.00
 65.97     580.08
 66.07     586.00
 66.17     589.95
 66.27     575.00
 66.37     511.50
 66.47     577.15
 66.57     598.00
 66.67     586.00
 66.77     560.77
 66.87     634.00
 66.97     628.76
 67.07     630.00
 67.17     660.35
 67.27     780.49
 67.37     879.53
 67.47    1049.00
 67.57    1242.00
 67.67    1517.31
 67.77    1779.56
 67.87    2031.00
 67.97    2331.00
 68.07    2342.99
 68.17    2365.35
 68.27    2384.09
 68.37    2009.54
 68.47    1862.00
 68.57    1479.00
 68.67    1295.00
 68.77    1033.00
 68.87     882.00
 68.97     740.00
 69.07     640.81
 69.17     634.00
 69.27     685.00
 69.37     644.00
 69.47     602.00
 69.57     609.00
 69.67     556.00
 69.77     553.00
 69.87     526.23
 69.97     569.00
 70.07     551.89
 70.17     614.00
 70.27     562.25
 70.37     595.17
 70.47     596.93
 70.57     555.00
 70.67     549.29
 70.77     579.00
 70.87     567.00
 70.97     639.19
 71.07     668.00
 71.17     731.00
 71.27     809.00
 71.37     897.98
 71.47    1098.00
 71.57    1201.00
 71.67    1331.00
 71.77    1667.00
 71.87    1870.45
 71.97    1944.00
 72.07    1922.00
 72.17    1863.00
 72.27    1849.00
 72.37    1681.00
 72.47    1545.72
 72.57    1408.63
 72.67    1219.93
 72.77    1084.00
 72.87     968.23
 72.97     979.50
 73.07     836.00
 73.17     801.00
 73.27     800.56
 73.37     692.00
 73.47     730.91
 73.57     597.00
 73.67     585.30
 73.77     573.00
 73.87     578.00
 73.97     598.00
 74.07     610.71
 74.17     541.29
 74.27     603.52
 74.37     603.00
 74.47     615.57
 74.57     612.00
 74.67     647.00
 74.77     654.00
 74.87     604.00
 74.97     579.00
 75.07     573.00
 75.17     601.97
 75.27     546.00
 75.37     569.00
 75.47     553.00
 75.57     551.00
 75.67     565.00
 75.77     547.51
 75.87     582.00
 75.97     566.46
 76.07     607.51
 76.17     657.00
 76.27     705.00
 76.37     689.42
 76.47     683.00
 76.57     671.49
 76.67     733.24
 76.77     647.00
 76.87     639.00
 76.97     638.00
 77.07     588.00
 77.17     604.00
 77.27     572.26
 77.37     553.00
 77.47     484.00
 77.57     533.00
 77.67     527.75
 77.77     502.00
 77.87     533.16
 77.97     542.03
 78.07     512.49
 78.17     541.00
 78.27     514.00
 78.37     553.14
 78.47     498.42
 78.57     492.44
 78.67     530.00
 78.77     512.00
 78.87     534.74
 78.97     559.00
 79.07     501.58
 79.17     527.42
 79.27     485.00
 79.37     473.00
 79.47     497.61
 79.57     522.93
 79.67     529.00
 79.77     511.00
 79.87     539.00
 79.97     549.94
 80.07     529.00
 80.17     580.00
 80.27     548.00
 80.37     624.59
 80.47     589.00
 80.57     636.00
 80.67     669.41
 80.77     626.11
 80.87     726.78
 80.97     684.00
 81.07     727.00
 81.17     775.00
 81.27     769.47
 81.37     775.00
 81.47     785.00
 81.57     790.45
 81.67     706.67
 81.77     728.00
 81.87     710.23
 81.97     728.00
 82.07     707.00
 82.17     660.00
 82.27     644.70
 82.37     633.00
 82.47     629.64
 82.57     632.00
 82.67     593.00
 82.77     576.00
 82.87     556.41
 82.97     629.00
 83.07     554.00
 83.17     520.98
 83.27     538.00
 83.37     534.00
 83.47     562.00
 83.57     552.00
 83.67     604.84
 83.77     598.15
 83.87     554.24
 83.97     606.00
 84.07     560.00
 84.17     544.00
 84.27     524.00
 84.37     571.00
 84.47     555.00
 84.57     560.00
 84.67     551.99
 84.77     506.10
 84.87     551.00
 84.97     505.00
 85.07     574.10
 85.17     561.81
 85.27     479.00
 85.37     530.00
 85.47     550.00
 85.57     565.00
 85.67     526.00
 85.77     522.00
 85.87     554.00
 85.97     514.00
 86.07     518.00
 86.17     537.00
 86.27     575.00
 86.37     543.00
 86.47     552.00
 86.57     549.00
 86.67     523.79
 86.77     600.00
 86.87     589.00
 86.97     578.00
 87.07     647.00
 87.17     619.00
 87.27     645.59
 87.37     641.00
 87.47     666.35
 87.57     646.00
 87.67     659.90
 87.77     631.00
 87.87     582.57
 87.97     634.00
 88.07     601.12
 88.17     615.00
 88.27     534.00
 88.37     560.00
 88.47     598.67
 88.57     601.31
 88.67     559.69
 88.77     610.00
 88.87     596.00
 88.97     583.00
 89.07     547.61
 89.17     626.01
 89.27     639.00
 89.37     627.10
 89.47     608.00
 89.57     574.99
 89.67     580.16
 89.77     557.00
 89.87     589.00
 89.97     526.48
 90.07     575.77
 90.17     550.00
 90.27     532.00
 90.37     550.51
 90.47     529.00
 90.57     504.00
 90.67     552.00
 90.77     547.94
 90.87     527.00
 90.97     531.04
 91.07     538.75
 91.17     494.00
 91.27     532.00
 91.37     521.00
 91.47     520.52
 91.57     497.01
 91.67     572.00
 91.77     500.00
 91.87     601.00
 91.97     527.00
 92.07     558.00
 92.17     594.00
 92.27     586.00
 92.37     602.99
 92.47     593.00
 92.57     677.56
 92.67     656.00
 92.77     673.00
 92.87     698.00
 92.97     709.00
 93.07     749.00
 93.17     712.90
 93.27     828.00
 93.37     782.00
 93.47     850.16
 93.57     847.00
 93.67     828.94
 93.77     806.00
 93.87     874.00
 93.97     774.88
 94.07     896.00
 94.17     831.00
 94.27     864.00
 94.37     917.89
 94.47     841.00
 94.57     905.00
 94.67     909.93
 94.77     925.81
 94.87     897.00
 94.97     897.00
 95.07     804.39
 95.17     846.00
 95.27     856.48
 95.37     807.00
 95.47     793.12
 95.57     754.00
 95.67     726.59
 95.77     726.11
 95.87     685.00
 95.97     686.00
 96.07     633.95
 96.17     660.65
 96.27     725.00
 96.37     773.00
 96.47     814.51
 96.57     900.00
 96.67     891.00
 96.77     988.00
 96.87    1046.00
 96.97    1084.73
 97.07    1276.30
 97.17    1266.00
 97.27    1282.00
 97.37    1370.00
 97.47    1389.94
 97.57    1411.00
 97.67    1450.00
 97.77    1356.51
 97.87    1378.00
 97.97    1288.31
 98.07    1192.00
 98.17    1145.29
 98.27    1102.00
 98.37    1010.00
 98.47     944.00
 98.57     864.00
 98.67     832.00
 98.77     846.00
 98.87     775.00
 98.97     799.54
 99.07     787.00
 99.17     878.00
 99.27     905.00
 99.37     925.39
 99.47    1048.00
 99.57    1130.00
 99.67    1121.03
 99.77    1276.00
 99.87    1434.74
 99.97    1535.52
100.07    1630.54
100.17    1707.00
100.27    1871.00
100.37    1929.00
100.47    1970.99
100.57    1983.62
100.67    2136.00
100.77    2095.00
100.87    2135.44
100.97    2041.00
101.07    1906.70
101.17    1919.00
101.27    1745.68
101.37    1692.60
101.47    1678.66
101.57    1515.00
101.67    1474.00
101.77    1374.62
101.87    1304.00
101.97    1207.00
102.07    1137.00
102.17    1122.00
102.27    1008.00
102.37    1058.00
102.47    1072.12
102.57    1026.00
102.67    1014.00
102.77    1015.00
102.87     948.00
102.97     964.00
103.07     944.00
103.17     907.66
103.27     853.00
103.37     747.45
103.47     810.00
103.57     758.11
103.67     732.26
103.77     612.09
103.87     637.00
103.97     566.21
104.07     613.00
104.17     560.00
104.27     577.00
104.37     572.00
104.47     571.00
104.57     589.19
104.67     584.00
104.77     543.00
104.87     561.00
104.97     510.00
105.07     558.22
105.17     556.00
105.27     532.00
105.37     539.00
105.47     550.00
105.57     572.00
105.67     571.00
105.77     577.88
105.87     567.00
105.97     542.00
106.07     559.00
106.17     589.00
106.27     580.77
106.37     622.51
106.47     615.30
106.57     648.63
106.67     683.00
106.77     625.00
106.87     645.00
106.97     699.00
107.07     715.91
107.17     652.04
107.27     635.00
107.37     750.01
107.47     687.61
107.57     690.81
107.67     730.91
107.77     736.38
107.87     645.72
107.97     678.98
108.07     667.00
108.17     675.00
108.27     675.00
108.37     678.00
108.47     713.00
108.57     684.00
108.67     661.00
108.77     728.94
108.87     679.00
108.97     665.00
109.07     682.00
109.17     670.00
109.27     653.00
109.37     704.84
109.47     624.54
109.57     594.55
109.67     642.00
109.77     640.00
109.87     622.00
109.97     567.92
110.07     558.00
110.17     600.00
110.27     523.46
110.37     563.00
110.47     576.00
110.57     549.76
110.67     524.73
110.77     513.11
110.87     535.97
110.97     545.00
111.07     539.00
111.17     506.59
111.27     565.63
111.37     574.90
111.47     534.04
111.57     541.00
111.67     580.00
111.77     528.00
111.87     555.00
111.97     588.74
112.07     555.00
112.17     560.00
112.27     564.06
112.37     573.00
112.47     579.00
112.57     617.00
112.67     652.45
112.77     613.00
112.87     691.64
112.97     641.00
113.07     693.00
113.17     750.00
113.27     701.00
113.37     785.30
113.47     839.00
113.57     850.00
113.67     851.00
113.77     943.00
113.87     949.00
113.97    1013.00
114.07    1107.00
114.17    1098.00
114.27    1115.00
114.37    1230.00
114.47    1319.00
114.57    1402.33
114.67    1618.00
114.77    1698.77
114.87    1944.44
114.97    2155.93
115.07    2397.00
115.17    2600.00
115.27    2812.81
115.37    3010.38
115.47    3350.00
115.57    3687.00
115.67    4059.00
115.77    4430.00
115.87    4799.00
115.97    5106.00
116.07    5590.00
116.17    6118.48
116.27    6305.00
116.37    6649.00
116.47    6933.00
116.57    7082.00
116.67    7038.00
116.77    6943.00
116.87    6807.65
116.97    6725.00
117.07    6357.00
117.17    6082.00
117.27    5914.80
117.37    5385.70
117.47    4941.61
117.57    4556.00
117.67    4341.00
117.77    3953.11
117.87    3546.06
117.97    3208.00
118.07    2985.00
118.17    2406.14
118.27    2300.00
118.37    1879.21
118.47    1742.00
118.57    1562.00
118.67    1293.00
118.77    1209.00
118.87    1072.00
118.97    1075.69
119.07     926.00
119.17     865.79
119.27     784.00
119.37     754.04
119.47     678.52
119.57     716.00
119.67     678.00
119.77     654.73
119.87     629.81
119.97     608.00
120.07     647.78
120.17     561.00
120.27     605.00
120.37     567.00
120.47     608.01
120.57     624.59
120.67     580.00
120.77     554.00
120.87     576.00
120.97     528.09
121.07     568.00
121.17     552.00
121.27     569.21
121.37     595.00
121.47     596.19
121.57     577.58
121.67     583.00
121.77     581.00
121.87     586.32
121.97     557.86
122.07     632.15
122.17     649.87
122.27     639.00
122.37     657.00
122.47     619.00
122.57     615.00
122.67     646.64
122.77     682.36
122.87     634.00
122.97     676.00
123.07     655.00
123.17     673.00
123.27     618.00
123.37     596.00
123.47     662.00
123.57     621.00
123.67     596.00
123.77     604.00
123.87     619.00
123.97     664.00
124.07     613.00
124.17     656.00
124.27     605.00
124.37     636.00
124.47     637.00
124.57     568.00
124.67     607.00
124.77     614.00
124.87     587.00
124.97     569.00
