  9.97     610.00
 10.07     613.00
 10.17     590.93
 10.27     540.87
 10.37     538.46
 10.47     582.86
 10.57     615.00
 10.67     582.00
 10.77     620.00
 10.87     602.00
 10.97     607.00
 11.07     603.00
 11.17     595.00
 11.27     572.00
 11.37     616.37
 11.47     540.78
 11.57     568.85
 11.67     542.96
 11.77     627.51
 11.87     582.34
 11.97     631.00
 12.07     676.00
 12.17     714.00
 12.27     743.00
 12.37     694.00
 12.47     638.41
 12.57     598.00
 12.67     582.00
 12.77     552.00
 12.87     596.00
 12.97     625.00
 13.07     559.62
 13.17     556.00
 13.27     585.00
 13.37     537.00
 13.47     572.00
 13.57     568.00
 13.67     569.00
 13.77     567.00
 13.87     598.00
 13.97     562.00
 14.07     547.00
 14.17     560.00
 14.27     609.04
 14.37     592.00
 14.47     560.00
 14.57     559.00
 14.67     594.33
 14.77     575.00
 14.87     591.60
 14.97     528.00
 15.07     545.00
 15.17     560.00
 15.27     546.00
 15.37     542.40
 15.47     528.64
 15.57     561.00
 15.67     612.30
 15.77     583.66
 15.87     550.00
 15.97     560.00
 16.07     573.00
 16.17     564.00
 16.27     612.53
 16.37     576.00
 16.47     524.60
 16.57     518.00
 16.67     539.58
 16.77     562.00
 16.87     559.00
 16.97     576.00
 17.07     542.63
 17.17     576.00
 17.27     550.00
 17.37     523.34
 17.47     528.30
 17.57     596.00
 17.67     539.00
 17.77     547.00
 17.87     569.00
 17.97     536.00
 18.07     528.58
 18.17     595.00
 18.27     589.00
 18.37     547.00
 18.47     555.00
 18.57     575.00
 18.67     592.38
 18.77     570.31
 18.87     587.00
 18.97     521.00
 19.07     569.00
 19.17     551.00
 19.27     538.51
 19.37     524.35
 19.47     494.00
 19.57     530.00
 19.67     588.03
 19.77     572.99
 19.87     597.52
 19.97     540.70
 20.07     538.77
 20.17     520.93
 20.27     581.00
 20.37     593.70
 20.47     567.51
 20.57     529.63
 20.67     547.00
 20.77     592.87
 20.87     540.00
 20.97     563.00
 21.07     530.00
 21.17     577.00
 21.27     590.48
 21.37     556.51
 21.47     566.00
 21.57     535.00
 21.67     558.00
 21.77     546.43
 21.87     544.98
 21.97     529.47
 22.07     589.00
 22.17     571.00
 22.27     569.00
 22.37     559.53
 22.47     560.00
 22.57     508.14
 22.67     570.00
 22.77     566.00
 22.87     523.00
 22.97     591.00
 23.07     536.00
 23.17     534.66
 23.27     545.97
 23.37     545.00
 23.47     519.54
 23.57     516.50
 23.67     571.62
 23.77     598.00
 23.87     550.27
 23.97     507.72
 24.07     573.00
 24.17     528.00
 24.27     562.00
 24.37     563.00
 24.47     572.00
 24.57     627.00
 24.67     614.00
 24.77     609.02
 24.87     643.00
 24.97     583.33
 25.07     628.00
 25.17     611.00
 25.27     557.00
 25.37     536.00
 25.47     510.00
 25.57     560.00
 25.67     532.89
 25.77     508.00
 25.87     528.05
 25.97     556.00
 26.07     527.96
 26.17     540.00
 26.27     485.00
 26.37     582.00
 26.47     512.52
 26.57     540.51
 26.67     543.00
 26.77     535.00
 26.87     549.00
 26.97     559.38
 27.07     509.00
 27.17     549.47
 27.27     589.00
 27.37     520.00
 27.47     573.81
 27.57     562.00
 27.67     548.22
 27.77     574.79
 27.87     657.00
 27.97     646.00
 28.07     749.00
 28.17     902.00
 28.27     967.00
 28.37     955.74
 28.47     823.00
 28.57     749.00
 28.67     680.00
 28.77     751.00
 28.87     773.00
 28.97     844.93
 29.07     743.00
 29.17     731.63
 29.27     631.00
 29.37     625.00
 29.47     600.00
 29.57     549.00
 29.67     554.38
 29.77     574.00
 29.87     598.58
 29.97     552.00
 30.07     578.41
 30.17     569.00
 30.27     599.00
 30.37     517.00
 30.47     557.12
 30.57     560.00
 30.67     582.00
 30.77     634.00
 30.87     580.90
 30.97     593.00
 31.07     659.00
 31.17     584.70
 31.27     561.52
 31.37     534.00
 31.47     552.00
 31.57     553.00
 31.67     560.00
 31.77     553.00
 31.87     544.00
 31.97     552.00
 32.07     519.00
 32.17     568.70
 32.27     528.00
 32.37     507.40
 32.47     544.69
 32.57     550.04
 32.67     552.72
 32.77     523.00
 32.87     561.87
 32.97     537.00
 33.07     496.88
 33.17     541.00
 33.27     538.00
 33.37     502.05
 33.47     589.80
 33.57     601.00
 33.67     645.00
 33.77     725.00
 33.87     888.00
 33.97     952.00
 34.07    1087.00
 34.17    1063.66
 34.27     869.00
 34.37     710.00
 34.47     627.00
 34.57     624.05
 34.67     573.00
 34.77     581.00
 34.87     541.00
 34.97     508.78
 35.07     542.28
 35.17     574.00
 35.27     576.00
 35.37     535.40
 35.47     515.00
 35.57     483.00
 35.67     527.97
 35.77     483.89
 35.87     516.00
 35.97     502.00
 36.07     504.00
 36.17     498.00
 36.27     529.76
 36.37     502.00
 36.47     481.05
 36.57     544.00
 36.67     570.00
 36.77     499.00
 36.87     513.00
 36.97     492.00
 37.07     523.07
 37.17     529.11
 37.27     553.00
 37.37     556.00
 37.47     485.00
 37.57     570.97
 37.67     507.15
 37.77     545.00
 37.87     519.00
 37.97     530.00
 38.07     467.00
 38.17     547.60
 38.27     522.71
 38.37     505.00
 38.47     532.68
 38.57     502.00
 38.67     524.00
 38.77     545.17
 38.87     515.00
 38.97     521.00
 39.07     454.00
 39.17     508.00
 39.27     492.00
 39.37     525.00
 39.47     544.00
 39.57     510.86
 39.67     528.42
 39.77     551.57
 39.87     473.00
 39.97     523.00
 40.07     518.74
 40.17     496.88
 40.27     544.49
 40.37     539.00
 40.47     490.00
 40.57     506.90
 40.67     570.00
 40.77     498.06
 40.87     467.00
 40.97     523.00
 41.07     481.00
 41.17     489.13
 41.27     465.00
 41.37     478.04
 41.47     529.00
 41.57     525.60
 41.67     528.00
 41.77     527.00
 41.87     516.00
 41.97     555.00
 42.07     479.00
 42.17     531.00
 42.27     523.67
 42.37     557.00
 42.47     623.01
 42.57     607.63
 42.67     656.00
 42.77     615.00
 42.87     558.00
 42.97     539.72
 43.07     518.00
 43.17     491.63
 43.27     539.00
 43.37     509.00
 43.47     553.94
 43.57     480.00
 43.67     547.29
 43.77     468.00
 43.87     531.00
 43.97     537.00
 44.07     505.00
 44.17     523.00
 44.27     501.00
 44.37     528.00
 44.47     500.00
 44.57     504.00
 44.67     516.00
 44.77     511.91
 44.87     500.00
 44.97     469.00
 45.07     532.00
 45.17     485.00
 45.27     500.00
 45.37     483.03
 45.47     490.00
 45.57     533.00
 45.67     536.48
 45.77     473.00
 45.87     508.03
 45.97     491.09
 46.07     499.00
 46.17     474.00
 46.27     541.52
 46.37     541.88
 46.47     525.00
 46.57     491.00
 46.67     510.92
 46.77     539.00
 46.87     510.00
 46.97     523.00
 47.07     479.84
 47.17     519.00
 47.27     504.00
 47.37     513.00
 47.47     561.00
 47.57     536.24
 47.67     594.00
 47.77     594.00
 47.87     630.00
 47.97     635.00
 48.07     554.93
 48.17     542.00
 48.27     558.00
 48.37     570.00
 48.47     525.00
 48.57     564.00
 48.67     499.00
 48.77     571.00
 48.87     508.00
 48.97     527.00
 49.07     570.00
 49.17     594.00
 49.27     557.00
 49.37     633.00
 49.47     690.00
 49.57     793.00
 49.67     902.66
 49.77    1140.09
 49.87    1569.00
 49.97    1832.61
 50.07    2183.00
 50.17    2488.00
 50.27    2543.00
 50.37    2148.00
 50.47    1849.00
 50.57    1535.78
 50.67    1072.00
 50.77     815.00
 50.87     698.00
 50.97     703.49
 51.07     597.68
 51.17     634.00
 51.27     609.00
 51.37     614.24
 51.47     596.00
 51.57     561.00
 51.67     557.00
 51.77     520.01
 51.87     524.00
 51.97     523.00
 52.07     584.00
 52.17     525.93
 52.27     570.91
 52.37     542.00
 52.47     555.00
 52.57     531.00
 52.67     577.00
 52.77     682.00
 52.87     663.81
 52.97     685.00
 53.07     817.00
 53.17     908.00
 53.27    1102.00
 53.37    1095.00
 53.47    1157.93
 53.57    1162.00
 53.67    1068.00
 53.77    1017.00
 53.87     904.00
 53.97     757.00
 54.07     686.00
 54.17     590.60
 54.27     592.69
 54.37     522.98
 54.47     566.00
 54.57     552.00
 54.67     572.51
 54.77     573.00
 54.87     535.31
 54.97     568.69
 55.07     627.00
 55.17     545.77
 55.27     607.00
 55.37     568.00
 55.47     599.18
 55.57     567.00
 55.67     585.00
 55.77     575.00
 55.87     575.00
 55.97     659.39
 56.07     651.00
 56.17     753.00
 56.27     935.00
 56.37    1145.81
 56.47    1403.38
 56.57    1763.04
 56.67    2217.99
 56.77    2552.79
 56.87    2580.00
 56.97    2644.00
 57.07    2456.66
 57.17    2084.00
 57.27    1631.90
 57.37    1337.00
 57.47     996.56
 57.57     907.40
 57.67     758.72
 57.77     694.00
 57.87     642.00
 57.97     700.69
 58.07     653.16
 58.17     718.90
 58.27     718.00
 58.37     844.00
 58.47     911.00
 58.57    1055.00
 58.67    1129.16
 58.77    1308.49
 58.87    1379.00
 58.97    1437.39
 59.07    1533.00
 59.17    1481.42
 59.27    1419.00
 59.37    1303.97
 59.47    1239.62
 59.57    1132.95
 59.67    1144.00
 59.77    1087.29
 59.87    1225.06
 59.97    1347.79
 60.07    1372.65
 60.17    1544.00
 60.27    1641.00
 60.37    1550.00
 60.47    1432.00
 60.57    1260.00
 60.67    1122.50
 60.77     966.97
 60.87     819.00
 60.97     683.82
 61.07     664.00
 61.17     659.00
 61.27     662.00
 61.37     668.00
 61.47     691.00
 61.57     744.00
 61.67     825.76
 61.77     937.00
 61.87    1062.00
 61.97    1202.68
 62.07    1323.00
 62.17    1420.00
 62.27    1368.00
 62.37    1302.84
 62.47    1197.00
 62.57    1076.00
 62.67     973.75
 62.77     798.72
 62.87     674.00
 62.97     671.00
 63.07     614.00
 63.17     595.72
 63.27     591.00
 63.37     591.50
 63.47     562.96
 63.57     549.16
 63.67     549.40
 63.77     615.00
 63.87     636.91
 63.97     702.00
 64.07     729.00
 64.17     755.96
 64.27     854.00
 64.37     957.00
 64.47     956.00
 64.57     981.00
 64.67    1086.00
 64.77    1043.00
 64.87    1003.00
 64.97     937.00
 65.07     840.49
 65.17     777.00
 65.27     708.83
 65.37     672.00
 65.47     623.27
 65.57     617.00
 65.67     632.88
 65.77     567.00
 65.87     610.54
 65.97     558.76
 66.07     583.07
 66.17     537.00
 66.27     521.16
 66.37     551.00
 66.47     523.45
 66.57     582.00
 66.67     548.00
 66.77     597.00
 66.87     560.00
 66.97     634.72
 67.07     633.00
 67.17     674.00
 67.27     782.00
 67.37     893.00
 67.47    1096.74
 67.57    1271.18
 67.67    1553.00
 67.77    1804.60
 67.87    2002.00
 67.97    2294.00
 68.07    2386.74
 68.17    2411.00
 68.27    2239.00
 68.37    2096.00
 68.47    1797.36
 68.57    1592.00
 68.67    1265.00
 68.77    1035.00
 68.87     903.05
 68.97     791.00
 69.07     744.00
 69.17     688.00
 69.27     636.00
 69.37     601.00
 69.47     552.73
 69.57     585.00
 69.67     600.87
 69.77     541.88
 69.87     532.48
 69.97     539.00
 70.07     534.53
 70.17     575.80
 70.27     552.00
 70.37     607.11
 70.47     591.00
 70.57     566.00
 70.67     550.36
 70.77     569.00
 70.87     570.42
 70.97     655.00
 71.07     676.00
 71.17     717.00
 71.27     831.00
 71.37     927.00
 71.47    1112.00
 71.57    1272.00
 71.67    1504.00
 71.77    1582.99
 71.87    1892.00
 71.97    1906.00
 72.07    1881.00
 72.17    1870.00
 72.27    1807.00
 72.37    1653.00
 72.47    1445.79
 72.57    1317.00
 72.67    1101.00
 72.77    1070.95
 72.87     917.00
 72.97     851.00
 73.07     848.16
 73.17     735.74
 73.27     646.00
 73.37     677.00
 73.47     626.00
 73.57     603.00
 73.67     588.00
 73.77     553.21
 73.87     573.00
 73.97     594.00
 74.07     544.70
 74.17     607.73
 74.27     595.21
 74.37     599.60
 74.47     646.00
 74.57     586.77
 74.67     598.00
 74.77     576.00
 74.87     653.00
 74.97     594.00
 75.07     593.00
 75.17     597.00
 75.27     580.00
 75.37     515.17
 75.47     569.96
 75.57     552.00
 75.67     566.03
 75.77     567.00
 75.87     633.00
 75.97     604.49
 76.07     631.40
 76.17     670.00
 76.27     631.00
 76.37     701.91
 76.47     711.98
 76.57     715.44
 76.67     720.00
 76.77     704.00
 76.87     688.00
 76.97     604.00
 77.07     632.00
 77.17     596.00
 77.27     574.00
 77.37     524.00
 77.47     511.00
 77.57     535.00
 77.67     585.02
 77.77     578.42
 77.87     468.00
 77.97     563.64
 78.07     534.00
 78.17     510.00
 78.27     504.75
 78.37     516.00
 78.47     518.00
 78.57     570.80
 78.67     529.92
 78.77     506.00
 78.87     517.00
 78.97     498.00
 79.07     522.00
 79.17     532.00
 79.27     504.69
 79.37     526.00
 79.47     569.18
 79.57     505.74
 79.67     530.00
 79.77     543.00
 79.87     549.75
 79.97     486.00
 80.07     568.00
 80.17     569.00
 80.27     557.89
 80.37     611.56
 80.47     558.00
 80.57     573.00
 80.67     590.00
 80.77     667.67
 80.87     658.00
 80.97     743.00
 81.07     744.10
 81.17     736.59
 81.27     771.00
 81.37     759.00
 81.47     798.25
 81.57     777.33
 81.67     743.00
 81.77     735.91
 81.87     666.06
 81.97     673.53
 82.07     721.00
 82.17     627.00
 82.27     680.81
 82.37     651.41
 82.47     620.00
 82.57     613.22
 82.67     546.06
 82.77     575.59
 82.87     600.00
 82.97     562.00
 83.07     517.62
 83.17     584.88
 83.27     547.00
 83.37     535.00
 83.47     586.00
 83.57     587.61
 83.67     589.90
 83.77     567.00
 83.87     596.00
 83.97     544.00
 84.07     606.00
 84.17     544.00
 84.27     535.00
 84.37     552.00
 84.47     542.00
 84.57     544.74
 84.67     567.00
 84.77     567.00
 84.87     552.65
 84.97     514.00
 85.07     524.00
 85.17     564.32
 85.27     537.00
 85.37     559.00
 85.47     528.00
 85.57     539.00
 85.67     551.13
 85.77     504.00
 85.87     522.00
 85.97     527.00
 86.07     555.00
 86.17     490.00
 86.27     564.66
 86.37     557.00
 86.47     490.00
 86.57     546.30
 86.67     558.00
 86.77     571.00
 86.87     607.89
 86.97     657.00
 87.07     679.00
 87.17     632.00
 87.27     579.91
 87.37     662.37
 87.47     666.00
 87.57     679.00
 87.67     625.00
 87.77     639.00
 87.87     618.00
 87.97     633.00
 88.07     562.00
 88.17     587.82
 88.27     588.00
 88.37     565.00
 88.47     520.98
 88.57     558.00
 88.67     579.00
 88.77     580.00
 88.87     557.65
 88.97     536.53
 89.07     598.02
 89.17     590.00
 89.27     571.00
 89.37     650.00
 89.47     557.03
 89.57     600.00
 89.67     559.00
 89.77     588.00
 89.87     605.00
 89.97     589.69
 90.07     581.10
 90.17     591.62
 90.27     530.00
 90.37     583.34
 90.47     488.00
 90.57     529.60
 90.67     513.00
 90.77     522.00
 90.87     514.00
 90.97     542.00
 91.07     492.99
 91.17     544.00
 91.27     563.68
 91.37     542.57
 91.47     564.28
 91.57     502.00
 91.67     515.00
 91.77     557.00
 91.87     552.00
 91.97     557.00
 92.07     544.39
 92.17     589.00
 92.27     603.06
 92.37     619.00
 92.47     611.94
 92.57     666.79
 92.67     615.00
 92.77     672.00
 92.87     727.00
 92.97     739.26
 93.07     738.17
 93.17     822.00
 93.27     773.00
 93.37     803.00
 93.47     765.00
 93.57     852.00
 93.67     828.60
 93.77     784.74
 93.87     815.89
 93.97     844.62
 94.07     837.00
 94.17     806.53
 94.27     881.83
 94.37     877.57
 94.47     828.68
 94.57     919.86
 94.67     938.21
 94.77     921.00
 94.87     918.45
 94.97     829.99
 95.07     905.00
 95.17     889.43
 95.27     861.00
 95.37     824.62
 95.47     736.10
 95.57     704.07
 95.67     740.00
 95.77     743.00
 95.87     650.77
 95.97     644.11
 96.07     730.49
 96.17     724.00
 96.27     732.00
 96.37     772.00
 96.47     798.00
 96.57     852.66
 96.67     907.00
 96.77    1003.00
 96.87    1034.00
 96.97    1101.00
 97.07    1260.17
 97.17    1343.31
 97.27    1350.35
 97.37    1397.00
 97.47    1367.75
 97.57    1458.00
 97.67    1413.00
 97.77    1355.15
 97.87    1356.00
 97.97    1262.00
 98.07    1266.00
 98.17    1131.00
 98.27    1107.00
 98.37    1055.00
 98.47     955.00
 98.57     854.00
 98.67     884.00
 98.77     772.00
 98.87     783.58
 98.97     820.00
 99.07     768.89
 99.17     848.00
 99.27     847.00
 99.37     900.84
 99.47     970.51
 99.57    1090.00
 99.67    1151.00
 99.77    1364.00
 99.87    1391.00
 99.97    1532.99
100.07    1594.85
100.17    1713.00
100.27    1855.00
100.37    1927.77
100.47    2093.00
100.57    2045.08
100.67    2085.00
100.77    2095.00
100.87    2074.28
100.97    2027.00
101.07    1929.29
101.17    1978.00
101.27    1747.00
101.37    1657.00
101.47    1584.00
101.57    1445.45
101.67    1450.00
101.77    1301.56
101.87    1247.37
101.97    1198.33
102.07    1218.27
102.17    1212.51
102.27    1202.23
102.37    1083.00
102.47    1074.00
102.57    1099.00
102.67    1075.00
102.77    1049.00
102.87     958.00
102.97     972.00
103.07     901.00
103.17     864.00
103.27     866.00
103.37     803.55
103.47     766.00
103.57     730.00
103.67     662.14
103.77     718.08
103.87     684.75
103.97     631.94
104.07     582.00
104.17     599.00
104.27     597.00
104.37     560.00
104.47     509.86
104.57     537.36
104.67     564.00
104.77     550.49
104.87     507.38
104.97     519.79
105.07     571.75
105.17     570.00
105.27     504.10
105.37     545.00
105.47     536.00
105.57     590.00
105.67     550.00
105.77     517.00
105.87     554.00
105.97     582.00
106.07     557.00
106.17     616.00
106.27     602.00
106.37     572.33
106.47     635.00
106.57     628.31
106.67     603.62
106.77     631.00
106.87     693.45
106.97     669.00
107.07     657.00
107.17     700.00
107.27     636.00
107.37     678.00
107.47     692.00
107.57     664.36
107.67     703.00
107.77     687.00
107.87     643.00
107.97     690.00
108.07     667.00
108.17     704.00
108.27     670.30
108.37     690.18
108.47     704.08
108.57     643.00
108.67     690.00
108.77     742.67
108.87     741.11
108.97     701.00
109.07     616.00
109.17     635.00
109.27     660.00
109.37     682.25
109.47     687.00
109.57     647.51
109.67     650.00
109.77     598.00
109.87     641.00
109.97     558.91
110.07     589.89
110.17     603.00
110.27     575.42
110.37     613.00
110.47     524.83
110.57     573.00
110.67     579.00
110.77     540.00
110.87     576.00
110.97     509.94
111.07     540.00
111.17     517.00
111.27     556.00
111.37     577.80
111.47     518.00
111.57     520.00
111.67     509.00
111.77     537.00
111.87     520.00
111.97     558.20
112.07     571.21
112.17     603.00
112.27     639.00
112.37     627.31
112.47     630.82
112.57     595.00
112.67     595.18
112.77     584.58
112.87     619.00
112.97     632.36
113.07     631.00
113.17     654.00
113.27     688.00
113.37     724.00
113.47     702.40
113.57     798.94
113.67     769.35
113.77     846.00
113.87     920.83
113.97     875.11
114.07     958.00
114.17    1041.38
114.27    1042.00
114.37    1155.86
114.47    1282.00
114.57    1355.00
114.67    1579.00
114.77    1711.00
114.87    1895.00
114.97    1971.19
115.07    2322.00
115.17    2574.00
115.27    2697.72
115.37    3149.00
115.47    3544.00
115.57    3882.00
115.67    4124.00
115.77    4661.00
115.87    4815.00
115.97    5211.00
116.07    5632.00
116.17    6123.85
116.27    6443.18
116.37    6511.30
116.47    6841.00
116.57    6843.00
116.67    6841.23
116.77    6959.00
116.87    6775.00
116.97    6715.00
117.07    6378.00
117.17    6235.06
117.27    5796.11
117.37    5438.55
117.47    5189.62
117.57    4620.00
117.67    4255.05
117.77    3861.57
117.87    3605.71
117.97    3174.00
118.07    2845.47
118.17    2515.61
118.27    2278.00
118.37    1866.00
118.47    1762.44
118.57    1624.16
118.67    1439.42
118.77    1290.99
118.87    1209.98
118.97    1040.00
119.07     938.00
119.17     952.00
119.27     813.00
119.37     815.11
119.47     741.00
119.57     734.57
119.67     657.00
119.77     725.00
119.87     633.67
119.97     628.00
120.07     609.31
120.17     629.34
120.27     588.11
120.37     575.00
120.47     546.00
120.57     562.16
120.67     538.45
120.77     556.00
120.87     552.00
120.97     570.00
121.07     498.00
121.17     567.18
121.27     619.67
121.37     573.00
121.47     621.74
121.57     589.25
121.67     579.00
121.77     585.86
121.87     542.00
121.97     642.03
122.07     628.00
122.17     630.00
122.27     578.66
122.37     683.00
122.47     600.00
122.57     614.00
122.67     645.00
122.77     668.19
122.87     673.00
122.97     684.12
123.07     661.00
123.17     641.00
123.27     612.10
123.37     621.14
123.47     655.00
123.57     654.27
123.67     624.00
123.77     663.00
123.87     653.12
123.97     623.00
124.07     602.07
124.17     609.00
124.27     611.00
124.37     551.83
124.47     593.22
124.57     582.00
124.67     562.00
124.77     589.00
124.87     570.00
124.97     563.00
