  9.97     560.00
 10.07     573.00
 10.17     646.00
 10.27     635.00
 10.37     616.22
 10.47     545.00
 10.57     566.56
 10.67     598.00
 10.77     629.00
 10.87     606.00
 10.97     578.00
 11.07     622.31
 11.17     584.00
 11.27     568.13
 11.37     559.00
 11.47     614.00
 11.57     624.00
 11.67     549.00
 11.77     641.58
 11.87     605.00
 11.97     693.00
 12.07     702.00
 12.17     698.00
 12.27     691.00
 12.37     694.00
 12.47     624.00
 12.57     620.00
 12.67     575.21
 12.77     571.00
 12.87     572.00
 12.97     620.72
 13.07     554.45
 13.17     593.66
 13.27     586.00
 13.37     533.72
 13.47     581.00
 13.57     525.00
 13.67     549.00
 13.77     531.36
 13.87     578.55
 13.97     596.00
 14.07     571.89
 14.17     538.00
 14.27     549.14
 14.37     535.00
 14.47     535.00
 14.57     580.10
 14.67     591.00
 14.77     562.67
 14.87     576.00
 14.97     539.00
 15.07     589.00
 15.17     547.00
 15.27     588.00
 15.37     524.24
 15.47     585.00
 15.57     587.33
 15.67     559.00
 15.77     612.90
 15.87     555.00
 15.97     560.00
 16.07     606.64
 16.17     557.72
 16.27     599.25
 16.37     606.00
 16.47     572.00
 16.57     604.57
 16.67     591.95
 16.77     549.99
 16.87     533.69
 16.97     572.00
 17.07     557.00
 17.17     519.90
 17.27     568.00
 17.37     565.00
 17.47     539.83
 17.57     564.00
 17.67     604.89
 17.77     570.00
 17.87     607.86
 17.97     551.00
 18.07     536.00
 18.17     584.00
 18.27     527.00
 18.37     544.00
 18.47     595.00
 18.57     570.35
 18.67     524.00
 18.77     582.54
 18.87     593.76
 18.97     575.00
 19.07     545.00
 19.17     577.00
 19.27     580.00
 19.37     589.80
 19.47     573.00
 19.57     566.00
 19.67     545.00
 19.77     535.29
 19.87     548.00
 19.97     582.00
 20.07     524.26
 20.17     566.00
 20.27     549.00
 20.37     538.99
 20.47     551.00
 20.57     511.00
 20.67     554.00
 20.77     534.00
 20.87     569.57
 20.97     510.38
 21.07     587.81
 21.17     510.00
 21.27     511.68
 21.37     564.22
 21.47     587.00
 21.57     553.00
 21.67     567.04
 21.77     553.79
 21.87     531.00
 21.97     510.46
 22.07     561.00
 22.17     529.00
 22.27     541.53
 22.37     544.00
 22.47     513.57
 22.57     518.86
 22.67     554.00
 22.77     578.00
 22.87     577.00
 22.97     525.77
 23.07     585.74
 23.17     593.53
 23.27     512.00
 23.37     523.00
 23.47     562.85
 23.57     556.00
 23.67     583.63
 23.77     583.00
 23.87     547.53
 23.97     561.00
 24.07     500.00
 24.17     576.00
 24.27     522.28
 24.37     599.19
 24.47     589.00
 24.57     587.00
 24.67     574.20
 24.77     585.00
 24.87     655.57
 24.97     609.00
 25.07     592.00
 25.17     538.00
 25.27     539.00
 25.37     549.00
 25.47     558.00
 25.57     567.04
 25.67     521.00
 25.77     547.00
 25.87     566.04
 25.97     587.93
 26.07     551.00
 26.17     532.00
 26.27     555.45
 26.37     579.00
 26.47     547.00
 26.57     582.07
 26.67     501.00
 26.77     514.00
 26.87     549.29
 26.97     589.00
 27.07     559.00
 27.17     580.82
 27.27     578.00
 27.37     520.00
 27.47     554.00
 27.57     557.00
 27.67     551.90
 27.77     615.00
 27.87     612.00
 27.97     683.00
 28.07     781.00
 28.17     854.09
 28.27     934.00
 28.37     895.00
 28.47     806.00
 28.57     738.00
 28.67     738.00
 28.77     737.00
 28.87     799.03
 28.97     782.00
 29.07     774.22
 29.17     687.00
 29.27     647.29
 29.37     579.00
 29.47     570.46
 29.57     609.40
 29.67     553.20
 29.77     555.97
 29.87     575.00
 29.97     558.00
 30.07     513.72
 30.17     576.00
 30.27     607.00
 30.37     577.00
 30.47     592.00
 30.57     559.00
 30.67     567.00
 30.77     596.00
 30.87     606.00
 30.97     651.00
 31.07     590.19
 31.17     615.00
 31.27     559.00
 31.37     530.00
 31.47     573.00
 31.57     527.40
 31.67     580.00
 31.77     535.25
 31.87     528.14
 31.97     498.95
 32.07     568.85
 32.17     517.00
 32.27     553.00
 32.37     610.00
 32.47     517.56
 32.57     532.86
 32.67     554.00
 32.77     539.62
 32.87     547.51
 32.97     512.00
 33.07     519.20
 33.17     527.00
 33.27     545.00
 33.37     527.00
 33.47     598.00
 33.57     636.59
 33.67     675.00
 33.77     724.00
 33.87     908.98
 33.97     977.00
 34.07    1121.31
 34.17     972.00
 34.27     892.02
 34.37     781.96
 34.47     644.00
 34.57     577.00
 34.67     582.00
 34.77     525.00
 34.87     546.00
 34.97     516.00
 35.07     525.00
 35.17     547.80
 35.27     496.41
 35.37     551.00
 35.47     511.21
 35.57     490.12
 35.67     502.00
 35.77     503.66
 35.87     504.71
 35.97     544.00
 36.07     515.00
 36.17     489.18
 36.27     523.48
 36.37     471.39
 36.47     481.00
 36.57     501.00
 36.67     501.00
 36.77     484.00
 36.87     519.19
 36.97     496.00
 37.07     473.74
 37.17     547.46
 37.27     501.00
 37.37     521.39
 37.47     566.19
 37.57     522.00
 37.67     535.00
 37.77     534.72
 37.87     512.00
 37.97     504.00
 38.07     514.00
 38.17     519.00
 38.27     557.97
 38.37     518.00
 38.47     482.00
 38.57     447.00
 38.67     521.00
 38.77     504.00
 38.87     504.70
 38.97     502.00
 39.07     500.71
 39.17     451.00
 39.27     538.00
 39.37     491.00
 39.47     539.00
 39.57     479.00
 39.67     518.00
 39.77     483.00
 39.87     546.37
 39.97     534.00
 40.07     510.00
 40.17     545.00
 40.27     519.00
 40.37     515.00
 40.47     488.62
 40.57     532.00
 40.67     503.50
 40.77     533.83
 40.87     527.28
 40.97     512.99
 41.07     505.00
 41.17     473.00
 41.27     473.00
 41.37     490.00
 41.47     525.40
 41.57     486.00
 41.67     513.03
 41.77     511.00
 41.87     510.00
 41.97     529.00
 42.07     536.00
 42.17     509.00
 42.27     553.69
 42.37     531.00
 42.47     628.00
 42.57     595.00
 42.67     636.21
 42.77     645.62
 42.87     577.00
 42.97     546.00
 43.07     554.00
 43.17     539.00
 43.27     510.66
 43.37     551.00
 43.47     516.00
 43.57     521.11
 43.67     507.00
 43.77     476.00
 43.87     526.00
 43.97     530.92
 44.07     507.00
 44.17     488.36
 44.27     499.00
 44.37     477.00
 44.47     512.00
 44.57     510.00
 44.67     514.18
 44.77     540.00
 44.87     481.00
 44.97     520.88
 45.07     539.00
 45.17     473.00
 45.27     518.00
 45.37     552.00
 45.47     506.00
 45.57     561.00
 45.67     486.90
 45.77     484.00
 45.87     474.00
 45.97     529.00
 46.07     498.00
 46.17     506.00
 46.27     510.00
 46.37     502.00
 46.47     514.00
 46.57     543.00
 46.67     550.47
 46.77     547.00
 46.87     495.00
 46.97     519.37
 47.07     528.10
 47.17     514.00
 47.27     516.00
 47.37     542.00
 47.47     544.00
 47.57     572.00
 47.67     559.88
 47.77     580.00
 47.87     626.00
 47.97     626.19
 48.07     578.00
 48.17     580.00
 48.27     547.95
 48.37     512.00
 48.47     543.22
 48.57     526.00
 48.67     532.00
 48.77     547.56
 48.87     495.00
 48.97     608.00
 49.07     605.85
 49.17     577.06
 49.27     650.00
 49.37     624.00
 49.47     659.12
 49.57     801.13
 49.67     897.00
 49.77    1101.23
 49.87    1454.24
 49.97    1800.15
 50.07    2224.95
 50.17    2554.00
 50.27    2447.00
 50.37    2317.12
 50.47    1849.00
 50.57    1438.29
 50.67    1103.00
 50.77     842.96
 50.87     752.40
 50.97     693.12
 51.07     621.00
 51.17     633.00
 51.27     621.55
 51.37     610.00
 51.47     563.00
 51.57     565.00
 51.67     526.00
 51.77     581.00
 51.87     551.00
 51.97     510.00
 52.07     580.00
 52.17     553.00
 52.27     544.94
 52.37     555.43
 52.47     584.55
 52.57     581.00
 52.67     594.83
 52.77     568.00
 52.87     628.00
 52.97     679.00
 53.07     864.00
 53.17     873.41
 53.27    1054.00
 53.37    1131.00
 53.47    1251.41
 53.57    1192.00
 53.67    1112.00
 53.77     956.50
 53.87     887.00
 53.97     773.00
 54.07     656.63
 54.17     611.00
 54.27     569.17
 54.37     575.22
 54.47     570.00
 54.57     596.34
 54.67     521.40
 54.77     562.84
 54.87     560.00
 54.97     575.00
 55.07     550.00
 55.17     589.65
 55.27     591.00
 55.37     581.30
 55.47     557.00
 55.57     600.00
 55.67     540.00
 55.77     592.64
 55.87     571.00
 55.97     643.54
 56.07     644.96
 56.17     774.00
 56.27     916.00
 56.37    1130.00
 56.47    1350.00
 56.57    1771.00
 56.67    2209.11
 56.77    2450.00
 56.87    2527.00
 56.97    2674.82
 57.07    2375.00
 57.17    2056.05
 57.27    1622.97
 57.37    1300.85
 57.47    1005.81
 57.57     919.96
 57.67     748.46
 57.77     722.00
 57.87     688.00
 57.97     710.76
 58.07     673.00
 58.17     743.01
 58.27     788.00
 58.37     878.00
 58.47     918.00
 58.57    1034.00
 58.67    1114.00
 58.77    1344.00
 58.87    1430.00
 58.97    1382.00
 59.07    1494.00
 59.17    1499.00
 59.27    1408.00
 59.37    1295.00
 59.47    1215.00
 59.57    1198.00
 59.67    1143.00
 59.77    1147.00
 59.87    1184.94
 59.97    1321.00
 60.07    1472.00
 60.17    1589.00
 60.27    1522.00
 60.37    1495.00
 60.47    1403.10
 60.57    1233.00
 60.67    1021.49
 60.77     902.00
 60.87     805.94
 60.97     716.77
 61.07     711.95
 61.17     657.00
 61.27     598.38
 61.37     667.00
 61.47     700.00
 61.57     806.00
 61.67     817.00
 61.77    1001.71
 61.87    1098.00
 61.97    1191.00
 62.07    1317.00
 62.17    1338.00
 62.27    1296.00
 62.37    1295.00
 62.47    1219.00
 62.57    1068.70
 62.67     870.00
 62.77     746.00
 62.87     749.76
 62.97     602.00
 63.07     635.26
 63.17     601.61
 63.27     557.50
 63.37     595.10
 63.47     578.00
 63.57     590.38
 63.67     622.00
 63.77     633.00
 63.87     664.00
 63.97     687.00
 64.07     740.00
 64.17     778.00
 64.27     887.00
 64.37     907.00
 64.47     949.00
 64.57     954.50
 64.67    1079.00
 64.77     996.80
 64.87    1011.00
 64.97     948.00
 65.07     887.00
 65.17     823.64
 65.27     730.00
 65.37     664.23
 65.47     602.00
 65.57     678.75
 65.67     562.00
 65.77     584.00
 65.87     570.00
 65.97     536.00
 66.07     575.38
 66.17     551.00
 66.27     545.00
 66.37     597.26
 66.47     562.28
 66.57     525.99
 66.67     525.00
 66.77     559.00
 66.87     562.00
 66.97     572.74
 67.07     603.00
 67.17     708.32
 67.27     757.61
 67.37     930.37
 67.47    1088.00
 67.57    1240.00
 67.67    1577.45
 67.77    1752.71
 67.87    2082.00
 67.97    2283.00
 68.07    2350.26
 68.17    2477.00
 68.27    2310.00
 68.37    2014.00
 68.47    1784.04
 68.57    1519.00
 68.67    1210.93
 68.77    1058.00
 68.87     906.00
 68.97     795.14
 69.07     664.00
 69.17     665.00
 69.27     669.00
 69.37     579.00
 69.47     597.00
 69.57     580.90
 69.67     560.00
 69.77     528.60
 69.87     596.08
 69.97     602.83
 70.07     524.00
 70.17     553.00
 70.27     597.00
 70.37     587.00
 70.47     528.57
 70.57     589.00
 70.67     536.58
 70.77     601.00
 70.87     646.13
 70.97     621.56
 71.07     684.85
 71.17     735.00
 71.27     865.00
 71.37     958.00
 71.47    1054.00
 71.57    1291.95
 71.67    1489.76
 71.77    1623.00
 71.87    1822.90
 71.97    1894.00
 72.07    1864.00
 72.17    1910.00
 72.27    1784.00
 72.37    1667.00
 72.47    1402.08
 72.57    1278.49
 72.67    1094.00
 72.77    1042.54
 72.87     901.00
 72.97     854.19
 73.07     767.00
 73.17     746.16
 73.27     722.00
 73.37     694.00
 73.47     690.35
 73.57     659.70
 73.67     609.00
 73.77     560.32
 73.87     618.00
 73.97     583.60
 74.07     565.30
 74.17     616.00
 74.27     610.00
 74.37     644.00
 74.47     630.00
 74.57     609.00
 74.67     597.00
 74.77     613.00
 74.87     655.00
 74.97     609.00
 75.07     582.00
 75.17     562.00
 75.27     553.00
 75.37     528.03
 75.47     579.00
 75.57     543.00
 75.67     585.69
 75.77     539.70
 75.87     576.00
 75.97     612.75
 76.07     615.00
 76.17     699.00
 76.27     627.62
 76.37     675.00
 76.47     745.09
 76.57     689.00
 76.67     739.00
 76.77     688.72
 76.87     647.74
 76.97     660.00
 77.07     607.00
 77.17     576.00
 77.27     565.00
 77.37     568.00
 77.47     543.00
 77.57     506.00
 77.67     531.10
 77.77     524.00
 77.87     564.13
 77.97     518.00
 78.07     541.09
 78.17     518.00
 78.27     493.00
 78.37     534.35
 78.47     536.66
 78.57     532.00
 78.67     540.98
 78.77     500.63
 78.87     506.00
 78.97     527.00
 79.07     569.82
 79.17     492.00
 79.27     543.00
 79.37     491.62
 79.47     520.00
 79.57     559.00
 79.67     519.72
 79.77     536.00
 79.87     517.00
 79.97     508.00
 80.07     565.69
 80.17     563.00
 80.27     546.00
 80.37     603.00
 80.47     584.00
 80.57     649.30
 80.67     638.00
 80.77     617.00
 80.87     694.00
 80.97     739.00
 81.07     760.75
 81.17     702.00
 81.27     742.00
 81.37     753.00
 81.47     703.00
 81.57     718.00
 81.67     794.00
 81.77     768.00
 81.87     684.00
 81.97     721.00
 82.07     716.00
 82.17     661.91
 82.27     641.00
 82.37     645.00
 82.47     576.00
 82.57     542.00
 82.67     540.00
 82.77     598.75
 82.87     565.55
 82.97     538.00
 83.07     536.00
 83.17     547.00
 83.27     525.00
 83.37     563.00
 83.47     540.00
 83.57     573.00
 83.67     600.35
 83.77     523.00
 83.87     580.16
 83.97     622.92
 84.07     597.76
 84.17     577.00
 84.27     589.00
 84.37     571.00
 84.47     585.00
 84.57     553.00
 84.67     551.00
 84.77     545.00
 84.87     551.06
 84.97     513.00
 85.07     489.25
 85.17     500.37
 85.27     547.00
 85.37     495.00
 85.47     493.56
 85.57     545.70
 85.67     505.92
 85.77     553.00
 85.87     519.25
 85.97     553.00
 86.07     543.65
 86.17     538.00
 86.27     511.00
 86.37     534.00
 86.47     522.00
 86.57     541.00
 86.67     497.00
 86.77     596.45
 86.87     624.75
 86.97     597.98
 87.07     658.22
 87.17     584.56
 87.27     616.52
 87.37     655.00
 87.47     593.44
 87.57     629.00
 87.67     640.00
 87.77     581.04
 87.87     632.00
 87.97     613.39
 88.07     584.87
 88.17     632.00
 88.27     547.97
 88.37     579.00
 88.47     582.00
 88.57     582.80
 88.67     632.00
 88.77     601.00
 88.87     604.83
 88.97     623.72
 89.07     625.16
 89.17     606.00
 89.27     568.00
 89.37     560.15
 89.47     616.00
 89.57     613.00
 89.67     612.00
 89.77     593.00
 89.87     574.00
 89.97     576.00
 90.07     542.90
 90.17     502.00
 90.27     507.96
 90.37     513.00
 90.47     518.00
 90.57     512.00
 90.67     515.00
 90.77     531.75
 90.87     548.00
 90.97     540.44
 91.07     528.00
 91.17     497.00
 91.27     522.00
 91.37     522.00
 91.47     545.18
 91.57     534.00
 91.67     523.00
 91.77     533.00
 91.87     488.00
 91.97     578.96
 92.07     593.39
 92.17     572.65
 92.27     589.00
 92.37     576.81
 92.47     620.00
 92.57     646.52
 92.67     665.70
 92.77     669.00
 92.87     732.00
 92.97     728.00
 93.07     747.40
 93.17     784.00
 93.27     805.00
 93.37     810.00
 93.47     823.57
 93.57     784.00
 93.67     807.03
 93.77     783.00
 93.87     817.00
 93.97     777.53
 94.07     885.28
 94.17     876.00
 94.27     910.00
 94.37     844.00
 94.47     914.92
 94.57     935.86
 94.67     891.00
 94.77     888.00
 94.87     943.00
 94.97     902.05
 95.07     937.00
 95.17     890.00
 95.27     831.00
 95.37     780.40
 95.47     766.00
 95.57     786.71
 95.67     763.00
 95.77     727.00
 95.87     686.00
 95.97     658.00
 96.07     659.75
 96.17     682.00
 96.27     743.00
 96.37     774.00
 96.47     787.00
 96.57     886.00
 96.67     904.44
 96.77    1018.64
 96.87    1020.94
 96.97    1166.00
 97.07    1169.00
 97.17    1315.00
 97.27    1359.05
 97.37    1386.00
 97.47    1385.11
 97.57    1501.00
 97.67    1435.00
 97.77    1384.00
 97.87    1315.00
 97.97    1235.00
 98.07    1268.81
 98.17    1172.00
 98.27    1075.90
 98.37    1071.00
 98.47     993.25
 98.57     855.01
 98.67     849.00
 98.77     783.00
 98.87     800.00
 98.97     783.00
 99.07     814.00
 99.17     860.00
 99.27     882.00
 99.37     903.60
 99.47     992.00
 99.57    1043.39
 99.67    1193.00
 99.77    1309.62
 99.87    1396.00
 99.97    1564.00
100.07    1682.00
100.17    1727.00
100.27    1802.00
100.37    1880.48
100.47    1929.99
100.57    2070.00
100.67    2072.00
100.77    2057.00
100.87    1953.49
100.97    2047.00
101.07    1987.66
101.17    1913.00
101.27    1796.89
101.37    1713.00
101.47    1585.00
101.57    1529.00
101.67    1415.00
101.77    1350.00
101.87    1258.00
101.97    1228.00
102.07    1238.27
102.17    1155.06
102.27    1133.00
102.37    1077.00
102.47    1074.00
102.57    1037.00
102.67    1103.01
102.77    1012.56
102.87    1058.00
102.97    1002.48
103.07     987.95
103.17     882.05
103.27     796.61
103.37     789.00
103.47     766.00
103.57     778.00
103.67     737.56
103.77     657.00
103.87     652.00
103.97     701.00
104.07     630.37
104.17     563.00
104.27     574.49
104.37     577.37
104.47     580.77
104.57     551.00
104.67     532.54
104.77     589.00
104.87     528.00
104.97     527.00
105.07     531.00
105.17     557.00
105.27     556.77
105.37     511.00
105.47     519.07
105.57     544.00
105.67     549.04
105.77     557.00
105.87     574.00
105.97     548.37
106.07     584.91
106.17     639.00
106.27     586.00
106.37     628.00
106.47     592.43
106.57     581.27
106.67     616.89
106.77     627.59
106.87     692.89
106.97     600.00
107.07     687.00
107.17     666.00
107.27     673.73
107.37     692.00
107.47     673.00
107.57     621.00
107.67     672.85
107.77     693.00
107.87     716.10
107.97     715.00
108.07     698.62
108.17     699.31
108.27     668.00
108.37     706.00
108.47     669.00
108.57     663.00
108.67     686.66
108.77     686.00
108.87     654.00
108.97     682.00
109.07     708.00
109.17     734.00
109.27     712.00
109.37     642.00
109.47     624.00
109.57     634.00
109.67     622.62
109.77     589.00
109.87     564.45
109.97     622.00
110.07     599.00
110.17     558.00
110.27     583.85
110.37     553.10
110.47     550.00
110.57     582.00
110.67     537.00
110.77     559.41
110.87     545.00
110.97     551.52
111.07     573.00
111.17     498.66
111.27     564.23
111.37     604.00
111.47     517.00
111.57     544.00
111.67     598.32
111.77     565.00
111.87     553.00
111.97     599.00
112.07     590.00
112.17     520.00
112.27     582.08
112.37     600.42
112.47     586.81
112.57     611.00
112.67     673.00
112.77     585.00
112.87     688.64
112.97     657.93
113.07     698.60
113.17     642.00
113.27     722.00
113.37     708.00
113.47     728.00
113.57     766.00
113.67     755.00
113.77     832.00
113.87     847.00
113.97     896.58
114.07     959.00
114.17    1039.89
114.27    1086.00
114.37    1142.00
114.47    1194.79
114.57    1423.00
114.67    1423.37
114.77    1570.69
114.87    1737.15
114.97    2103.00
115.07    2295.00
115.17    2604.00
115.27    2709.18
115.37    3150.00
115.47    3338.18
115.57    3702.91
115.67    4104.00
115.77    4445.00
115.87    5029.55
115.97    5223.00
116.07    5577.36
116.17    5959.00
116.27    6284.00
116.37    6574.00
116.47    6680.10
116.57    6707.89
116.67    6892.43
116.77    6841.00
116.87    6883.00
116.97    6493.00
117.07    6369.12
117.17    6135.53
117.27    5781.32
117.37    5187.00
117.47    5024.02
117.57    4604.96
117.67    4272.18
117.77    3879.00
117.87    3623.00
117.97    3151.00
118.07    2960.00
118.17    2577.14
118.27    2273.26
118.37    2068.55
118.47    1840.00
118.57    1567.00
118.67    1363.00
118.77    1239.00
118.87    1084.00
118.97    1029.00
119.07    1003.00
119.17     877.15
119.27     851.52
119.37     744.16
119.47     739.00
119.57     679.00
119.67     671.00
119.77     640.00
119.87     677.56
119.97     626.00
120.07     638.00
120.17     601.00
120.27     572.00
120.37     618.00
120.47     560.22
120.57     590.42
120.67     611.00
120.77     617.00
120.87     596.00
120.97     598.00
121.07     581.00
121.17     555.93
121.27     620.28
121.37     557.00
121.47     596.00
121.57     599.00
121.67     586.00
121.77     625.00
121.87     615.00
121.97     574.71
122.07     614.00
122.17     621.00
122.27     643.44
122.37     671.00
122.47     651.00
122.57     634.00
122.67     676.59
122.77     652.34
122.87     601.12
122.97     688.73
123.07     622.20
123.17     672.00
123.27     637.00
123.37     589.00
123.47     687.45
123.57     652.02
123.67     633.90
123.77     608.16
123.87     631.00
123.97     602.80
124.07     583.96
124.17     649.00
124.27     616.13
124.37     629.00
124.47     602.00
124.57     592.00
124.67     630.25
124.77     583.28
124.87     595.65
124.97     561.00
