  9.97     586.00
 10.07     574.94
 10.17     604.00
 10.27     597.00
 10.37     586.00
 10.47     615.00
 10.57     580.00
 10.67     583.14
 10.77     623.00
 10.87     526.64
 10.97     562.00
 11.07     558.00
 11.17     533.00
 11.27     554.00
 11.37     570.59
 11.47     613.00
 11.57     595.00
 11.67     593.00
 11.77     637.00
 11.87     579.00
 11.97     623.00
 12.07     705.64
 12.17     709.00
 12.27     684.09
 12.37     628.23
 12.47     643.70
 12.57     569.52
 12.67     582.00
 12.77     585.97
 12.87     572.00
 12.97     545.00
 13.07     577.68
 13.17     584.00
 13.27     549.00
 13.37     607.42
 13.47     568.00
 13.57     574.00
 13.67     567.46
 13.77     570.00
 13.87     603.21
 13.97     606.00
 14.07     575.07
 14.17     616.03
 14.27     608.12
 14.37     605.26
 14.47     526.99
 14.57     577.47
 14.67     542.00
 14.77     560.44
 14.87     566.00
 14.97     542.00
 15.07     570.00
 15.17     536.00
 15.27     587.00
 15.37     578.00
 15.47     574.00
 15.57     596.00
 15.67     580.32
 15.77     592.00
 15.87     572.74
 15.97     575.00
 16.07     568.69
 16.17     530.00
 16.27     555.98
 16.37     518.00
 16.47     568.00
 16.57     591.00
 16.67     556.00
 16.77     595.07
 16.87     578.00
 16.97     574.00
 17.07     524.90
 17.17     552.00
 17.27     574.00
 17.37     574.00
 17.47     544.00
 17.57     550.16
 17.67     521.78
 17.77     551.00
 17.87     569.00
 17.97     605.00
 18.07     540.00
 18.17     552.00
 18.27     533.79
 18.37     526.53
 18.47     535.00
 18.57     595.00
 18.67     537.00
 18.77     592.00
 18.87     559.00
 18.97     530.00
 19.07     565.21
 19.17     565.00
 19.27     563.39
 19.37     563.00
 19.47     544.00
 19.57     540.00
 19.67     568.00
 19.77     555.43
 19.87     592.00
 19.97     558.00
 20.07     590.00
 20.17     561.54
 20.27     543.00
 20.37     522.00
 20.47     513.42
 20.57     561.00
 20.67     588.00
 20.77     580.81
 20.87     564.00
 20.97     587.39
 21.07     562.00
 21.17     558.00
 21.27     594.52
 21.37     556.00
 21.47     543.00
 21.57     554.00
 21.67     555.00
 21.77     559.00
 21.87     555.00
 21.97     531.17
 22.07     534.00
 22.17     541.30
 22.27     548.41
 22.37     544.00
 22.47     535.00
 22.57     572.00
 22.67     560.00
 22.77     535.00
 22.87     518.00
 22.97     531.00
 23.07     569.00
 23.17     571.00
 23.27     525.00
 23.37     541.40
 23.47     549.00
 23.57     525.00
 23.67     577.00
 23.77     593.00
 23.87     595.71
 23.97     490.00
 24.07     528.00
 24.17     587.00
 24.27     559.00
 24.37     551.00
 24.47     532.99
 24.57     615.00
 24.67     584.22
 24.77     590.62
 24.87     657.49
 24.97     594.53
 25.07     583.00
 25.17     597.00
 25.27     547.18
 25.37     568.58
 25.47     537.00
 25.57     538.00
 25.67     549.00
 25.77     566.00
 25.87     587.36
 25.97     537.14
 26.07     521.05
 26.17     514.00
 26.27     564.00
 26.37     513.00
 26.47     592.00
 26.57     518.00
 26.67     539.00
 26.77     550.00
 26.87     579.23
 26.97     574.00
 27.07     565.00
 27.17     535.29
 27.27     502.88
 27.37     588.00
 27.47     548.93
 27.57     574.00
 27.67     584.00
 27.77     552.00
 27.87     606.00
 27.97     646.00
 28.07     801.32
 28.17     949.03
 28.27     920.58
 28.37     924.31
 28.47     846.19
 28.57     696.11
 28.67     675.00
 28.77     759.52
 28.87     842.00
 28.97     815.00
 29.07     750.00
 29.17     714.00
 29.27     647.00
 29.37     576.00
 29.47     608.94
 29.57     561.00
 29.67     554.00
 29.77     520.92
 29.87     545.72
 29.97     543.00
 30.07     590.42
 30.17     538.00
 30.27     498.65
 30.37     538.00
 30.47     547.00
 30.57     570.78
 30.67     528.45
 30.77     619.06
 30.87     572.00
 30.97     656.66
 31.07     623.00
 31.17     589.00
 31.27     555.00
 31.37     562.00
 31.47     479.00
 31.57     517.36
 31.67     529.00
 31.77     531.00
 31.87     513.00
 31.97     501.27
 32.07     545.00
 32.17     548.84
 32.27     499.62
 32.37     515.17
 32.47     575.00
 32.57     510.00
 32.67     517.25
 32.77     506.36
 32.87     589.00
 32.97     522.00
 33.07     536.00
 33.17     543.00
 33.27     530.58
 33.37     580.83
 33.47     550.78
 33.57     572.00
 33.67     655.52
 33.77     738.52
 33.87     844.41
 33.97    1039.00
 34.07    1051.87
 34.17    1046.00
 34.27     900.00
 34.37     748.00
 34.47     634.90
 34.57     590.00
 34.67     578.00
 34.77     525.00
 34.87     571.00
 34.97     528.00
 35.07     558.00
 35.17     529.92
 35.27     490.00
 35.37     561.00
 35.47     521.00
 35.57     533.00
 35.67     555.00
 35.77     466.00
 35.87     489.00
 35.97     507.00
 36.07     580.00
 36.17     534.00
 36.27     534.00
 36.37     546.15
 36.47     543.05
 36.57     480.11
 36.67     508.00
 36.77     496.00
 36.87     528.28
 36.97     494.25
 37.07     520.91
 37.17     512.00
 37.27     481.19
 37.37     542.96
 37.47     515.00
 37.57     539.00
 37.67     498.00
 37.77     517.00
 37.87     541.00
 37.97     473.00
 38.07     510.00
 38.17     516.00
 38.27     489.00
 38.37     538.00
 38.47     524.00
 38.57     517.27
 38.67     527.00
 38.77     507.00
 38.87     531.77
 38.97     482.90
 39.07     548.67
 39.17     483.00
 39.27     470.97
 39.37     496.28
 39.47     544.52
 39.57     512.07
 39.67     557.00
 39.77     532.49
 39.87     496.76
 39.97     466.22
 40.07     478.00
 40.17     516.46
 40.27     528.00
 40.37     485.00
 40.47     460.00
 40.57     513.00
 40.67     481.00
 40.77     493.44
 40.87     491.99
 40.97     489.38
 41.07     472.00
 41.17     467.27
 41.27     525.00
 41.37     499.53
 41.47     489.00
 41.57     504.23
 41.67     460.00
 41.77     551.31
 41.87     514.00
 41.97     549.13
 42.07     516.00
 42.17     549.00
 42.27     581.07
 42.37     506.00
 42.47     588.00
 42.57     560.00
 42.67     616.00
 42.77     596.00
 42.87     573.00
 42.97     550.00
 43.07     567.51
 43.17     492.00
 43.27     520.00
 43.37     509.00
 43.47     465.00
 43.57     537.57
 43.67     519.00
 43.77     506.00
 43.87     510.00
 43.97     496.00
 44.07     497.00
 44.17     490.85
 44.27     504.01
 44.37     461.85
 44.47     521.40
 44.57     483.00
 44.67     484.00
 44.77     500.11
 44.87     522.26
 44.97     497.00
 45.07     505.00
 45.17     497.93
 45.27     495.00
 45.37     502.00
 45.47     535.00
 45.57     504.00
 45.67     513.00
 45.77     505.40
 45.87     511.00
 45.97     486.00
 46.07     520.56
 46.17     544.00
 46.27     514.00
 46.37     518.03
 46.47     525.00
 46.57     463.58
 46.67     537.72
 46.77     496.00
 46.87     517.00
 46.97     510.00
 47.07     511.00
 47.17     518.00
 47.27     518.30
 47.37     561.59
 47.47     537.00
 47.57     580.00
 47.67     578.92
 47.77     581.00
 47.87     619.00
 47.97     599.00
 48.07     582.00
 48.17     529.35
 48.27     542.00
 48.37     520.00
 48.47     542.00
 48.57     545.00
 48.67     548.21
 48.77     505.04
 48.87     507.20
 48.97     557.46
 49.07     534.00
 49.17     593.00
 49.27     629.93
 49.37     606.00
 49.47     686.39
 49.57     744.00
 49.67     892.26
 49.77    1117.00
 49.87    1451.00
 49.97    1864.01
 50.07    2207.00
 50.17    2516.38
 50.27    2419.00
 50.37    2204.00
 50.47    1780.00
 50.57    1429.95
 50.67    1063.00
 50.77     812.00
 50.87     721.00
 50.97     640.00
 51.07     617.32
 51.17     596.00
 51.27     611.00
 51.37     638.00
 51.47     566.00
 51.57     578.00
 51.67     553.00
 51.77     578.00
 51.87     530.00
 51.97     530.00
 52.07     560.00
 52.17     548.00
 52.27     515.22
 52.37     590.00
 52.47     525.00
 52.57     597.88
 52.67     551.41
 52.77     563.81
 52.87     593.00
 52.97     746.00
 53.07     831.53
 53.17     917.00
 53.27    1036.00
 53.37    1156.00
 53.47    1266.77
 53.57    1244.14
 53.67    1164.76
 53.77    1042.00
 53.87     889.00
 53.97     739.98
 54.07     740.00
 54.17     660.00
 54.27     596.00
 54.37     619.24
 54.47     555.00
 54.57     563.00
 54.67     558.00
 54.77     577.00
 54.87     527.05
 54.97     579.70
 55.07     585.00
 55.17     568.00
 55.27     582.14
 55.37     554.07
 55.47     570.00
 55.57     605.00
 55.67     562.16
 55.77     588.00
 55.87     648.46
 55.97     635.00
 56.07     713.00
 56.17     828.35
 56.27     995.91
 56.37    1192.17
 56.47    1480.00
 56.57    1851.23
 56.67    2250.00
 56.77    2476.00
 56.87    2553.50
 56.97    2513.00
 57.07    2282.53
 57.17    2072.98
 57.27    1657.00
 57.37    1271.00
 57.47    1038.00
 57.57     902.00
 57.67     823.19
 57.77     728.06
 57.87     691.00
 57.97     636.44
 58.07     676.00
 58.17     725.00
 58.27     811.00
 58.37     798.00
 58.47     945.00
 58.57     980.48
 58.67    1136.00
 58.77    1219.00
 58.87    1299.00
 58.97    1393.00
 59.07    1443.00
 59.17    1419.00
 59.27    1371.50
 59.37    1248.75
 59.47    1208.65
 59.57    1193.00
 59.67    1265.00
 59.77    1213.00
 59.87    1272.00
 59.97    1366.00
 60.07    1476.00
 60.17    1609.00
 60.27    1603.00
 60.37    1505.00
 60.47    1400.00
 60.57    1241.00
 60.67    1054.00
 60.77     921.22
 60.87     838.74
 60.97     728.00
 61.07     700.00
 61.17     645.25
 61.27     685.00
 61.37     702.00
 61.47     681.03
 61.57     795.00
 61.67     862.19
 61.77     951.00
 61.87    1083.00
 61.97    1160.00
 62.07    1368.98
 62.17    1377.00
 62.27    1329.00
 62.37    1360.66
 62.47    1178.00
 62.57    1002.02
 62.67     823.00
 62.77     741.00
 62.87     707.00
 62.97     648.00
 63.07     659.70
 63.17     577.40
 63.27     587.38
 63.37     584.00
 63.47     563.00
 63.57     602.81
 63.67     546.34
 63.77     602.96
 63.87     637.00
 63.97     691.00
 64.07     731.13
 64.17     733.00
 64.27     863.00
 64.37     851.73
 64.47     939.00
 64.57    1011.12
 64.67    1041.00
 64.77     983.00
 64.87    1016.96
 64.97     975.00
 65.07     803.93
 65.17     803.98
 65.27     684.00
 65.37     714.00
 65.47     638.00
 65.57     599.00
 65.67     591.37
 65.77     572.00
 65.87     614.00
 65.97     593.97
 66.07     565.00
 66.17     604.41
 66.27     569.00
 66.37     539.66
 66.47     580.00
 66.57     578.11
 66.67     597.00
 66.77     618.87
 66.87     574.00
 66.97     668.08
 67.07     665.00
 67.17     712.56
 67.27     818.54
 67.37     918.00
 67.47    1031.35
 67.57    1357.03
 67.67    1543.00
 67.77    1782.00
 67.87    2137.00
 67.97    2297.00
 68.07    2419.03
 68.17    2298.00
 68.27    2290.45
 68.37    1957.00
 68.47    1776.71
 68.57    1450.24
 68.67    1246.00
 68.77    1109.42
 68.87     902.00
 68.97     755.00
 69.07     781.00
 69.17     622.00
 69.27     597.35
 69.37     611.00
 69.47     599.00
 69.57     602.00
 69.67     582.00
 69.77     599.00
 69.87     535.00
 69.97     543.42
 70.07     568.00
 70.17     588.51
 70.27     603.97
 70.37     558.00
 70.47     615.75
 70.57     538.43
 70.67     568.00
 70.77     570.00
 70.87     599.00
 70.97     659.00
 71.07     649.19
 71.17     721.00
 71.27     848.00
 71.37    1033.00
 71.47    1118.64
 71.57    1318.44
 71.67    1447.00
 71.77    1624.00
 71.87    1795.86
 71.97    1862.00
 72.07    1818.03
 72.17    1881.00
 72.27    1700.54
 72.37    1608.00
 72.47    1465.00
 72.57    1271.00
 72.67    1117.42
 72.77    1012.00
 72.87     889.00
 72.97     810.00
 73.07     774.00
 73.17     701.00
 73.27     726.00
 73.37     654.00
 73.47     659.00
 73.57     661.65
 73.67     619.15
 73.77     572.00
 73.87     633.00
 73.97     544.00
 74.07     543.50
 74.17     592.00
 74.27     635.00
 74.37     526.00
 74.47     549.34
 74.57     608.00
 74.67     566.68
 74.77     595.00
 74.87     613.18
 74.97     624.00
 75.07     584.00
 75.17     609.00
 75.27     596.00
 75.37     608.00
 75.47     600.30
 75.57     558.29
 75.67     547.00
 75.77     585.00
 75.87     631.00
 75.97     692.00
 76.07     644.00
 76.17     681.00
 76.27     682.00
 76.37     706.00
 76.47     671.00
 76.57     696.00
 76.67     668.74
 76.77     699.66
 76.87     657.61
 76.97     647.00
 77.07     598.52
 77.17     591.54
 77.27     603.00
 77.37     545.00
 77.47     541.00
 77.57     552.00
 77.67     542.00
 77.77     550.78
 77.87     516.00
 77.97     525.65
 78.07     488.81
 78.17     522.00
 78.27     549.12
 78.37     570.46
 78.47     512.21
 78.57     518.00
 78.67     506.00
 78.77     531.00
 78.87     522.83
 78.97     492.00
 79.07     559.00
 79.17     552.90
 79.27     495.00
 79.37     533.00
 79.47     520.41
 79.57     550.00
 79.67     523.33
 79.77     550.00
 79.87     542.25
 79.97     567.00
 80.07     569.00
 80.17     501.00
 80.27     536.00
 80.37     575.00
 80.47     585.00
 80.57     569.44
 80.67     642.00
 80.77     663.86
 80.87     646.99
 80.97     656.00
 81.07     674.28
 81.17     787.16
 81.27     787.52
 81.37     727.00
 81.47     778.00
 81.57     733.00
 81.67     742.47
 81.77     721.00
 81.87     673.67
 81.97     694.12
 82.07     632.00
 82.17     714.00
 82.27     659.00
 82.37     565.00
 82.47     634.00
 82.57     581.33
 82.67     536.00
 82.77     563.00
 82.87     600.00
 82.97     507.00
 83.07     577.00
 83.17     546.00
 83.27     525.80
 83.37     565.00
 83.47     583.00
 83.57     575.00
 83.67     592.59
 83.77     581.00
 83.87     569.00
 83.97     608.29
 84.07     589.00
 84.17     554.00
 84.27     583.20
 84.37     564.00
 84.47     546.00
 84.57     576.00
 84.67     565.78
 84.77     505.41
 84.87     540.64
 84.97     549.22
 85.07     568.00
 85.17     524.34
 85.27     547.00
 85.37     555.00
 85.47     538.00
 85.57     504.00
 85.67     551.00
 85.77     514.68
 85.87     525.00
 85.97     523.00
 86.07     524.00
 86.17     552.00
 86.27     514.79
 86.37     517.86
 86.47     541.11
 86.57     582.00
 86.67     570.00
 86.77     549.56
 86.87     540.45
 86.97     579.00
 87.07     561.15
 87.17     608.60
 87.27     663.00
 87.37     672.00
 87.47     636.00
 87.57     624.95
 87.67     580.35
 87.77     627.00
 87.87     643.86
 87.97     558.59
 88.07     577.77
 88.17     581.22
 88.27     547.29
 88.37     597.00
 88.47     566.79
 88.57     575.00
 88.67     567.00
 88.77     571.00
 88.87     585.00
 88.97     666.00
 89.07     582.00
 89.17     592.28
 89.27     562.35
 89.37     636.53
 89.47     581.00
 89.57     641.67
 89.67     596.00
 89.77     580.00
 89.87     536.00
 89.97     562.00
 90.07     530.00
 90.17     522.00
 90.27     516.43
 90.37     573.84
 90.47     570.27
 90.57     491.00
 90.67     547.00
 90.77     511.00
 90.87     557.00
 90.97     503.00
 91.07     498.52
 91.17     503.00
 91.27     503.25
 91.37     490.00
 91.47     518.00
 91.57     499.91
 91.67     544.00
 91.77     551.00
 91.87     512.83
 91.97     565.60
 92.07     539.15
 92.17     553.00
 92.27     567.00
 92.37     564.00
 92.47     612.00
 92.57     631.00
 92.67     654.00
 92.77     672.00
 92.87     665.08
 92.97     687.00
 93.07     741.43
 93.17     771.04
 93.27     807.44
 93.37     751.56
 93.47     774.00
 93.57     826.00
 93.67     799.99
 93.77     853.59
 93.87     883.00
 93.97     854.00
 94.07     878.00
 94.17     794.95
 94.27     882.35
 94.37     812.71
 94.47     812.71
 94.57     844.27
 94.67     899.17
 94.77     934.00
 94.87     881.29
 94.97     853.00
 95.07     885.00
 95.17     872.00
 95.27     797.06
 95.37     767.65
 95.47     774.00
 95.57     766.00
 95.67     727.00
 95.77     669.00
 95.87     716.72
 95.97     694.00
 96.07     722.09
 96.17     743.00
 96.27     757.00
 96.37     747.00
 96.47     852.00
 96.57     920.72
 96.67     934.00
 96.77     940.00
 96.87    1037.00
 96.97    1191.00
 97.07    1254.63
 97.17    1315.00
 97.27    1394.00
 97.37    1395.00
 97.47    1429.88
 97.57    1459.00
 97.67    1429.00
 97.77    1447.45
 97.87    1312.00
 97.97    1306.00
 98.07    1221.00
 98.17    1103.05
 98.27    1090.54
 98.37    1003.00
 98.47     966.50
 98.57     969.05
 98.67     864.00
 98.77     771.00
 98.87     836.00
 98.97     809.00
 99.07     769.00
 99.17     918.51
 99.27     878.00
 99.37     926.23
 99.47     999.00
 99.57    1099.00
 99.67    1260.00
 99.77    1318.63
 99.87    1385.17
 99.97    1508.88
100.07    1603.00
100.17    1723.00
100.27    1793.00
100.37    1977.00
100.47    2038.00
100.57    1955.73
100.67    2052.43
100.77    2041.00
100.87    1992.00
100.97    1952.00
101.07    1909.00
101.17    1866.00
101.27    1713.00
101.37    1574.00
101.47    1524.00
101.57    1504.06
101.67    1345.00
101.77    1424.00
101.87    1334.00
101.97    1286.72
102.07    1230.00
102.17    1241.45
102.27    1152.00
102.37    1119.00
102.47    1090.00
102.57    1054.17
102.67    1033.92
102.77    1003.65
102.87     974.00
102.97     988.45
103.07     916.00
103.17     863.58
103.27     899.00
103.37     840.46
103.47     765.12
103.57     749.00
103.67     706.00
103.77     716.00
103.87     678.00
103.97     693.00
104.07     604.34
104.17     581.92
104.27     573.00
104.37     601.00
104.47     570.00
104.57     556.00
104.67     520.00
104.77     526.00
104.87     514.27
104.97     499.00
105.07     549.00
105.17     572.00
105.27     562.71
105.37     569.00
105.47     526.80
105.57     534.56
105.67     513.63
105.77     565.69
105.87     536.78
105.97     539.00
106.07     553.00
106.17     583.00
106.27     655.00
106.37     570.00
106.47     608.00
106.57     636.00
106.67     682.92
106.77     665.00
106.87     692.00
106.97     678.00
107.07     644.00
107.17     650.47
107.27     696.00
107.37     723.00
107.47     691.00
107.57     691.76
107.67     678.00
107.77     699.81
107.87     691.51
107.97     714.33
108.07     722.00
108.17     645.98
108.27     700.00
108.37     724.00
108.47     723.00
108.57     727.04
108.67     657.90
108.77     680.00
108.87     706.00
108.97     674.00
109.07     643.57
109.17     682.00
109.27     632.00
109.37     659.00
109.47     602.54
109.57     662.40
109.67     596.36
109.77     602.00
109.87     615.40
109.97     558.38
110.07     590.69
110.17     565.86
110.27     598.00
110.37     582.00
110.47     532.45
110.57     519.00
110.67     553.00
110.77     504.89
110.87     582.00
110.97     588.00
111.07     554.50
111.17     540.28
111.27     503.07
111.37     498.94
111.47     539.00
111.57     562.41
111.67     530.00
111.77     547.72
111.87     550.00
111.97     523.00
112.07     551.00
112.17     550.89
112.27     556.14
112.37     624.67
112.47     598.58
112.57     604.00
112.67     588.48
112.77     608.38
112.87     601.05
112.97     662.00
113.07     647.00
113.17     638.00
113.27     723.76
113.37     675.00
113.47     714.00
113.57     673.00
113.67     798.94
113.77     778.00
113.87     881.76
113.97     844.00
114.07     917.00
114.17     966.00
114.27    1063.00
114.37    1132.00
114.47    1207.00
114.57    1365.00
114.67    1512.00
114.77    1591.04
114.87    1888.00
114.97    2189.00
115.07    2379.00
115.17    2613.00
115.27    2836.07
115.37    3072.85
115.47    3486.00
115.57    3783.00
115.67    4076.32
115.77    4520.00
115.87    4753.00
115.97    5267.00
116.07    5682.12
116.17    5968.00
116.27    6153.38
116.37    6528.74
116.47    6730.75
116.57    6683.00
116.67    6733.00
116.77    6760.00
116.87    6587.89
116.97    6408.00
117.07    6220.00
117.17    5879.06
117.27    5459.00
117.37    5214.00
117.47    4823.00
117.57    4582.00
117.67    4132.00
117.77    3843.27
117.87    3396.36
117.97    3138.00
118.07    2825.00
118.17    2621.00
118.27    2190.00
118.37    1992.37
118.47    1766.00
118.57    1566.00
118.67    1321.00
118.77    1206.00
118.87    1134.00
118.97    1032.00
119.07    1011.95
119.17     957.78
119.27     871.60
119.37     836.49
119.47     796.62
119.57     695.00
119.67     670.00
119.77     705.00
119.87     662.00
119.97     587.26
120.07     624.00
120.17     597.00
120.27     628.00
120.37     585.00
120.47     566.00
120.57     559.00
120.67     540.00
120.77     555.00
120.87     606.00
120.97     598.00
121.07     597.39
121.17     593.00
121.27     533.00
121.37     568.00
121.47     548.85
121.57     568.00
121.67     583.00
121.77     615.52
121.87     593.00
121.97     562.01
122.07     606.17
122.17     620.00
122.27     631.00
122.37     659.00
122.47     612.77
122.57     655.00
122.67     641.51
122.77     655.47
122.87     608.00
122.97     658.00
123.07     659.00
123.17     643.00
123.27     678.01
123.37     612.00
123.47     663.00
123.57     647.68
123.67     653.00
123.77     647.00
123.87     618.15
123.97     622.77
124.07     651.00
124.17     619.00
124.27     632.00
124.37     626.00
124.47     577.00
124.57     562.45
124.67     580.07
124.77     609.00
124.87     581.00
124.97     603.00
