  9.97     582.00
 10.07     638.00
 10.17     593.38
 10.27     564.00
 10.37     601.59
 10.47     661.00
 10.57     589.32
 10.67     558.91
 10.77     552.00
 10.87     597.00
 10.97     525.09
 11.07     582.58
 11.17     606.00
 11.27     584.14
 11.37     569.00
 11.47     558.21
 11.57     571.00
 11.67     563.00
 11.77     560.89
 11.87     644.95
 11.97     663.97
 12.07     699.00
 12.17     696.83
 12.27     681.00
 12.37     654.00
 12.47     612.00
 12.57     625.00
 12.67     645.00
 12.77     541.75
 12.87     627.64
 12.97     600.00
 13.07     604.40
 13.17     568.43
 13.27     535.00
 13.37     549.00
 13.47     578.00
 13.57     588.00
 13.67     595.00
 13.77     557.00
 13.87     567.00
 13.97     557.00
 14.07     548.00
 14.17     574.84
 14.27     566.43
 14.37     581.52
 14.47     593.00
 14.57     586.57
 14.67     617.73
 14.77     540.00
 14.87     551.00
 14.97     569.84
 15.07     614.70
 15.17     522.88
 15.27     551.00
 15.37     569.00
 15.47     600.73
 15.57     586.25
 15.67     573.00
 15.77     533.77
 15.87     550.00
 15.97     553.00
 16.07     604.76
 16.17     558.52
 16.27     562.00
 16.37     604.00
 16.47     577.00
 16.57     537.00
 16.67     568.00
 16.77     552.83
 16.87     573.28
 16.97     535.12
 17.07     600.71
 17.17     543.94
 17.27     594.00
 17.37     527.00
 17.47     548.00
 17.57     558.00
 17.67     531.95
 17.77     576.04
 17.87     578.00
 17.97     542.87
 18.07     584.65
 18.17     557.00
 18.27     520.00
 18.37     527.00
 18.47     605.83
 18.57     536.00
 18.67     578.00
 18.77     564.00
 18.87     563.00
 18.97     565.00
 19.07     608.00
 19.17     591.43
 19.27     608.00
 19.37     541.08
 19.47     553.00
 19.57     529.13
 19.67     547.00
 19.77     602.95
 19.87     546.00
 19.97     555.00
 20.07     531.49
 20.17     581.00
 20.27     554.00
 20.37     539.57
 20.47     598.06
 20.57     530.00
 20.67     554.00
 20.77     559.13
 20.87     587.13
 20.97     559.81
 21.07     588.00
 21.17     546.00
 21.27     545.00
 21.37     534.54
 21.47     520.00
 21.57     536.00
 21.67     561.00
 21.77     561.00
 21.87     579.00
 21.97     568.00
 22.07     550.00
 22.17     618.00
 22.27     537.63
 22.37     586.00
 22.47     509.00
 22.57     532.00
 22.67     588.00
 22.77     550.00
 22.87     502.00
 22.97     544.00
 23.07     562.00
 23.17     503.00
 23.27     526.45
 23.37     536.00
 23.47     538.28
 23.57     521.54
 23.67     558.00
 23.77     574.99
 23.87     551.09
 23.97     578.00
 24.07     588.00
 24.17     548.00
 24.27     580.00
 24.37     586.53
 24.47     579.00
 24.57     573.68
 24.67     597.00
 24.77     607.00
 24.87     623.00
 24.97     652.00
 25.07     616.00
 25.17     600.00
 25.27     558.00
 25.37     544.00
 25.47     543.00
 25.57     539.89
 25.67     569.93
 25.77     549.00
 25.87     525.00
 25.97     570.02
 26.07     499.93
 26.17     546.00
 26.27     571.00
 26.37     570.00
 26.47     499.76
 26.57     558.08
 26.67     587.00
 26.77     502.96
 26.87     556.00
 26.97     522.00
 27.07     570.00
 27.17     573.00
 27.27     504.78
 27.37     589.00
 27.47     576.10
 27.57     575.00
 27.67     590.07
 27.77     592.00
 27.87     628.00
 27.97     647.29
 28.07     789.00
 28.17     849.51
 28.27     926.00
 28.37     894.00
 28.47     764.75
 28.57     711.00
 28.67     709.00
 28.77     760.00
 28.87     774.00
 28.97     794.00
 29.07     766.00
 29.17     739.00
 29.27     677.00
 29.37     589.00
 29.47     620.00
 29.57     623.00
 29.67     575.96
 29.77     595.00
 29.87     604.00
 29.97     526.49
 30.07     569.00
 30.17     529.16
 30.27     532.00
 30.37     559.00
 30.47     548.00
 30.57     500.00
 30.67     577.00
 30.77     565.35
 30.87     611.00
 30.97     631.00
 31.07     573.00
 31.17     579.00
 31.27     570.38
 31.37     536.00
 31.47     547.55
 31.57     540.00
 31.67     539.00
 31.77     503.00
 31.87     531.22
 31.97     525.00
 32.07     534.00
 32.17     545.00
 32.27     528.00
 32.37     544.00
 32.47     568.88
 32.57     532.75
 32.67     533.00
 32.77     531.59
 32.87     518.00
 32.97     550.00
 33.07     548.00
 33.17     536.00
 33.27     543.00
 33.37     550.62
 33.47     543.00
 33.57     617.08
 33.67     640.00
 33.77     781.00
 33.87     955.00
 33.97    1049.00
 34.07    1085.55
 34.17     960.83
 34.27     888.72
 34.37     760.00
 34.47     634.00
 34.57     583.00
 34.67     551.44
 34.77     517.62
 34.87     518.00
 34.97     535.00
 35.07     489.00
 35.17     503.00
 35.27     526.00
 35.37     538.00
 35.47     537.00
 35.57     495.00
 35.67     504.00
 35.77     510.00
 35.87     509.00
 35.97     528.00
 36.07     521.00
 36.17     560.00
 36.27     525.95
 36.37     507.00
 36.47     534.00
 36.57     544.39
 36.67     536.00
 36.77     508.43
 36.87     515.37
 36.97     501.00
 37.07     507.00
 37.17     501.00
 37.27     552.85
 37.37     478.82
 37.47     565.83
 37.57     569.00
 37.67     565.00
 37.77     501.86
 37.87     496.43
 37.97     546.84
 38.07     483.00
 38.17     488.98
 38.27     543.92
 38.37     491.34
 38.47     503.00
 38.57     500.00
 38.67     469.78
 38.77     501.00
 38.87     497.00
 38.97     476.00
 39.07     532.00
 39.17     538.00
 39.27     490.00
 39.37     505.00
 39.47     468.29
 39.57     496.00
 39.67     512.00
 39.77     523.00
 39.87     493.71
 39.97     518.30
 40.07     469.00
 40.17     525.00
 40.27     467.00
 40.37     475.05
 40.47     502.00
 40.57     486.00
 40.67     533.00
 40.77     493.00
 40.87     522.00
 40.97     445.00
 41.07     513.23
 41.17     531.00
 41.27     495.00
 41.37     530.69
 41.47     497.32
 41.57     504.00
 41.67     552.00
 41.77     489.00
 41.87     487.00
 41.97     481.00
 42.07     483.00
 42.17     530.47
 42.27     510.00
 42.37     525.00
 42.47     539.00
 42.57     588.00
 42.67     604.28
 42.77     620.00
 42.87     609.79
 42.97     543.82
 43.07     512.00
 43.17     541.00
 43.27     471.00
 43.37     512.00
 43.47     528.00
 43.57     501.00
 43.67     475.00
 43.77     511.74
 43.87     517.00
 43.97     482.72
 44.07     481.00
 44.17     501.00
 44.27     466.32
 44.37     446.00
 44.47     491.00
 44.57     514.00
 44.67     503.66
 44.77     538.00
 44.87     505.99
 44.97     480.00
 45.07     521.00
 45.17     457.00
 45.27     505.34
 45.37     476.00
 45.47     513.00
 45.57     540.40
 45.67     534.41
 45.77     478.00
 45.87     490.00
 45.97     472.19
 46.07     477.00
 46.17     475.68
 46.27     515.00
 46.37     484.00
 46.47     518.00
 46.57     520.00
 46.67     505.00
 46.77     530.00
 46.87     539.00
 46.97     514.00
 47.07     489.31
 47.17     502.00
 47.27     492.00
 47.37     537.00
 47.47     544.00
 47.57     552.00
 47.67     556.92
 47.77     584.00
 47.87     626.83
 47.97     620.00
 48.07     601.00
 48.17     589.00
 48.27     584.90
 48.37     557.00
 48.47     517.00
 48.57     525.00
 48.67     540.00
 48.77     490.14
 48.87     581.23
 48.97     565.00
 49.07     560.48
 49.17     570.00
 49.27     639.00
 49.37     656.00
 49.47     667.04
 49.57     724.42
 49.67     906.28
 49.77    1168.20
 49.87    1485.00
 49.97    1863.00
 50.07    2219.00
 50.17    2505.00
 50.27    2466.76
 50.37    2309.00
 50.47    1915.02
 50.57    1456.68
 50.67    1145.42
 50.77     806.00
 50.87     726.00
 50.97     653.00
 51.07     662.00
 51.17     647.00
 51.27     640.00
 51.37     567.55
 51.47     546.00
 51.57     585.00
 51.67     562.00
 51.77     554.62
 51.87     554.00
 51.97     548.00
 52.07     563.14
 52.17     544.00
 52.27     564.00
 52.37     591.00
 52.47     592.00
 52.57     571.26
 52.67     589.00
 52.77     552.77
 52.87     674.00
 52.97     713.62
 53.07     723.17
 53.17     912.00
 53.27    1042.00
 53.37    1088.29
 53.47    1199.00
 53.57    1168.02
 53.67    1162.50
 53.77     992.14
 53.87     901.99
 53.97     716.00
 54.07     684.00
 54.17     611.00
 54.27     585.00
 54.37     596.00
 54.47     556.15
 54.57     571.12
 54.67     538.00
 54.77     542.00
 54.87     543.00
 54.97     594.00
 55.07     565.00
 55.17     560.67
 55.27     584.61
 55.37     533.00
 55.47     573.00
 55.57     592.00
 55.67     569.82
 55.77     600.00
 55.87     621.17
 55.97     621.00
 56.07     669.00
 56.17     737.00
 56.27     917.93
 56.37    1064.00
 56.47    1377.00
 56.57    1823.00
 56.67    2138.69
 56.77    2474.00
 56.87    2703.89
 56.97    2718.00
 57.07    2415.00
 57.17    1987.00
 57.27    1667.00
 57.37    1244.95
 57.47    1128.00
 57.57     846.24
 57.67     745.00
 57.77     702.00
 57.87     679.00
 57.97     641.30
 58.07     623.54
 58.17     701.00
 58.27     750.22
 58.37     878.84
 58.47     922.00
 58.57    1019.35
 58.67    1195.00
 58.77    1320.00
 58.87    1431.04
 58.97    1543.19
 59.07    1609.00
 59.17    1554.31
 59.27    1431.91
 59.37    1322.83
 59.47    1285.00
 59.57    1180.71
 59.67    1188.50
 59.77    1076.85
 59.87    1283.00
 59.97    1321.00
 60.07    1422.92
 60.17    1575.00
 60.27    1482.18
 60.37    1515.00
 60.47    1374.39
 60.57    1256.00
 60.67    1000.22
 60.77     848.00
 60.87     794.00
 60.97     723.00
 61.07     670.00
 61.17     586.16
 61.27     663.78
 61.37     655.00
 61.47     633.00
 61.57     708.03
 61.67     878.83
 61.77     987.00
 61.87    1191.86
 61.97    1180.00
 62.07    1312.00
 62.17    1434.29
 62.27    1350.00
 62.37    1286.00
 62.47    1160.83
 62.57    1074.81
 62.67     913.26
 62.77     802.00
 62.87     678.00
 62.97     640.00
 63.07     611.00
 63.17     607.34
 63.27     581.77
 63.37     571.00
 63.47     556.51
 63.57     624.00
 63.67     565.00
 63.77     618.00
 63.87     606.00
 63.97     658.00
 64.07     652.46
 64.17     788.00
 64.27     849.00
 64.37     880.00
 64.47    1017.00
 64.57     956.75
 64.67    1024.00
 64.77     962.00
 64.87    1004.08
 64.97     913.00
 65.07     817.00
 65.17     807.00
 65.27     689.75
 65.37     726.09
 65.47     635.92
 65.57     613.00
 65.67     598.00
 65.77     573.00
 65.87     563.00
 65.97     562.00
 66.07     518.00
 66.17     535.00
 66.27     512.00
 66.37     538.47
 66.47     578.00
 66.57     551.00
 66.67     572.00
 66.77     609.22
 66.87     612.00
 66.97     642.55
 67.07     616.70
 67.17     662.00
 67.27     741.00
 67.37     907.54
 67.47    1065.00
 67.57    1238.00
 67.67    1571.00
 67.77    1820.93
 67.87    2117.53
 67.97    2203.18
 68.07    2461.00
 68.17    2439.00
 68.27    2298.00
 68.37    2133.00
 68.47    1705.09
 68.57    1495.00
 68.67    1320.50
 68.77    1056.44
 68.87     911.69
 68.97     803.81
 69.07     662.00
 69.17     619.18
 69.27     638.28
 69.37     596.52
 69.47     532.24
 69.57     590.00
 69.67     584.00
 69.77     565.69
 69.87     587.00
 69.97     589.28
 70.07     588.00
 70.17     558.29
 70.27     520.00
 70.37     548.65
 70.47     555.00
 70.57     557.00
 70.67     571.00
 70.77     561.00
 70.87     623.00
 70.97     600.02
 71.07     650.00
 71.17     707.00
 71.27     845.00
 71.37     889.00
 71.47    1021.37
 71.57    1283.00
 71.67    1383.00
 71.77    1706.14
 71.87    1784.32
 71.97    1927.00
 72.07    1895.00
 72.17    1795.52
 72.27    1766.27
 72.37    1569.54
 72.47    1532.97
 72.57    1281.00
 72.67    1230.00
 72.77    1020.11
 72.87     945.00
 72.97     858.00
 73.07     835.02
 73.17     738.00
 73.27     643.00
 73.37     696.00
 73.47     618.00
 73.57     556.00
 73.67     609.00
 73.77     610.00
 73.87     593.39
 73.97     577.00
 74.07     599.18
 74.17     584.90
 74.27     590.41
 74.37     625.00
 74.47     608.00
 74.57     546.01
 74.67     515.29
 74.77     519.40
 74.87     523.36
 74.97     628.00
 75.07     601.00
 75.17     537.63
 75.27     516.34
 75.37     566.83
 75.47     543.15
 75.57     590.09
 75.67     546.53
 75.77     584.00
 75.87     622.00
 75.97     637.02
 76.07     636.00
 76.17     656.16
 76.27     621.00
 76.37     650.00
 76.47     729.00
 76.57     656.22
 76.67     712.00
 76.77     715.83
 76.87     706.27
 76.97     618.16
 77.07     658.60
 77.17     546.00
 77.27     631.00
 77.37     589.08
 77.47     503.00
 77.57     509.00
 77.67     523.00
 77.77     520.00
 77.87     559.00
 77.97     503.00
 78.07     484.00
 78.17     549.00
 78.27     511.02
 78.37     517.00
 78.47     534.00
 78.57     570.00
 78.67     548.00
 78.77     522.48
 78.87     521.00
 78.97     564.02
 79.07     500.00
 79.17     559.00
 79.27     562.00
 79.37     531.00
 79.47     540.61
 79.57     541.00
 79.67     526.83
 79.77     502.00
 79.87     541.00
 79.97     528.00
 80.07     544.00
 80.17     570.08
 80.27     581.40
 80.37     581.00
 80.47     590.00
 80.57     584.00
 80.67     634.00
 80.77     641.00
 80.87     715.57
 80.97     690.00
 81.07     709.26
 81.17     697.00
 81.27     754.00
 81.37     702.43
 81.47     756.00
 81.57     745.00
 81.67     780.00
 81.77     719.00
 81.87     666.48
 81.97     701.00
 82.07     641.65
 82.17     651.00
 82.27     646.00
 82.37     594.99
 82.47     578.18
 82.57     588.00
 82.67     571.00
 82.77     572.00
 82.87     544.00
 82.97     548.00
 83.07     509.00
 83.17     540.00
 83.27     533.00
 83.37     541.48
 83.47     539.01
 83.57     518.00
 83.67     558.00
 83.77     571.00
 83.87     612.00
 83.97     564.00
 84.07     583.00
 84.17     563.00
 84.27     607.87
 84.37     569.00
 84.47     559.00
 84.57     544.28
 84.67     521.89
 84.77     543.00
 84.87     515.59
 84.97     552.90
 85.07     532.00
 85.17     527.00
 85.27     555.00
 85.37     509.02
 85.47     566.24
 85.57     518.00
 85.67     483.59
 85.77     526.96
 85.87     522.00
 85.97     535.00
 86.07     543.00
 86.17     550.00
 86.27     572.00
 86.37     564.90
 86.47     551.63
 86.57     540.00
 86.67     567.00
 86.77     576.00
 86.87     589.71
 86.97     557.96
 87.07     631.00
 87.17     669.31
 87.27     621.00
 87.37     629.00
 87.47     649.35
 87.57     669.99
 87.67     589.04
 87.77     651.00
 87.87     616.78
 87.97     638.00
 88.07     567.05
 88.17     597.00
 88.27     576.00
 88.37     549.47
 88.47     536.08
 88.57     576.00
 88.67     584.00
 88.77     609.00
 88.87     531.47
 88.97     567.90
 89.07     569.24
 89.17     587.00
 89.27     587.00
 89.37     639.73
 89.47     611.00
 89.57     552.16
 89.67     546.00
 89.77     622.00
 89.87     565.00
 89.97     555.00
 90.07     524.68
 90.17     563.00
 90.27     571.96
 90.37     539.77
 90.47     555.00
 90.57     540.00
 90.67     553.00
 90.77     547.95
 90.87     550.62
 90.97     527.00
 91.07     569.81
 91.17     532.00
 91.27     488.00
 91.37     513.00
 91.47     488.43
 91.57     584.15
 91.67     500.00
 91.77     532.00
 91.87     555.00
 91.97     576.00
 92.07     571.69
 92.17     613.26
 92.27     584.00
 92.37     583.00
 92.47     679.00
 92.57     650.00
 92.67     689.00
 92.77     641.79
 92.87     686.00
 92.97     761.67
 93.07     785.69
 93.17     779.00
 93.27     842.00
 93.37     814.18
 93.47     825.00
 93.57     830.00
 93.67     827.00
 93.77     825.00
 93.87     806.00
 93.97     800.00
 94.07     882.00
 94.17     839.00
 94.27     832.00
 94.37     901.00
 94.47     894.00
 94.57     950.00
 94.67     931.00
 94.77     921.00
 94.87     916.00
 94.97     923.00
 95.07     809.35
 95.17     843.00
 95.27     888.00
 95.37     844.62
 95.47     799.61
 95.57     695.92
 95.67     710.00
 95.77     668.02
 95.87     734.00
 95.97     729.00
 96.07     669.00
 96.17     714.00
 96.27     663.00
 96.37     701.00
 96.47     810.00
 96.57     861.62
 96.67     937.00
 96.77    1018.00
 96.87    1005.36
 96.97    1209.58
 97.07    1271.00
 97.17    1248.00
 97.27    1374.14
 97.37    1460.00
 97.47    1438.00
 97.57    1454.67
 97.67    1372.94
 97.77    1351.17
 97.87    1344.00
 97.97    1353.11
 98.07    1171.88
 98.17    1189.00
 98.27    1059.09
 98.37    1063.00
 98.47    1022.00
 98.57     871.58
 98.67     820.00
 98.77     810.00
 98.87     808.00
 98.97     801.00
 99.07     871.43
 99.17     835.08
 99.27     895.00
 99.37     883.88
 99.47     970.40
 99.57    1113.28
 99.67    1220.00
 99.77    1321.00
 99.87    1434.00
 99.97    1483.47
100.07    1686.00
100.17    1767.00
100.27    1777.04
100.37    2016.36
100.47    2057.00
100.57    2050.00
100.67    2109.00
100.77    2089.00
100.87    2151.38
100.97    1998.26
101.07    2047.31
101.17    1946.98
101.27    1864.05
101.37    1648.29
101.47    1576.00
101.57    1544.38
101.67    1462.00
101.77    1353.00
101.87    1307.00
101.97    1266.00
102.07    1155.00
102.17    1235.58
102.27    1111.00
102.37    1077.83
102.47    1075.00
102.57    1056.00
102.67    1019.00
102.77     969.00
102.87    1042.47
102.97     960.00
103.07     909.22
103.17     915.52
103.27     863.00
103.37     777.50
103.47     795.00
103.57     769.00
103.67     686.00
103.77     713.00
103.87     605.14
103.97     607.00
104.07     601.89
104.17     566.76
104.27     579.00
104.37     603.09
104.47     566.39
104.57     517.41
104.67     505.16
104.77     523.92
104.87     544.47
104.97     555.00
105.07     520.38
105.17     549.00
105.27     529.00
105.37     536.00
105.47     535.36
105.57     541.00
105.67     532.02
105.77     519.48
105.87     591.99
105.97     587.00
106.07     613.37
106.17     548.00
106.27     632.32
106.37     599.00
106.47     603.00
106.57     614.00
106.67     643.00
106.77     663.00
106.87     644.00
106.97     639.91
107.07     643.00
107.17     680.57
107.27     648.91
107.37     664.00
107.47     680.87
107.57     712.25
107.67     681.00
107.77     709.00
107.87     662.00
107.97     648.00
108.07     662.14
108.17     668.00
108.27     694.00
108.37     648.00
108.47     709.00
108.57     700.00
108.67     705.00
108.77     696.00
108.87     732.98
108.97     717.00
109.07     669.00
109.17     632.42
109.27     665.00
109.37     661.89
109.47     665.00
109.57     632.00
109.67     629.00
109.77     643.15
109.87     596.00
109.97     614.99
110.07     567.01
110.17     568.02
110.27     589.92
110.37     569.73
110.47     527.14
110.57     578.00
110.67     559.00
110.77     551.00
110.87     547.00
110.97     584.39
111.07     579.62
111.17     517.05
111.27     517.59
111.37     571.14
111.47     560.00
111.57     507.00
111.67     584.35
111.77     537.01
111.87     529.97
111.97     529.16
112.07     634.00
112.17     561.28
112.27     551.00
112.37     546.27
112.47     570.00
112.57     638.00
112.67     612.00
112.77     595.00
112.87     612.28
112.97     660.00
113.07     709.71
113.17     699.00
113.27     715.00
113.37     692.00
113.47     785.71
113.57     776.00
113.67     781.55
113.77     872.00
113.87     915.00
113.97     963.00
114.07     984.30
114.17    1059.00
114.27    1138.19
114.37    1179.00
114.47    1355.00
114.57    1367.00
114.67    1542.09
114.77    1675.00
114.87    1817.00
114.97    2146.00
115.07    2300.48
115.17    2576.00
115.27    2801.00
115.37    3175.00
115.47    3505.85
115.57    3774.00
115.67    4079.00
115.77    4309.00
115.87    4848.00
115.97    5191.00
116.07    5545.00
116.17    6184.63
116.27    6343.00
116.37    6714.00
116.47    6785.00
116.57    7029.00
116.67    6991.00
116.77    7013.00
116.87    6877.14
116.97    6699.00
117.07    6418.00
117.17    6106.00
117.27    5743.00
117.37    5311.00
117.47    4920.00
117.57    4619.00
117.67    4310.00
117.77    4005.00
117.87    3590.46
117.97    3258.00
118.07    2853.36
118.17    2474.86
118.27    2149.47
118.37    2000.00
118.47    1743.29
118.57    1642.96
118.67    1357.00
118.77    1251.00
118.87    1124.00
118.97    1027.95
119.07     966.79
119.17     939.17
119.27     796.00
119.37     792.00
119.47     691.00
119.57     675.00
119.67     687.00
119.77     635.00
119.87     644.43
119.97     636.00
120.07     617.00
120.17     594.00
120.27     597.94
120.37     640.00
120.47     532.00
120.57     615.00
120.67     558.80
120.77     537.00
120.87     545.00
120.97     599.47
121.07     586.00
121.17     562.00
121.27     582.00
121.37     562.00
121.47     603.00
121.57     538.57
121.67     558.00
121.77     570.98
121.87     553.30
121.97     580.00
122.07     609.00
122.17     609.00
122.27     612.00
122.37     630.00
122.47     620.00
122.57     666.00
122.67     659.00
122.77     627.13
122.87     590.29
122.97     628.00
123.07     634.00
123.17     665.00
123.27     638.00
123.37     666.00
123.47     656.00
123.57     610.00
123.67     633.00
123.77     612.00
123.87     567.53
123.97     599.39
124.07     625.00
124.17     585.73
124.27     577.48
124.37     609.00
124.47     548.36
124.57     583.00
124.67     571.65
124.77     577.00
124.87     570.37
124.97     628.00
