  9.97     627.00
 10.07     621.00
 10.17     572.00
 10.27     547.00
 10.37     523.00
 10.47     582.00
 10.57     573.00
 10.67     622.00
 10.77     508.07
 10.87     529.43
 10.97     556.00
 11.07     607.00
 11.17     596.00
 11.27     586.00
 11.37     639.00
 11.47     606.00
 11.57     573.00
 11.67     556.00
 11.77     628.00
 11.87     593.00
 11.97     627.00
 12.07     696.30
 12.17     647.10
 12.27     721.97
 12.37     625.00
 12.47     648.06
 12.57     572.06
 12.67     600.99
 12.77     614.00
 12.87     553.01
 12.97     552.63
 13.07     532.39
 13.17     574.00
 13.27     573.00
 13.37     578.00
 13.47     524.00
 13.57     528.00
 13.67     559.12
 13.77     545.61
 13.87     536.12
 13.97     582.00
 14.07     524.70
 14.17     600.72
 14.27     536.19
 14.37     530.58
 14.47     540.38
 14.57     514.00
 14.67     534.00
 14.77     562.23
 14.87     568.00
 14.97     531.00
 15.07     507.00
 15.17     624.00
 15.27     551.00
 15.37     557.00
 15.47     581.47
 15.57     575.00
 15.67     529.00
 15.77     609.89
 15.87     547.00
 15.97     596.65
 16.07     558.00
 16.17     564.00
 16.27     584.33
 16.37     570.00
 16.47     589.51
 16.57     583.00
 16.67     549.00
 16.77     580.00
 16.87     583.26
 16.97     532.21
 17.07     556.00
 17.17     602.09
 17.27     558.70
 17.37     519.00
 17.47     542.40
 17.57     529.00
 17.67     547.00
 17.77     520.00
 17.87     550.00
 17.97     528.00
 18.07     583.88
 18.17     543.00
 18.27     595.00
 18.37     527.30
 18.47     571.00
 18.57     569.00
 18.67     586.00
 18.77     539.00
 18.87     600.91
 18.97     509.00
 19.07     545.00
 19.17     543.00
 19.27     588.15
 19.37     528.00
 19.47     535.56
 19.57     551.00
 19.67     556.13
 19.77     533.00
 19.87     532.85
 19.97     545.00
 20.07     577.12
 20.17     546.00
 20.27     531.42
 20.37     558.47
 20.47     520.00
 20.57     579.13
 20.67     537.00
 20.77     574.77
 20.87     541.14
 20.97     542.65
 21.07     572.00
 21.17     547.00
 21.27     586.10
 21.37     522.00
 21.47     541.00
 21.57     567.60
 21.67     510.00
 21.77     577.00
 21.87     579.00
 21.97     572.00
 22.07     523.33
 22.17     530.00
 22.27     545.00
 22.37     539.00
 22.47     560.00
 22.57     533.00
 22.67     572.00
 22.77     558.33
 22.87     566.00
 22.97     568.00
 23.07     574.00
 23.17     547.00
 23.27     540.25
 23.37     611.00
 23.47     522.00
 23.57     589.35
 23.67     532.00
 23.77     553.00
 23.87     564.57
 23.97     599.80
 24.07     544.00
 24.17     573.00
 24.27     598.00
 24.37     558.00
 24.47     602.00
 24.57     601.00
 24.67     642.00
 24.77     657.00
 24.87     615.96
 24.97     649.00
 25.07     571.75
 25.17     583.00
 25.27     565.98
 25.37     601.33
 25.47     570.63
 25.57     566.00
 25.67     556.00
 25.77     566.00
 25.87     553.00
 25.97     511.46
 26.07     562.71
 26.17     530.00
 26.27     586.00
 26.37     620.00
 26.47     545.00
 26.57     637.00
 26.67     584.00
 26.77     520.00
 26.87     546.89
 26.97     563.00
 27.07     566.57
 27.17     603.00
 27.27     581.73
 27.37     572.00
 27.47     549.00
 27.57     590.00
 27.67     523.73
 27.77     520.58
 27.87     614.00
 27.97     656.00
 28.07     680.00
 28.17     762.00
 28.27     931.00
 28.37     950.35
 28.47     896.00
 28.57     777.00
 28.67     750.00
 28.77     687.48
 28.87     721.59
 28.97     778.00
 29.07     765.00
 29.17     742.00
 29.27     702.00
 29.37     680.00
 29.47     558.75
 29.57     546.16
 29.67     585.00
 29.77     575.00
 29.87     584.00
 29.97     565.60
 30.07     614.00
 30.17     576.00
 30.27     588.00
 30.37     591.14
 30.47     609.00
 30.57     593.00
 30.67     511.00
 30.77     571.00
 30.87     640.00
 30.97     601.00
 31.07     568.89
 31.17     627.00
 31.27     537.34
 31.37     593.11
 31.47     534.00
 31.57     498.39
 31.67     558.15
 31.77     594.00
 31.87     574.00
 31.97     525.00
 32.07     545.00
 32.17     547.00
 32.27     550.00
 32.37     553.00
 32.47     605.00
 32.57     513.00
 32.67     536.25
 32.77     527.59
 32.87     545.00
 32.97     510.00
 33.07     518.67
 33.17     495.25
 33.27     586.90
 33.37     524.03
 33.47     561.36
 33.57     532.17
 33.67     574.00
 33.77     728.00
 33.87     788.00
 33.97     849.39
 34.07    1010.00
 34.17    1067.89
 34.27     992.52
 34.37     866.00
 34.47     691.00
 34.57     621.97
 34.67     650.73
 34.77     562.00
 34.87     584.00
 34.97     536.91
 35.07     541.00
 35.17     509.00
 35.27     557.12
 35.37     514.05
 35.47     530.00
 35.57     492.83
 35.67     573.00
 35.77     509.00
 35.87     468.00
 35.97     522.00
 36.07     531.00
 36.17     534.00
 36.27     546.98
 36.37     515.00
 36.47     450.00
 36.57     481.69
 36.67     543.24
 36.77     525.00
 36.87     536.10
 36.97     547.03
 37.07     518.00
 37.17     475.00
 37.27     474.46
 37.37     483.00
 37.47     507.00
 37.57     490.00
 37.67     494.50
 37.77     509.00
 37.87     487.00
 37.97     516.00
 38.07     537.00
 38.17     525.50
 38.27     469.84
 38.37     508.53
 38.47     499.00
 38.57     457.00
 38.67     527.00
 38.77     473.00
 38.87     494.89
 38.97     505.00
 39.07     468.00
 39.17     511.00
 39.27     486.00
 39.37     492.00
 39.47     533.00
 39.57     478.73
 39.67     456.62
 39.77     496.51
 39.87     493.79
 39.97     502.00
 40.07     513.51
 40.17     486.00
 40.27     524.00
 40.37     476.00
 40.47     480.00
 40.57     534.22
 40.67     480.99
 40.77     455.20
 40.87     465.72
 40.97     514.19
 41.07     476.00
 41.17     522.00
 41.27     489.00
 41.37     477.30
 41.47     479.00
 41.57     467.57
 41.67     485.00
 41.77     528.41
 41.87     508.00
 41.97     495.85
 42.07     522.00
 42.17     467.00
 42.27     486.00
 42.37     505.78
 42.47     546.00
 42.57     505.00
 42.67     627.59
 42.77     580.00
 42.87     612.00
 42.97     551.00
 43.07     569.26
 43.17     546.32
 43.27     515.00
 43.37     518.00
 43.47     501.00
 43.57     534.03
 43.67     466.13
 43.77     472.00
 43.87     513.00
 43.97     500.00
 44.07     471.00
 44.17     511.00
 44.27     502.00
 44.37     463.89
 44.47     532.71
 44.57     541.00
 44.67     521.00
 44.77     493.00
 44.87     519.00
 44.97     530.88
 45.07     435.00
 45.17     455.40
 45.27     534.82
 45.37     485.00
 45.47     456.13
 45.57     487.96
 45.67     505.35
 45.77     530.44
 45.87     525.00
 45.97     504.40
 46.07     489.00
 46.17     481.00
 46.27     463.22
 46.37     532.00
 46.47     528.28
 46.57     509.35
 46.67     519.33
 46.77     481.76
 46.87     494.00
 46.97     512.00
 47.07     500.00
 47.17     496.00
 47.27     465.00
 47.37     523.67
 47.47     484.87
 47.57     501.51
 47.67     555.00
 47.77     573.00
 47.87     585.00
 47.97     580.00
 48.07     551.00
 48.17     583.00
 48.27     595.00
 48.37     542.00
 48.47     518.00
 48.57     552.00
 48.67     544.36
 48.77     522.00
 48.87     495.64
 48.97     493.10
 49.07     514.57
 49.17     556.00
 49.27     535.00
 49.37     609.18
 49.47     542.13
 49.57     648.00
 49.67     715.00
 49.77     822.00
 49.87    1071.00
 49.97    1292.00
 50.07    1730.00
 50.17    1985.62
 50.27    2261.75
 50.37    2255.00
 50.47    2152.55
 50.57    1895.42
 50.67    1433.00
 50.77    1107.70
 50.87     898.00
 50.97     798.00
 51.07     672.00
 51.17     610.00
 51.27     662.00
 51.37     596.00
 51.47     578.44
 51.57     612.00
 51.67     579.13
 51.77     545.00
 51.87     530.44
 51.97     511.00
 52.07     540.00
 52.17     500.92
 52.27     537.00
 52.37     549.00
 52.47     554.00
 52.57     578.00
 52.67     555.00
 52.77     577.00
 52.87     561.87
 52.97     637.00
 53.07     689.00
 53.17     786.00
 53.27     886.00
 53.37     971.00
 53.47    1073.06
 53.57    1178.00
 53.67    1256.30
 53.77    1215.55
 53.87    1019.99
 53.97     966.00
 54.07     883.33
 54.17     717.00
 54.27     659.00
 54.37     613.84
 54.47     634.00
 54.57     618.00
 54.67     555.00
 54.77     565.00
 54.87     540.00
 54.97     584.00
 55.07     586.68
 55.17     566.00
 55.27     587.00
 55.37     583.00
 55.47     579.00
 55.57     564.78
 55.67     570.00
 55.77     543.72
 55.87     600.00
 55.97     636.00
 56.07     609.00
 56.17     696.00
 56.27     730.00
 56.37     973.58
 56.47    1077.00
 56.57    1311.00
 56.67    1612.00
 56.77    1965.00
 56.87    2342.79
 56.97    2500.00
 57.07    2560.01
 57.17    2367.97
 57.27    2182.00
 57.37    1762.00
 57.47    1459.00
 57.57    1175.00
 57.67     995.00
 57.77     870.00
 57.87     766.15
 57.97     755.00
 58.07     648.51
 58.17     684.95
 58.27     731.00
 58.37     793.15
 58.47     836.86
 58.57     806.00
 58.67     966.10
 58.77    1001.00
 58.87    1106.00
 58.97    1218.76
 59.07    1285.00
 59.17    1281.76
 59.27    1329.00
 59.37    1262.00
 59.47    1238.00
 59.57    1232.00
 59.67    1209.00
 59.77    1165.29
 59.87    1190.00
 59.97    1294.00
 60.07    1380.00
 60.17    1431.00
 60.27    1547.59
 60.37    1532.00
 60.47    1488.33
 60.57    1433.34
 60.67    1350.32
 60.77    1194.75
 60.87    1008.00
 60.97     851.00
 61.07     761.00
 61.17     709.14
 61.27     655.00
 61.37     682.60
 61.47     663.00
 61.57     735.98
 61.67     725.62
 61.77     788.76
 61.87     965.00
 61.97     963.00
 62.07    1145.02
 62.17    1246.92
 62.27    1235.00
 62.37    1299.00
 62.47    1312.00
 62.57    1269.86
 62.67    1118.04
 62.77     936.23
 62.87     809.97
 62.97     822.00
 63.07     686.00
 63.17     639.00
 63.27     593.00
 63.37     618.00
 63.47     560.00
 63.57     570.00
 63.67     582.00
 63.77     593.24
 63.87     608.00
 63.97     606.00
 64.07     624.00
 64.17     704.00
 64.27     745.25
 64.37     760.29
 64.47     910.00
 64.57     910.00
 64.67     914.24
 64.77    1029.20
 64.87     948.28
 64.97    1039.72
 65.07     938.00
 65.17     874.00
 65.27     853.00
 65.37     810.61
 65.47     722.00
 65.57     692.48
 65.67     657.00
 65.77     608.00
 65.87     674.00
 65.97     593.00
 66.07     565.00
 66.17     599.00
 66.27     543.83
 66.37     521.00
 66.47     567.00
 66.57     557.83
 66.67     564.00
 66.77     513.00
 66.87     551.00
 66.97     638.00
 67.07     635.49
 67.17     579.00
 67.27     667.57
 67.37     746.97
 67.47     815.53
 67.57     994.00
 67.67    1142.00
 67.77    1343.81
 67.87    1597.00
 67.97    1909.34
 68.07    2065.00
 68.17    2299.00
 68.27    2366.99
 68.37    2392.00
 68.47    2169.00
 68.57    1990.00
 68.67    1647.60
 68.77    1502.00
 68.87    1188.34
 68.97    1042.00
 69.07     937.89
 69.17     811.00
 69.27     755.66
 69.37     687.48
 69.47     638.00
 69.57     583.04
 69.67     591.00
 69.77     541.59
 69.87     568.00
 69.97     533.00
 70.07     606.19
 70.17     588.89
 70.27     602.80
 70.37     589.00
 70.47     596.00
 70.57     553.00
 70.67     604.87
 70.77     627.00
 70.87     581.00
 70.97     605.00
 71.07     635.00
 71.17     633.00
 71.27     722.72
 71.37     751.15
 71.47     869.52
 71.57    1015.00
 71.67    1142.00
 71.77    1329.00
 71.87    1520.57
 71.97    1604.00
 72.07    1850.05
 72.17    1897.51
 72.27    1882.00
 72.37    1760.00
 72.47    1739.00
 72.57    1498.46
 72.67    1487.00
 72.77    1217.37
 72.87    1157.00
 72.97     989.00
 73.07     836.00
 73.17     791.00
 73.27     733.00
 73.37     650.00
 73.47     650.00
 73.57     587.99
 73.67     640.00
 73.77     543.00
 73.87     601.51
 73.97     580.50
 74.07     624.00
 74.17     545.53
 74.27     592.00
 74.37     552.00
 74.47     586.00
 74.57     564.00
 74.67     612.00
 74.77     590.00
 74.87     651.00
 74.97     619.41
 75.07     651.00
 75.17     621.00
 75.27     536.07
 75.37     571.92
 75.47     519.86
 75.57     522.49
 75.67     566.95
 75.77     589.00
 75.87     545.00
 75.97     582.00
 76.07     601.00
 76.17     573.00
 76.27     585.00
 76.37     595.10
 76.47     621.95
 76.57     659.91
 76.67     667.75
 76.77     702.00
 76.87     666.07
 76.97     730.00
 77.07     700.41
 77.17     680.59
 77.27     626.00
 77.37     563.00
 77.47     589.05
 77.57     527.05
 77.67     514.77
 77.77     540.00
 77.87     511.00
 77.97     523.73
 78.07     482.00
 78.17     526.00
 78.27     480.00
 78.37     517.00
 78.47     504.00
 78.57     510.00
 78.67     503.00
 78.77     478.00
 78.87     539.00
 78.97     528.00
 79.07     496.00
 79.17     522.00
 79.27     479.00
 79.37     520.00
 79.47     462.37
 79.57     520.00
 79.67     463.00
 79.77     500.00
 79.87     500.00
 79.97     481.00
 80.07     537.00
 80.17     517.00
 80.27     494.00
 80.37     572.61
 80.47     537.00
 80.57     610.00
 80.67     561.42
 80.77     599.00
 80.87     608.00
 80.97     655.00
 81.07     675.00
 81.17     660.00
 81.27     736.18
 81.37     743.00
 81.47     764.94
 81.57     720.00
 81.67     765.00
 81.77     684.00
 81.87     715.81
 81.97     681.00
 82.07     694.00
 82.17     702.00
 82.27     628.00
 82.37     679.00
 82.47     608.16
 82.57     592.00
 82.67     618.54
 82.77     569.00
 82.87     593.02
 82.97     535.00
 83.07     575.33
 83.17     538.00
 83.27     523.00
 83.37     514.00
 83.47     531.00
 83.57     533.00
 83.67     538.00
 83.77     532.00
 83.87     533.00
 83.97     564.30
 84.07     550.00
 84.17     564.00
 84.27     558.00
 84.37     571.00
 84.47     574.00
 84.57     584.00
 84.67     590.00
 84.77     568.00
 84.87     511.65
 84.97     517.46
 85.07     550.00
 85.17     489.85
 85.27     509.00
 85.37     475.00
 85.47     485.86
 85.57     500.85
 85.67     518.00
 85.77     494.00
 85.87     494.00
 85.97     518.00
 86.07     533.00
 86.17     464.44
 86.27     503.94
 86.37     513.00
 86.47     565.00
 86.57     496.61
 86.67     531.00
 86.77     494.00
 86.87     517.00
 86.97     547.62
 87.07     584.82
 87.17     571.00
 87.27     535.41
 87.37     596.98
 87.47     573.00
 87.57     662.00
 87.67     654.00
 87.77     603.63
 87.87     593.00
 87.97     630.65
 88.07     555.00
 88.17     624.00
 88.27     617.00
 88.37     567.00
 88.47     581.00
 88.57     592.00
 88.67     578.00
 88.77     526.12
 88.87     562.55
 88.97     543.00
 89.07     542.93
 89.17     600.00
 89.27     562.00
 89.37     571.00
 89.47     622.00
 89.57     615.00
 89.67     558.00
 89.77     575.00
 89.87     529.82
 89.97     564.00
 90.07     568.00
 90.17     563.55
 90.27     550.00
 90.37     526.68
 90.47     540.00
 90.57     529.65
 90.67     493.00
 90.77     550.00
 90.87     482.48
 90.97     504.89
 91.07     525.34
 91.17     493.27
 91.27     499.59
 91.37     505.00
 91.47     518.00
 91.57     452.00
 91.67     506.00
 91.77     496.00
 91.87     549.23
 91.97     478.78
 92.07     531.08
 92.17     567.00
 92.27     484.00
 92.37     506.00
 92.47     559.00
 92.57     551.00
 92.67     547.50
 92.77     598.00
 92.87     646.00
 92.97     626.00
 93.07     634.41
 93.17     661.00
 93.27     670.37
 93.37     713.00
 93.47     728.00
 93.57     689.00
 93.67     770.00
 93.77     714.00
 93.87     766.00
 93.97     802.00
 94.07     786.00
 94.17     829.00
 94.27     843.00
 94.37     841.00
 94.47     827.30
 94.57     862.75
 94.67     833.00
 94.77     844.50
 94.87     869.02
 94.97     831.24
 95.07     872.00
 95.17     937.00
 95.27     852.00
 95.37     810.22
 95.47     805.61
 95.57     811.00
 95.67     824.00
 95.77     777.00
 95.87     739.00
 95.97     703.33
 96.07     690.00
 96.17     705.00
 96.27     711.00
 96.37     707.01
 96.47     723.00
 96.57     700.00
 96.67     739.74
 96.77     825.00
 96.87     842.17
 96.97     989.31
 97.07    1005.13
 97.17    1047.00
 97.27    1163.00
 97.37    1222.00
 97.47    1259.15
 97.57    1313.08
 97.67    1394.00
 97.77    1362.74
 97.87    1425.00
 97.97    1468.89
 98.07    1353.00
 98.17    1264.90
 98.27    1274.00
 98.37    1226.00
 98.47    1169.00
 98.57    1089.87
 98.67    1045.00
 98.77    1009.00
 98.87     951.00
 98.97     924.54
 99.07     866.74
 99.17     840.79
 99.27     876.47
 99.37     829.00
 99.47     936.00
 99.57     940.00
 99.67     960.00
 99.77    1138.00
 99.87    1156.28
 99.97    1135.00
100.07    1287.00
100.17    1347.00
100.27    1442.00
100.37    1658.00
100.47    1711.00
100.57    1757.00
100.67    1787.00
100.77    1984.00
100.87    1895.44
100.97    1960.00
101.07    1993.00
101.17    2013.53
101.27    1905.00
101.37    1907.08
101.47    1806.00
101.57    1791.87
101.67    1690.00
101.77    1587.00
101.87    1512.32
101.97    1535.93
102.07    1367.11
102.17    1325.29
102.27    1255.00
102.37    1250.58
102.47    1233.92
102.57    1179.00
102.67    1218.29
102.77    1133.66
102.87    1167.97
102.97    1155.77
103.07    1043.00
103.17    1064.00
103.27    1061.00
103.37     969.00
103.47     958.00
103.57     940.44
103.67     801.71
103.77     830.00
103.87     755.00
103.97     741.88
104.07     676.00
104.17     704.00
104.27     602.56
104.37     575.00
104.47     653.00
104.57     556.00
104.67     566.00
104.77     564.00
104.87     538.33
104.97     583.00
105.07     481.89
105.17     477.00
105.27     545.79
105.37     548.00
105.47     530.00
105.57     521.00
105.67     498.00
105.77     558.00
105.87     566.65
105.97     525.00
106.07     531.56
106.17     546.00
106.27     578.69
106.37     547.00
106.47     554.00
106.57     570.00
106.67     565.00
106.77     588.38
106.87     606.00
106.97     600.00
107.07     604.00
107.17     688.08
107.27     681.82
107.37     605.00
107.47     673.10
107.57     638.28
107.67     645.25
107.77     639.00
107.87     690.00
107.97     718.27
108.07     664.00
108.17     671.00
108.27     672.00
108.37     629.00
108.47     717.99
108.57     690.00
108.67     727.43
108.77     714.00
108.87     671.00
108.97     674.00
109.07     705.00
109.17     705.53
109.27     648.13
109.37     706.00
109.47     664.00
109.57     675.00
109.67     702.17
109.77     689.00
109.87     667.37
109.97     655.00
110.07     644.00
110.17     656.37
110.27     614.00
110.37     553.84
110.47     608.00
110.57     551.35
110.67     542.37
110.77     570.00
110.87     586.70
110.97     550.00
111.07     556.00
111.17     570.00
111.27     558.28
111.37     549.00
111.47     530.75
111.57     549.18
111.67     554.99
111.77     538.43
111.87     589.00
111.97     570.00
112.07     528.87
112.17     596.54
112.27     507.00
112.37     548.00
112.47     606.24
112.57     582.00
112.67     549.00
112.77     540.07
112.87     581.00
112.97     609.00
113.07     594.00
113.17     636.00
113.27     635.02
113.37     611.90
113.47     657.22
113.57     693.99
113.67     619.37
113.77     637.94
113.87     645.00
113.97     729.96
114.07     703.00
114.17     734.00
114.27     779.12
114.37     846.00
114.47     878.00
114.57    1009.99
114.67    1001.90
114.77    1171.00
114.87    1307.00
114.97    1361.90
115.07    1562.00
115.17    1678.87
115.27    1967.00
115.37    2244.00
115.47    2358.00
115.57    2685.35
115.67    3070.00
115.77    3419.00
115.87    3782.00
115.97    4068.00
116.07    4409.00
116.17    4670.00
116.27    5171.17
116.37    5452.00
116.47    5879.01
116.57    6055.00
116.67    6356.93
116.77    6736.00
116.87    6824.14
116.97    6736.21
117.07    6830.00
117.17    6892.00
117.27    6670.00
117.37    6473.92
117.47    6417.89
117.57    6108.00
117.67    5619.00
117.77    5432.65
117.87    5100.36
117.97    4747.00
118.07    4440.00
118.17    4087.00
118.27    3766.25
118.37    3244.00
118.47    2988.00
118.57    2664.40
118.67    2451.64
118.77    2111.00
118.87    2015.32
118.97    1733.63
119.07    1535.45
119.17    1425.02
119.27    1199.00
119.37    1191.00
119.47    1096.00
119.57    1009.00
119.67     937.00
119.77     887.38
119.87     886.00
119.97     720.52
120.07     704.00
120.17     725.00
120.27     691.00
120.37     614.57
120.47     622.00
120.57     675.00
120.67     618.00
120.77     645.00
120.87     573.00
120.97     595.00
121.07     627.45
121.17     558.00
121.27     557.00
121.37     541.81
121.47     563.00
121.57     570.16
121.67     551.81
121.77     530.00
121.87     565.00
121.97     556.00
122.07     557.00
122.17     597.00
122.27     561.76
122.37     577.89
122.47     646.00
122.57     613.00
122.67     589.00
122.77     643.29
122.87     604.30
122.97     668.46
123.07     656.00
123.17     636.24
123.27     639.00
123.37     681.24
123.47     631.57
123.57     624.00
123.67     673.00
123.77     659.00
123.87     580.15
123.97     653.00
124.07     637.00
124.17     660.72
124.27     614.00
124.37     609.02
124.47     595.00
124.57     622.00
124.67     579.00
124.77     636.47
124.87     616.00
124.97     588.00
