  9.97     605.00
 10.07     575.73
 10.17     534.83
 10.27     598.99
 10.37     584.00
 10.47     525.82
 10.57     588.00
 10.67     622.00
 10.77     590.00
 10.87     583.00
 10.97     578.90
 11.07     563.64
 11.17     587.00
 11.27     538.97
 11.37     541.68
 11.47     574.00
 11.57     564.00
 11.67     619.11
 11.77     561.20
 11.87     624.00
 11.97     639.00
 12.07     697.00
 12.17     642.00
 12.27     689.00
 12.37     660.00
 12.47     669.00
 12.57     567.18
 12.67     588.00
 12.77     620.31
 12.87     589.00
 12.97     547.00
 13.07     532.65
 13.17     535.00
 13.27     595.15
 13.37     615.00
 13.47     586.42
 13.57     577.00
 13.67     564.00
 13.77     572.96
 13.87     570.00
 13.97     577.00
 14.07     515.00
 14.17     563.00
 14.27     557.00
 14.37     549.00
 14.47     523.64
 14.57     530.00
 14.67     570.00
 14.77     546.00
 14.87     525.61
 14.97     579.00
 15.07     601.00
 15.17     526.71
 15.27     535.00
 15.37     531.82
 15.47     568.83
 15.57     589.00
 15.67     565.00
 15.77     549.37
 15.87     548.00
 15.97     583.00
 16.07     555.00
 16.17     559.00
 16.27     584.92
 16.37     600.55
 16.47     581.00
 16.57     556.00
 16.67     526.25
 16.77     545.00
 16.87     586.00
 16.97     534.00
 17.07     592.60
 17.17     588.00
 17.27     547.00
 17.37     548.00
 17.47     583.00
 17.57     523.00
 17.67     566.09
 17.77     610.00
 17.87     518.28
 17.97     535.32
 18.07     597.00
 18.17     540.85
 18.27     577.27
 18.37     530.79
 18.47     565.00
 18.57     528.89
 18.67     564.84
 18.77     558.00
 18.87     549.00
 18.97     541.00
 19.07     518.21
 19.17     597.43
 19.27     540.00
 19.37     514.42
 19.47     561.15
 19.57     556.00
 19.67     519.00
 19.77     546.00
 19.87     533.83
 19.97     486.00
 20.07     547.00
 20.17     564.00
 20.27     525.54
 20.37     532.92
 20.47     569.44
 20.57     530.15
 20.67     552.00
 20.77     550.00
 20.87     551.00
 20.97     515.00
 21.07     580.00
 21.17     544.00
 21.27     517.00
 21.37     571.86
 21.47     541.00
 21.57     537.71
 21.67     565.00
 21.77     574.00
 21.87     561.00
 21.97     518.00
 22.07     555.00
 22.17     574.08
 22.27     525.00
 22.37     571.00
 22.47     571.00
 22.57     558.00
 22.67     589.16
 22.77     518.14
 22.87     555.00
 22.97     501.00
 23.07     491.00
 23.17     544.00
 23.27     506.64
 23.37     582.00
 23.47     557.00
 23.57     572.98
 23.67     526.00
 23.77     514.26
 23.87     545.00
 23.97     552.00
 24.07     533.42
 24.17     540.28
 24.27     592.00
 24.37     585.00
 24.47     587.00
 24.57     571.00
 24.67     601.00
 24.77     626.00
 24.87     623.00
 24.97     595.00
 25.07     618.00
 25.17     578.00
 25.27     577.00
 25.37     546.00
 25.47     545.00
 25.57     524.00
 25.67     543.00
 25.77     575.00
 25.87     563.00
 25.97     540.00
 26.07     561.00
 26.17     573.00
 26.27     528.00
 26.37     542.00
 26.47     534.00
 26.57     579.76
 26.67     549.88
 26.77     581.42
 26.87     572.00
 26.97     546.74
 27.07     527.00
 27.17     541.88
 27.27     525.07
 27.37     513.00
 27.47     517.71
 27.57     530.42
 27.67     575.94
 27.77     616.00
 27.87     611.00
 27.97     702.00
 28.07     803.00
 28.17     933.83
 28.27     977.43
 28.37     875.74
 28.47     783.28
 28.57     758.38
 28.67     655.00
 28.77     697.25
 28.87     800.00
 28.97     792.74
 29.07     782.00
 29.17     689.00
 29.27     643.00
 29.37     637.00
 29.47     555.00
 29.57     604.00
 29.67     602.47
 29.77     538.86
 29.87     637.00
 29.97     587.51
 30.07     546.00
 30.17     563.11
 30.27     547.00
 30.37     555.00
 30.47     555.53
 30.57     629.00
 30.67     569.00
 30.77     572.52
 30.87     564.26
 30.97     578.67
 31.07     600.00
 31.17     578.00
 31.27     544.00
 31.37     565.41
 31.47     531.87
 31.57     529.00
 31.67     549.40
 31.77     499.00
 31.87     549.00
 31.97     529.46
 32.07     508.49
 32.17     576.00
 32.27     510.67
 32.37     511.85
 32.47     528.71
 32.57     521.33
 32.67     570.40
 32.77     525.00
 32.87     544.60
 32.97     557.00
 33.07     503.65
 33.17     513.00
 33.27     546.00
 33.37     526.00
 33.47     548.00
 33.57     605.30
 33.67     689.08
 33.77     774.00
 33.87     904.59
 33.97    1033.35
 34.07    1030.00
 34.17    1015.00
 34.27     892.00
 34.37     795.00
 34.47     672.00
 34.57     624.82
 34.67     579.00
 34.77     539.05
 34.87     554.00
 34.97     523.36
 35.07     553.38
 35.17     499.00
 35.27     551.00
 35.37     561.13
 35.47     547.00
 35.57     525.34
 35.67     540.00
 35.77     502.00
 35.87     494.00
 35.97     555.00
 36.07     505.00
 36.17     517.67
 36.27     532.67
 36.37     490.00
 36.47     485.00
 36.57     518.93
 36.67     512.00
 36.77     515.00
 36.87     520.00
 36.97     487.00
 37.07     537.00
 37.17     525.00
 37.27     543.62
 37.37     555.33
 37.47     526.00
 37.57     511.00
 37.67     500.00
 37.77     505.00
 37.87     534.00
 37.97     542.00
 38.07     497.00
 38.17     495.00
 38.27     494.00
 38.37     487.00
 38.47     502.31
 38.57     552.00
 38.67     519.11
 38.77     524.85
 38.87     480.18
 38.97     485.00
 39.07     493.00
 39.17     524.00
 39.27     546.00
 39.37     503.00
 39.47     508.00
 39.57     508.00
 39.67     513.00
 39.77     473.34
 39.87     474.82
 39.97     530.12
 40.07     489.00
 40.17     532.20
 40.27     503.00
 40.37     496.73
 40.47     506.00
 40.57     518.00
 40.67     498.38
 40.77     492.81
 40.87     456.00
 40.97     499.00
 41.07     504.00
 41.17     497.00
 41.27     477.17
 41.37     529.00
 41.47     508.00
 41.57     477.28
 41.67     509.00
 41.77     459.00
 41.87     505.00
 41.97     492.00
 42.07     524.00
 42.17     504.23
 42.27     585.39
 42.37     533.57
 42.47     566.29
 42.57     633.00
 42.67     658.79
 42.77     592.00
 42.87     573.00
 42.97     550.00
 43.07     566.00
 43.17     505.00
 43.27     495.00
 43.37     493.00
 43.47     491.00
 43.57     508.02
 43.67     460.00
 43.77     542.00
 43.87     516.00
 43.97     548.35
 44.07     479.00
 44.17     481.39
 44.27     537.00
 44.37     540.56
 44.47     522.54
 44.57     500.00
 44.67     540.54
 44.77     511.00
 44.87     465.90
 44.97     526.00
 45.07     497.00
 45.17     547.45
 45.27     492.44
 45.37     490.61
 45.47     510.00
 45.57     531.00
 45.67     522.00
 45.77     534.00
 45.87     473.00
 45.97     501.00
 46.07     477.00
 46.17     487.00
 46.27     524.00
 46.37     499.00
 46.47     504.00
 46.57     470.35
 46.67     512.00
 46.77     544.24
 46.87     519.00
 46.97     476.69
 47.07     500.00
 47.17     538.66
 47.27     486.00
 47.37     553.07
 47.47     551.47
 47.57     543.00
 47.67     597.00
 47.77     582.47
 47.87     609.00
 47.97     605.47
 48.07     593.00
 48.17     593.21
 48.27     556.00
 48.37     577.00
 48.47     558.25
 48.57     529.00
 48.67     556.65
 48.77     564.00
 48.87     556.00
 48.97     544.00
 49.07     593.00
 49.17     568.00
 49.27     552.00
 49.37     591.49
 49.47     676.00
 49.57     774.00
 49.67     841.00
 49.77    1088.17
 49.87    1441.03
 49.97    1791.93
 50.07    2137.73
 50.17    2463.26
 50.27    2402.00
 50.37    2264.56
 50.47    1866.11
 50.57    1374.00
 50.67    1130.07
 50.77     859.00
 50.87     773.00
 50.97     679.00
 51.07     669.00
 51.17     649.00
 51.27     627.00
 51.37     593.00
 51.47     581.00
 51.57     549.00
 51.67     550.00
 51.77     547.00
 51.87     537.00
 51.97     501.72
 52.07     572.00
 52.17     604.00
 52.27     556.00
 52.37     566.00
 52.47     524.63
 52.57     540.00
 52.67     541.92
 52.77     634.54
 52.87     614.38
 52.97     705.00
 53.07     840.00
 53.17     927.98
 53.27    1011.00
 53.37    1082.59
 53.47    1179.00
 53.57    1257.78
 53.67    1157.67
 53.77    1023.00
 53.87     939.00
 53.97     786.03
 54.07     676.64
 54.17     655.00
 54.27     634.00
 54.37     600.57
 54.47     556.00
 54.57     540.00
 54.67     516.14
 54.77     556.92
 54.87     554.00
 54.97     555.92
 55.07     580.00
 55.17     550.08
 55.27     515.23
 55.37     566.00
 55.47     572.00
 55.57     583.00
 55.67     542.49
 55.77     566.25
 55.87     617.00
 55.97     626.00
 56.07     684.00
 56.17     753.00
 56.27     883.41
 56.37    1093.00
 56.47    1512.40
 56.57    1783.40
 56.67    2144.00
 56.77    2476.00
 56.87    2582.00
 56.97    2564.00
 57.07    2448.00
 57.17    2054.00
 57.27    1651.00
 57.37    1316.00
 57.47    1039.00
 57.57     901.00
 57.67     791.00
 57.77     740.00
 57.87     720.68
 57.97     658.13
 58.07     751.00
 58.17     702.93
 58.27     733.00
 58.37     810.00
 58.47     875.00
 58.57     984.00
 58.67    1067.00
 58.77    1267.02
 58.87    1285.00
 58.97    1368.00
 59.07    1456.00
 59.17    1402.00
 59.27    1286.95
 59.37    1292.00
 59.47    1220.00
 59.57    1201.00
 59.67    1162.00
 59.77    1127.00
 59.87    1227.00
 59.97    1256.07
 60.07    1430.00
 60.17    1552.00
 60.27    1543.00
 60.37    1570.00
 60.47    1336.03
 60.57    1216.00
 60.67    1095.00
 60.77     916.52
 60.87     844.00
 60.97     689.84
 61.07     691.47
 61.17     666.00
 61.27     652.00
 61.37     680.00
 61.47     657.99
 61.57     713.71
 61.67     891.83
 61.77    1035.00
 61.87    1136.00
 61.97    1233.72
 62.07    1386.70
 62.17    1362.00
 62.27    1309.00
 62.37    1326.98
 62.47    1201.99
 62.57    1039.00
 62.67     877.00
 62.77     855.15
 62.87     701.00
 62.97     691.11
 63.07     578.96
 63.17     570.00
 63.27     597.77
 63.37     571.53
 63.47     550.00
 63.57     567.00
 63.67     560.38
 63.77     635.96
 63.87     626.00
 63.97     612.31
 64.07     704.00
 64.17     731.80
 64.27     882.99
 64.37     892.59
 64.47     914.47
 64.57     937.00
 64.67    1070.95
 64.77    1098.00
 64.87     941.61
 64.97     899.00
 65.07     880.00
 65.17     774.00
 65.27     748.00
 65.37     743.95
 65.47     651.00
 65.57     618.00
 65.67     597.99
 65.77     555.06
 65.87     534.00
 65.97     548.11
 66.07     613.19
 66.17     546.00
 66.27     532.00
 66.37     572.00
 66.47     600.83
 66.57     541.76
 66.67     580.00
 66.77     569.00
 66.87     641.41
 66.97     628.00
 67.07     642.24
 67.17     641.00
 67.27     837.62
 67.37     944.00
 67.47    1053.00
 67.57    1263.00
 67.67    1546.00
 67.77    1798.76
 67.87    2028.65
 67.97    2227.00
 68.07    2466.02
 68.17    2378.33
 68.27    2229.76
 68.37    2123.00
 68.47    1869.00
 68.57    1531.00
 68.67    1300.19
 68.77    1102.00
 68.87     879.86
 68.97     825.00
 69.07     712.00
 69.17     636.00
 69.27     616.00
 69.37     598.11
 69.47     601.00
 69.57     607.00
 69.67     541.28
 69.77     599.00
 69.87     547.00
 69.97     560.11
 70.07     612.89
 70.17     572.00
 70.27     546.00
 70.37     578.11
 70.47     575.00
 70.57     567.12
 70.67     602.00
 70.77     648.00
 70.87     573.00
 70.97     636.00
 71.07     709.89
 71.17     736.00
 71.27     800.00
 71.37     916.30
 71.47    1095.00
 71.57    1207.00
 71.67    1368.00
 71.77    1689.00
 71.87    1892.00
 71.97    1815.00
 72.07    1881.63
 72.17    1835.51
 72.27    1801.66
 72.37    1667.00
 72.47    1519.00
 72.57    1312.00
 72.67    1106.51
 72.77    1002.00
 72.87     879.15
 72.97     827.95
 73.07     772.33
 73.17     719.00
 73.27     659.00
 73.37     633.67
 73.47     631.00
 73.57     619.00
 73.67     573.00
 73.77     630.00
 73.87     576.00
 73.97     561.00
 74.07     568.00
 74.17     534.97
 74.27     545.87
 74.37     558.78
 74.47     620.00
 74.57     636.00
 74.67     637.00
 74.77     611.00
 74.87     610.00
 74.97     546.61
 75.07     605.00
 75.17     587.00
 75.27     525.37
 75.37     582.33
 75.47     571.00
 75.57     590.00
 75.67     591.00
 75.77     572.00
 75.87     605.00
 75.97     662.00
 76.07     646.83
 76.17     688.07
 76.27     706.29
 76.37     706.34
 76.47     737.00
 76.57     690.17
 76.67     714.00
 76.77     698.00
 76.87     654.00
 76.97     635.52
 77.07     596.00
 77.17     599.00
 77.27     569.00
 77.37     592.00
 77.47     544.00
 77.57     557.00
 77.67     501.00
 77.77     553.00
 77.87     498.00
 77.97     564.05
 78.07     510.00
 78.17     516.91
 78.27     512.00
 78.37     489.69
 78.47     567.00
 78.57     493.00
 78.67     548.46
 78.77     546.00
 78.87     554.83
 78.97     530.00
 79.07     548.99
 79.17     502.00
 79.27     561.21
 79.37     496.35
 79.47     538.00
 79.57     545.00
 79.67     519.00
 79.77     551.00
 79.87     570.00
 79.97     515.00
 80.07     516.00
 80.17     555.00
 80.27     556.00
 80.37     550.00
 80.47     594.00
 80.57     607.00
 80.67     617.20
 80.77     654.33
 80.87     653.76
 80.97     668.00
 81.07     745.02
 81.17     699.00
 81.27     750.00
 81.37     732.99
 81.47     723.00
 81.57     729.00
 81.67     703.09
 81.77     744.32
 81.87     711.00
 81.97     673.00
 82.07     726.00
 82.17     699.00
 82.27     640.00
 82.37     622.00
 82.47     593.00
 82.57     615.00
 82.67     584.00
 82.77     570.00
 82.87     542.00
 82.97     611.00
 83.07     566.00
 83.17     596.00
 83.27     543.00
 83.37     546.00
 83.47     516.80
 83.57     562.68
 83.67     551.00
 83.77     551.00
 83.87     550.00
 83.97     570.00
 84.07     595.00
 84.17     562.00
 84.27     541.35
 84.37     549.64
 84.47     586.99
 84.57     551.00
 84.67     529.06
 84.77     523.00
 84.87     529.19
 84.97     509.00
 85.07     544.00
 85.17     517.95
 85.27     513.00
 85.37     504.00
 85.47     559.17
 85.57     532.09
 85.67     567.79
 85.77     535.00
 85.87     536.19
 85.97     498.39
 86.07     547.67
 86.17     514.00
 86.27     524.00
 86.37     507.00
 86.47     550.00
 86.57     486.00
 86.67     558.00
 86.77     589.00
 86.87     610.00
 86.97     573.84
 87.07     577.75
 87.17     619.33
 87.27     625.62
 87.37     630.00
 87.47     691.00
 87.57     676.08
 87.67     629.00
 87.77     595.00
 87.87     636.00
 87.97     649.00
 88.07     645.00
 88.17     630.00
 88.27     532.27
 88.37     558.00
 88.47     587.00
 88.57     602.00
 88.67     599.00
 88.77     581.00
 88.87     539.72
 88.97     577.84
 89.07     578.00
 89.17     630.00
 89.27     592.00
 89.37     595.00
 89.47     601.00
 89.57     557.19
 89.67     610.00
 89.77     573.84
 89.87     549.00
 89.97     598.00
 90.07     599.93
 90.17     548.00
 90.27     534.00
 90.37     566.00
 90.47     548.09
 90.57     517.00
 90.67     509.00
 90.77     545.00
 90.87     561.00
 90.97     531.00
 91.07     504.32
 91.17     530.00
 91.27     511.00
 91.37     538.00
 91.47     520.00
 91.57     551.17
 91.67     488.00
 91.77     579.00
 91.87     522.00
 91.97     568.08
 92.07     549.00
 92.17     578.00
 92.27     572.00
 92.37     554.81
 92.47     631.00
 92.57     675.00
 92.67     644.00
 92.77     695.48
 92.87     653.00
 92.97     732.00
 93.07     752.00
 93.17     792.60
 93.27     769.00
 93.37     767.52
 93.47     785.00
 93.57     833.00
 93.67     758.93
 93.77     832.88
 93.87     782.31
 93.97     823.43
 94.07     828.91
 94.17     848.72
 94.27     826.00
 94.37     814.53
 94.47     873.00
 94.57     948.00
 94.67     912.00
 94.77     900.00
 94.87     952.00
 94.97     870.00
 95.07     843.28
 95.17     835.00
 95.27     834.00
 95.37     794.00
 95.47     738.82
 95.57     805.00
 95.67     776.00
 95.77     754.00
 95.87     730.38
 95.97     701.42
 96.07     708.00
 96.17     706.00
 96.27     772.23
 96.37     781.00
 96.47     817.00
 96.57     931.00
 96.67     934.00
 96.77     980.00
 96.87    1063.00
 96.97    1144.00
 97.07    1172.89
 97.17    1305.00
 97.27    1374.00
 97.37    1420.00
 97.47    1446.00
 97.57    1401.89
 97.67    1402.00
 97.77    1471.71
 97.87    1372.00
 97.97    1370.10
 98.07    1205.66
 98.17    1217.31
 98.27    1086.00
 98.37     991.00
 98.47     945.00
 98.57     871.00
 98.67     855.00
 98.77     877.86
 98.87     845.46
 98.97     878.00
 99.07     883.08
 99.17     916.22
 99.27     929.88
 99.37     969.00
 99.47     989.00
 99.57    1133.00
 99.67    1198.00
 99.77    1293.00
 99.87    1420.01
 99.97    1525.67
100.07    1587.00
100.17    1753.00
100.27    1896.00
100.37    1952.69
100.47    1967.00
100.57    2120.00
100.67    2044.00
100.77    1984.00
100.87    1987.53
100.97    1995.00
101.07    1947.00
101.17    1908.88
101.27    1796.62
101.37    1653.00
101.47    1665.00
101.57    1461.22
101.67    1494.00
101.77    1434.08
101.87    1290.00
101.97    1224.00
102.07    1181.00
102.17    1130.59
102.27    1111.00
102.37    1080.00
102.47    1057.86
102.57    1072.00
102.67    1032.93
102.77    1025.15
102.87    1051.00
102.97    1008.50
103.07     990.12
103.17     855.00
103.27     808.00
103.37     786.87
103.47     729.46
103.57     786.02
103.67     687.89
103.77     702.00
103.87     656.00
103.97     643.00
104.07     641.00
104.17     601.00
104.27     540.00
104.37     542.00
104.47     535.29
104.57     503.57
104.67     558.00
104.77     535.00
104.87     553.00
104.97     531.24
105.07     594.00
105.17     564.00
105.27     533.00
105.37     509.57
105.47     559.06
105.57     550.00
105.67     546.69
105.77     530.00
105.87     569.00
105.97     556.11
106.07     560.92
106.17     584.00
106.27     599.00
106.37     626.00
106.47     621.00
106.57     635.00
106.67     624.60
106.77     596.00
106.87     655.00
106.97     621.00
107.07     680.00
107.17     644.88
107.27     742.81
107.37     669.00
107.47     651.00
107.57     752.20
107.67     706.73
107.77     663.29
107.87     701.32
107.97     650.71
108.07     678.00
108.17     702.00
108.27     699.00
108.37     735.00
108.47     734.00
108.57     625.00
108.67     667.00
108.77     740.25
108.87     666.00
108.97     693.00
109.07     697.89
109.17     657.00
109.27     628.00
109.37     687.34
109.47     647.24
109.57     630.00
109.67     635.00
109.77     632.00
109.87     615.10
109.97     607.83
110.07     580.00
110.17     572.55
110.27     608.20
110.37     577.04
110.47     576.00
110.57     506.00
110.67     562.05
110.77     547.00
110.87     497.00
110.97     552.00
111.07     593.00
111.17     562.00
111.27     518.00
111.37     554.64
111.47     577.36
111.57     557.95
111.67     509.00
111.77     531.00
111.87     523.00
111.97     559.33
112.07     594.00
112.17     532.00
112.27     578.00
112.37     564.00
112.47     657.00
112.57     579.64
112.67     622.00
112.77     591.00
112.87     582.00
112.97     681.77
113.07     638.00
113.17     656.29
113.27     709.23
113.37     672.93
113.47     696.00
113.57     758.13
113.67     802.00
113.77     764.50
113.87     777.00
113.97     883.91
114.07     966.29
114.17     952.00
114.27     980.00
114.37    1119.00
114.47    1245.52
114.57    1336.75
114.67    1428.00
114.77    1678.00
114.87    1860.00
114.97    2137.00
115.07    2379.00
115.17    2372.65
115.27    2751.10
115.37    3114.00
115.47    3447.24
115.57    3776.00
115.67    4045.64
115.77    4432.00
115.87    4781.00
115.97    5172.00
116.07    5570.00
116.17    5948.02
116.27    6157.00
116.37    6473.00
116.47    6480.00
116.57    6860.92
116.67    6836.00
116.77    6871.00
116.87    6631.00
116.97    6553.00
117.07    6169.37
117.17    5949.00
117.27    5638.92
117.37    5264.00
117.47    5167.23
117.57    4603.00
117.67    4213.79
117.77    3932.00
117.87    3567.00
117.97    3225.00
118.07    2894.76
118.17    2684.49
118.27    2411.95
118.37    1968.00
118.47    1715.00
118.57    1701.47
118.67    1545.84
118.77    1364.22
118.87    1154.00
118.97    1158.06
119.07     944.00
119.17     924.00
119.27     904.00
119.37     861.00
119.47     805.94
119.57     707.00
119.67     718.00
119.77     692.00
119.87     693.00
119.97     654.00
120.07     584.00
120.17     619.93
120.27     575.00
120.37     607.35
120.47     595.00
120.57     560.00
120.67     579.00
120.77     571.00
120.87     568.00
120.97     581.00
121.07     568.00
121.17     567.00
121.27     566.00
121.37     583.00
121.47     591.55
121.57     555.07
121.67     583.00
121.77     584.41
121.87     594.00
121.97     578.48
122.07     645.10
122.17     580.67
122.27     662.00
122.37     616.59
122.47     649.81
122.57     634.05
122.67     674.00
122.77     604.92
122.87     644.00
122.97     666.00
123.07     686.00
123.17     626.00
123.27     644.13
123.37     673.00
123.47     623.00
123.57     624.00
123.67     607.15
123.77     651.08
123.87     626.00
123.97     624.00
124.07     598.00
124.17     625.58
124.27     601.23
124.37     646.00
124.47     586.09
124.57     604.00
124.67     642.37
124.77     602.37
124.87     581.00
124.97     595.46
