  9.97     619.00
 10.07     588.00
 10.17     600.00
 10.27     595.22
 10.37     588.00
 10.47     602.00
 10.57     584.75
 10.67     611.00
 10.77     574.00
 10.87     573.00
 10.97     582.00
 11.07     635.00
 11.17     574.00
 11.27     581.00
 11.37     590.00
 11.47     578.00
 11.57     589.57
 11.67     628.00
 11.77     599.22
 11.87     601.00
 11.97     659.00
 12.07     666.00
 12.17     672.51
 12.27     682.00
 12.37     683.00
 12.47     622.45
 12.57     586.01
 12.67     612.00
 12.77     590.00
 12.87     620.75
 12.97     599.62
 13.07     560.00
 13.17     533.00
 13.27     558.00
 13.37     536.00
 13.47     550.00
 13.57     585.17
 13.67     589.00
 13.77     561.22
 13.87     495.00
 13.97     617.28
 14.07     548.00
 14.17     597.00
 14.27     520.00
 14.37     569.30
 14.47     583.00
 14.57     536.00
 14.67     577.00
 14.77     564.00
 14.87     589.54
 14.97     569.00
 15.07     575.00
 15.17     551.00
 15.27     606.00
 15.37     543.00
 15.47     575.00
 15.57     609.00
 15.67     573.00
 15.77     529.61
 15.87     562.80
 15.97     597.00
 16.07     580.00
 16.17     572.65
 16.27     538.00
 16.37     600.79
 16.47     561.00
 16.57     547.00
 16.67     572.91
 16.77     554.00
 16.87     562.00
 16.97     614.00
 17.07     513.00
 17.17     576.00
 17.27     523.00
 17.37     547.22
 17.47     578.00
 17.57     526.82
 17.67     569.71
 17.77     544.41
 17.87     565.00
 17.97     589.16
 18.07     586.46
 18.17     523.00
 18.27     562.00
 18.37     576.00
 18.47     538.15
 18.57     558.00
 18.67     583.00
 18.77     573.00
 18.87     526.00
 18.97     555.00
 19.07     551.00
 19.17     577.29
 19.27     565.00
 19.37     574.00
 19.47     545.00
 19.57     540.76
 19.67     627.00
 19.77     519.70
 19.87     573.00
 19.97     517.15
 20.07     520.00
 20.17     560.96
 20.27     519.00
 20.37     548.00
 20.47     516.92
 20.57     553.00
 20.67     562.00
 20.77     565.86
 20.87     517.00
 20.97     585.80
 21.07     549.00
 21.17     574.00
 21.27     560.00
 21.37     518.00
 21.47     556.29
 21.57     537.00
 21.67     523.43
 21.77     530.00
 21.87     600.00
 21.97     598.01
 22.07     542.00
 22.17     536.06
 22.27     562.54
 22.37     577.22
 22.47     512.73
 22.57     509.00
 22.67     542.00
 22.77     526.00
 22.87     573.00
 22.97     561.00
 23.07     530.00
 23.17     559.94
 23.27     581.00
 23.37     590.00
 23.47     549.00
 23.57     528.00
 23.67     567.00
 23.77     551.00
 23.87     579.29
 23.97     504.00
 24.07     585.00
 24.17     570.00
 24.27     531.70
 24.37     560.00
 24.47     600.37
 24.57     560.00
 24.67     643.12
 24.77     634.00
 24.87     599.18
 24.97     552.00
 25.07     619.00
 25.17     550.10
 25.27     566.24
 25.37     562.00
 25.47     559.00
 25.57     558.00
 25.67     599.00
 25.77     541.00
 25.87     548.00
 25.97     591.00
 26.07     565.00
 26.17     524.87
 26.27     562.00
 26.37     578.23
 26.47     548.00
 26.57     486.00
 26.67     574.90
 26.77     588.75
 26.87     553.00
 26.97     534.97
 27.07     557.00
 27.17     510.87
 27.27     571.00
 27.37     510.76
 27.47     542.00
 27.57     533.44
 27.67     580.00
 27.77     597.00
 27.87     593.00
 27.97     666.00
 28.07     809.40
 28.17     863.00
 28.27     966.00
 28.37     891.00
 28.47     755.00
 28.57     764.00
 28.67     716.00
 28.77     750.00
 28.87     800.67
 28.97     836.00
 29.07     799.00
 29.17     719.00
 29.27     647.00
 29.37     579.08
 29.47     627.28
 29.57     587.00
 29.67     622.00
 29.77     580.00
 29.87     540.83
 29.97     528.00
 30.07     548.86
 30.17     509.90
 30.27     526.00
 30.37     580.00
 30.47     523.51
 30.57     554.00
 30.67     545.00
 30.77     608.00
 30.87     595.00
 30.97     585.00
 31.07     625.00
 31.17     536.96
 31.27     545.00
 31.37     581.35
 31.47     550.00
 31.57     545.00
 31.67     538.85
 31.77     544.00
 31.87     548.00
 31.97     555.00
 32.07     528.00
 32.17     518.27
 32.27     560.57
 32.37     483.79
 32.47     541.00
 32.57     505.87
 32.67     527.42
 32.77     572.00
 32.87     549.99
 32.97     502.00
 33.07     513.00
 33.17     555.00
 33.27     512.93
 33.37     557.23
 33.47     571.00
 33.57     582.00
 33.67     674.01
 33.77     743.00
 33.87     896.00
 33.97    1053.00
 34.07    1120.72
 34.17    1006.26
 34.27     874.00
 34.37     765.00
 34.47     625.00
 34.57     548.00
 34.67     544.02
 34.77     527.00
 34.87     510.33
 34.97     519.00
 35.07     531.00
 35.17     499.00
 35.27     510.08
 35.37     534.00
 35.47     559.63
 35.57     506.82
 35.67     550.51
 35.77     535.80
 35.87     519.00
 35.97     533.00
 36.07     511.00
 36.17     538.56
 36.27     536.00
 36.37     531.00
 36.47     509.00
 36.57     523.00
 36.67     524.63
 36.77     476.40
 36.87     497.00
 36.97     503.00
 37.07     522.00
 37.17     529.00
 37.27     544.00
 37.37     540.00
 37.47     519.00
 37.57     558.00
 37.67     569.64
 37.77     556.00
 37.87     594.00
 37.97     528.43
 38.07     546.00
 38.17     484.00
 38.27     496.08
 38.37     500.88
 38.47     570.00
 38.57     495.62
 38.67     540.03
 38.77     526.00
 38.87     540.00
 38.97     507.00
 39.07     503.98
 39.17     507.42
 39.27     521.00
 39.37     468.00
 39.47     529.00
 39.57     522.00
 39.67     486.00
 39.77     495.25
 39.87     547.01
 39.97     529.00
 40.07     487.00
 40.17     481.00
 40.27     532.00
 40.37     468.06
 40.47     511.00
 40.57     483.00
 40.67     538.00
 40.77     533.77
 40.87     519.46
 40.97     484.00
 41.07     467.06
 41.17     499.00
 41.27     533.76
 41.37     499.99
 41.47     471.65
 41.57     506.00
 41.67     528.96
 41.77     509.00
 41.87     484.00
 41.97     477.00
 42.07     520.16
 42.17     498.00
 42.27     510.00
 42.37     539.91
 42.47     576.00
 42.57     588.00
 42.67     643.00
 42.77     587.00
 42.87     578.00
 42.97     563.00
 43.07     594.05
 43.17     566.00
 43.27     538.29
 43.37     482.00
 43.47     521.00
 43.57     545.62
 43.67     490.00
 43.77     518.00
 43.87     510.29
 43.97     523.63
 44.07     533.00
 44.17     471.67
 44.27     453.00
 44.37     481.24
 44.47     521.20
 44.57     485.00
 44.67     494.00
 44.77     513.00
 44.87     509.00
 44.97     501.00
 45.07     540.79
 45.17     507.37
 45.27     548.44
 45.37     486.00
 45.47     549.27
 45.57     466.53
 45.67     525.00
 45.77     551.00
 45.87     484.00
 45.97     519.13
 46.07     513.00
 46.17     466.00
 46.27     476.21
 46.37     475.00
 46.47     474.06
 46.57     525.01
 46.67     498.00
 46.77     526.00
 46.87     526.00
 46.97     507.00
 47.07     493.17
 47.17     495.00
 47.27     537.00
 47.37     510.00
 47.47     563.00
 47.57     560.18
 47.67     565.27
 47.77     566.12
 47.87     574.50
 47.97     535.00
 48.07     538.14
 48.17     565.68
 48.27     602.00
 48.37     537.00
 48.47     551.00
 48.57     515.70
 48.67     526.00
 48.77     563.28
 48.87     574.00
 48.97     533.00
 49.07     562.44
 49.17     525.00
 49.27     564.00
 49.37     639.00
 49.47     718.00
 49.57     774.00
 49.67     879.53
 49.77    1183.58
 49.87    1503.00
 49.97    1860.00
 50.07    2324.00
 50.17    2460.00
 50.27    2414.00
 50.37    2227.00
 50.47    1826.00
 50.57    1526.96
 50.67    1089.00
 50.77     914.79
 50.87     692.37
 50.97     661.10
 51.07     671.00
 51.17     589.00
 51.27     638.00
 51.37     625.02
 51.47     561.30
 51.57     594.00
 51.67     599.00
 51.77     583.38
 51.87     531.48
 51.97     575.00
 52.07     548.00
 52.17     511.92
 52.27     513.29
 52.37     582.52
 52.47     513.09
 52.57     583.00
 52.67     599.00
 52.77     539.00
 52.87     633.00
 52.97     742.00
 53.07     802.43
 53.17     963.00
 53.27     976.95
 53.37    1127.00
 53.47    1263.68
 53.57    1227.24
 53.67    1139.00
 53.77    1014.17
 53.87     921.08
 53.97     815.00
 54.07     641.00
 54.17     657.43
 54.27     597.00
 54.37     591.12
 54.47     573.00
 54.57     580.00
 54.67     556.18
 54.77     519.00
 54.87     568.18
 54.97     570.00
 55.07     525.00
 55.17     571.00
 55.27     550.00
 55.37     506.00
 55.47     553.76
 55.57     540.60
 55.67     594.00
 55.77     568.00
 55.87     610.00
 55.97     636.00
 56.07     633.00
 56.17     709.00
 56.27     870.00
 56.37    1139.00
 56.47    1397.00
 56.57    1748.14
 56.67    2270.31
 56.77    2545.80
 56.87    2637.00
 56.97    2548.10
 57.07    2292.11
 57.17    1955.63
 57.27    1646.00
 57.37    1312.30
 57.47    1060.00
 57.57     856.00
 57.67     733.04
 57.77     688.02
 57.87     694.00
 57.97     653.00
 58.07     650.65
 58.17     716.00
 58.27     825.00
 58.37     820.08
 58.47     987.62
 58.57    1112.00
 58.67    1162.00
 58.77    1376.00
 58.87    1403.00
 58.97    1551.56
 59.07    1614.00
 59.17    1551.00
 59.27    1458.00
 59.37    1317.48
 59.47    1240.00
 59.57    1202.00
 59.67    1153.00
 59.77    1214.00
 59.87    1260.14
 59.97    1283.40
 60.07    1380.00
 60.17    1588.00
 60.27    1471.32
 60.37    1531.00
 60.47    1440.00
 60.57    1304.00
 60.67    1040.26
 60.77     901.91
 60.87     804.00
 60.97     718.00
 61.07     641.00
 61.17     636.06
 61.27     627.51
 61.37     618.00
 61.47     681.97
 61.57     713.00
 61.67     805.37
 61.77     990.00
 61.87    1038.00
 61.97    1214.42
 62.07    1391.33
 62.17    1358.00
 62.27    1451.17
 62.37    1274.00
 62.47    1176.00
 62.57    1026.00
 62.67     858.14
 62.77     722.00
 62.87     716.00
 62.97     597.77
 63.07     624.00
 63.17     556.52
 63.27     578.00
 63.37     580.70
 63.47     545.00
 63.57     563.48
 63.67     570.00
 63.77     582.00
 63.87     633.00
 63.97     697.00
 64.07     708.00
 64.17     801.00
 64.27     820.00
 64.37     903.00
 64.47    1006.00
 64.57    1037.00
 64.67     982.00
 64.77     996.00
 64.87     998.00
 64.97     974.00
 65.07     873.00
 65.17     760.47
 65.27     720.07
 65.37     693.00
 65.47     674.53
 65.57     580.24
 65.67     634.72
 65.77     576.00
 65.87     559.79
 65.97     552.00
 66.07     558.00
 66.17     547.60
 66.27     539.00
 66.37     581.00
 66.47     532.61
 66.57     524.10
 66.67     575.00
 66.77     595.21
 66.87     577.60
 66.97     627.00
 67.07     651.67
 67.17     646.00
 67.27     738.40
 67.37     839.00
 67.47    1097.24
 67.57    1215.72
 67.67    1509.00
 67.77    1746.34
 67.87    1996.00
 67.97    2305.00
 68.07    2459.00
 68.17    2435.91
 68.27    2285.00
 68.37    1979.00
 68.47    1735.47
 68.57    1513.00
 68.67    1234.00
 68.77    1024.00
 68.87     930.84
 68.97     799.12
 69.07     648.00
 69.17     635.16
 69.27     642.00
 69.37     584.25
 69.47     602.00
 69.57     564.00
 69.67     567.13
 69.77     603.72
 69.87     584.00
 69.97     528.00
 70.07     553.00
 70.17     593.00
 70.27     570.00
 70.37     571.00
 70.47     529.18
 70.57     612.58
 70.67     532.42
 70.77     619.92
 70.87     562.43
 70.97     663.42
 71.07     674.00
 71.17     752.00
 71.27     835.95
 71.37     899.00
 71.47    1136.88
 71.57    1161.00
 71.67    1447.00
 71.77    1569.00
 71.87    1782.31
 71.97    1958.78
 72.07    1896.83
 72.17    1870.00
 72.27    1748.00
 72.37    1698.00
 72.47    1508.00
 72.57    1364.00
 72.67    1126.00
 72.77    1053.00
 72.87     973.00
 72.97     867.00
 73.07     763.00
 73.17     815.12
 73.27     649.00
 73.37     618.00
 73.47     652.00
 73.57     615.00
 73.67     572.98
 73.77     623.28
 73.87     619.00
 73.97     627.00
 74.07     602.00
 74.17     568.74
 74.27     615.26
 74.37     593.91
 74.47     590.00
 74.57     592.00
 74.67     607.00
 74.77     635.00
 74.87     644.00
 74.97     606.00
 75.07     620.00
 75.17     591.00
 75.27     555.88
 75.37     596.00
 75.47     528.96
 75.57     546.00
 75.67     563.00
 75.77     556.50
 75.87     626.67
 75.97     582.75
 76.07     660.46
 76.17     652.66
 76.27     669.00
 76.37     645.00
 76.47     711.57
 76.57     687.00
 76.67     633.00
 76.77     717.02
 76.87     660.00
 76.97     611.00
 77.07     609.00
 77.17     608.03
 77.27     567.00
 77.37     538.21
 77.47     535.54
 77.57     582.41
 77.67     522.00
 77.77     572.14
 77.87     554.00
 77.97     515.00
 78.07     543.00
 78.17     561.00
 78.27     521.22
 78.37     525.00
 78.47     526.00
 78.57     485.00
 78.67     508.00
 78.77     500.00
 78.87     540.00
 78.97     526.00
 79.07     509.00
 79.17     515.00
 79.27     533.00
 79.37     567.00
 79.47     534.00
 79.57     562.09
 79.67     482.00
 79.77     538.00
 79.87     529.00
 79.97     521.00
 80.07     582.00
 80.17     577.00
 80.27     548.00
 80.37     590.00
 80.47     555.00
 80.57     631.00
 80.67     667.39
 80.77     660.00
 80.87     659.00
 80.97     679.00
 81.07     733.06
 81.17     740.00
 81.27     684.00
 81.37     796.00
 81.47     776.64
 81.57     770.80
 81.67     784.00
 81.77     694.00
 81.87     742.80
 81.97     717.00
 82.07     662.54
 82.17     656.96
 82.27     623.00
 82.37     580.56
 82.47     601.00
 82.57     586.00
 82.67     571.00
 82.77     569.00
 82.87     595.00
 82.97     600.83
 83.07     557.45
 83.17     548.00
 83.27     582.00
 83.37     565.00
 83.47     545.00
 83.57     527.00
 83.67     534.00
 83.77     606.00
 83.87     581.00
 83.97     543.39
 84.07     627.00
 84.17     622.13
 84.27     610.48
 84.37     610.17
 84.47     565.00
 84.57     560.00
 84.67     545.00
 84.77     545.36
 84.87     549.37
 84.97     506.76
 85.07     543.00
 85.17     493.00
 85.27     552.00
 85.37     513.28
 85.47     574.00
 85.57     554.83
 85.67     498.00
 85.77     487.00
 85.87     511.00
 85.97     548.77
 86.07     556.00
 86.17     520.00
 86.27     577.00
 86.37     486.00
 86.47     570.00
 86.57     558.00
 86.67     572.00
 86.77     557.00
 86.87     595.89
 86.97     612.84
 87.07     633.00
 87.17     569.78
 87.27     662.92
 87.37     651.00
 87.47     656.00
 87.57     675.77
 87.67     635.00
 87.77     639.00
 87.87     572.02
 87.97     600.00
 88.07     568.50
 88.17     627.59
 88.27     595.62
 88.37     571.44
 88.47     575.00
 88.57     549.00
 88.67     605.00
 88.77     590.00
 88.87     592.66
 88.97     612.19
 89.07     615.11
 89.17     632.03
 89.27     568.00
 89.37     615.56
 89.47     566.00
 89.57     586.45
 89.67     546.55
 89.77     605.00
 89.87     589.56
 89.97     527.62
 90.07     586.00
 90.17     528.97
 90.27     544.39
 90.37     489.00
 90.47     578.62
 90.57     561.00
 90.67     484.00
 90.77     528.00
 90.87     533.00
 90.97     526.00
 91.07     555.00
 91.17     560.74
 91.27     494.61
 91.37     509.32
 91.47     554.05
 91.57     529.00
 91.67     577.63
 91.77     503.00
 91.87     505.59
 91.97     577.04
 92.07     586.41
 92.17     565.00
 92.27     586.00
 92.37     614.00
 92.47     648.00
 92.57     629.00
 92.67     634.69
 92.77     647.37
 92.87     698.45
 92.97     747.02
 93.07     765.00
 93.17     742.13
 93.27     797.63
 93.37     794.00
 93.47     829.00
 93.57     834.77
 93.67     811.00
 93.77     828.00
 93.87     789.00
 93.97     784.41
 94.07     858.00
 94.17     868.00
 94.27     865.59
 94.37     886.00
 94.47     825.20
 94.57     843.80
 94.67     918.00
 94.77     887.69
 94.87     837.38
 94.97     869.33
 95.07     900.00
 95.17     849.42
 95.27     864.00
 95.37     739.83
 95.47     709.00
 95.57     721.00
 95.67     699.00
 95.77     658.13
 95.87     647.00
 95.97     637.00
 96.07     639.78
 96.17     659.73
 96.27     695.00
 96.37     701.04
 96.47     776.67
 96.57     829.80
 96.67     870.66
 96.77     996.00
 96.87    1079.52
 96.97    1077.14
 97.07    1223.42
 97.17    1328.00
 97.27    1287.00
 97.37    1401.00
 97.47    1420.00
 97.57    1449.99
 97.67    1374.00
 97.77    1365.00
 97.87    1345.00
 97.97    1329.00
 98.07    1211.00
 98.17    1111.90
 98.27    1108.00
 98.37    1039.32
 98.47     941.00
 98.57     908.00
 98.67     843.00
 98.77     778.68
 98.87     792.00
 98.97     848.67
 99.07     804.00
 99.17     785.68
 99.27     841.99
 99.37     938.00
 99.47    1038.00
 99.57    1117.42
 99.67    1189.00
 99.77    1282.00
 99.87    1386.67
 99.97    1554.00
100.07    1599.36
100.17    1678.00
100.27    1812.09
100.37    1943.00
100.47    2008.78
100.57    2096.58
100.67    2130.00
100.77    2129.00
100.87    2109.03
100.97    2059.00
101.07    1958.00
101.17    1912.17
101.27    1850.00
101.37    1694.00
101.47    1596.31
101.57    1534.00
101.67    1471.00
101.77    1407.44
101.87    1233.00
101.97    1270.94
102.07    1201.55
102.17    1132.22
102.27    1147.00
102.37    1056.00
102.47    1076.00
102.57    1056.00
102.67    1050.00
102.77    1006.02
102.87     994.00
102.97     956.00
103.07     917.00
103.17     897.00
103.27     889.00
103.37     808.00
103.47     749.83
103.57     744.00
103.67     674.00
103.77     652.03
103.87     617.00
103.97     651.00
104.07     629.00
104.17     544.94
104.27     600.00
104.37     606.00
104.47     524.00
104.57     568.46
104.67     559.66
104.77     534.19
104.87     557.92
104.97     543.00
105.07     533.00
105.17     554.19
105.27     631.00
105.37     489.55
105.47     586.00
105.57     527.00
105.67     581.14
105.77     530.00
105.87     571.55
105.97     578.00
106.07     561.00
106.17     607.00
106.27     580.80
106.37     583.00
106.47     553.00
106.57     607.00
106.67     605.43
106.77     605.00
106.87     672.99
106.97     637.00
107.07     660.00
107.17     679.00
107.27     690.00
107.37     680.37
107.47     671.80
107.57     691.00
107.67     669.00
107.77     714.01
107.87     697.00
107.97     726.61
108.07     661.00
108.17     689.00
108.27     692.25
108.37     703.77
108.47     680.00
108.57     693.00
108.67     713.00
108.77     670.00
108.87     677.00
108.97     666.00
109.07     659.83
109.17     711.60
109.27     673.00
109.37     640.41
109.47     631.00
109.57     640.17
109.67     656.00
109.77     649.00
109.87     625.00
109.97     620.00
110.07     627.00
110.17     589.00
110.27     562.69
110.37     559.00
110.47     556.00
110.57     550.00
110.67     542.00
110.77     547.00
110.87     575.00
110.97     564.46
111.07     524.00
111.17     554.00
111.27     545.00
111.37     565.00
111.47     543.00
111.57     565.00
111.67     534.00
111.77     520.00
111.87     528.08
111.97     601.75
112.07     533.00
112.17     562.00
112.27     544.00
112.37     590.00
112.47     638.00
112.57     563.83
112.67     620.30
112.77     639.00
112.87     631.00
112.97     638.00
113.07     664.30
113.17     689.00
113.27     748.00
113.37     706.00
113.47     730.67
113.57     752.00
113.67     816.00
113.77     826.00
113.87     914.00
113.97     993.96
114.07    1071.37
114.17    1113.62
114.27    1193.49
114.37    1241.91
114.47    1376.54
114.57    1386.00
114.67    1523.00
114.77    1746.00
114.87    1892.88
114.97    2147.00
115.07    2288.00
115.17    2558.00
115.27    2912.18
115.37    3088.00
115.47    3343.95
115.57    3775.60
115.67    4097.00
115.77    4456.00
115.87    4763.00
115.97    5291.00
116.07    5606.85
116.17    5907.00
116.27    6165.58
116.37    6593.24
116.47    6806.00
116.57    6830.00
116.67    6864.00
116.77    6733.84
116.87    6693.00
116.97    6588.00
117.07    6378.70
117.17    5990.00
117.27    5700.70
117.37    5445.62
117.47    4993.00
117.57    4750.98
117.67    4232.00
117.77    3876.88
117.87    3628.00
117.97    3243.22
118.07    2928.00
118.17    2691.00
118.27    2306.00
118.37    2070.20
118.47    1650.00
118.57    1530.66
118.67    1355.43
118.77    1277.00
118.87    1125.00
118.97     997.00
119.07     968.60
119.17     918.00
119.27     806.00
119.37     750.31
119.47     716.00
119.57     719.50
119.67     690.04
119.77     635.23
119.87     644.00
119.97     609.00
120.07     606.00
120.17     608.00
120.27     589.00
120.37     595.55
120.47     556.00
120.57     569.00
120.67     605.00
120.77     567.00
120.87     566.00
120.97     606.80
121.07     617.00
121.17     565.66
121.27     608.00
121.37     600.00
121.47     608.61
121.57     600.84
121.67     557.00
121.77     566.49
121.87     589.00
121.97     622.65
122.07     586.00
122.17     577.03
122.27     598.00
122.37     600.00
122.47     669.65
122.57     672.00
122.67     694.00
122.77     616.00
122.87     654.00
122.97     589.00
123.07     630.00
123.17     666.00
123.27     637.49
123.37     640.00
123.47     652.00
123.57     626.00
123.67     630.00
123.77     620.00
123.87     603.89
123.97     619.23
124.07     642.37
124.17     622.00
124.27     575.67
124.37     606.00
124.47     616.00
124.57     593.00
124.67     547.00
124.77     584.00
124.87     612.00
124.97     606.89
