  9.97     607.36
 10.07     582.00
 10.17     582.64
 10.27     593.00
 10.37     532.46
 10.47     588.36
 10.57     562.00
 10.67     558.89
 10.77     593.00
 10.87     573.00
 10.97     588.00
 11.07     616.00
 11.17     570.00
 11.27     614.73
 11.37     540.78
 11.47     599.06
 11.57     565.00
 11.67     607.72
 11.77     547.15
 11.87     598.00
 11.97     602.14
 12.07     635.62
 12.17     656.00
 12.27     687.00
 12.37     678.00
 12.47     646.36
 12.57     577.22
 12.67     597.48
 12.77     545.00
 12.87     602.21
 12.97     558.00
 13.07     559.33
 13.17     601.23
 13.27     530.46
 13.37     576.01
 13.47     591.00
 13.57     559.31
 13.67     544.00
 13.77     569.18
 13.87     530.27
 13.97     603.99
 14.07     532.76
 14.17     540.13
 14.27     592.92
 14.37     550.00
 14.47     556.00
 14.57     561.00
 14.67     576.14
 14.77     529.00
 14.87     557.00
 14.97     585.14
 15.07     592.74
 15.17     552.00
 15.27     551.00
 15.37     570.00
 15.47     560.00
 15.57     549.00
 15.67     525.14
 15.77     602.00
 15.87     594.23
 15.97     574.00
 16.07     520.00
 16.17     557.00
 16.27     578.00
 16.37     575.00
 16.47     555.00
 16.57     608.00
 16.67     532.00
 16.77     546.00
 16.87     575.15
 16.97     561.70
 17.07     533.00
 17.17     523.00
 17.27     525.00
 17.37     584.00
 17.47     550.00
 17.57     534.00
 17.67     507.00
 17.77     573.23
 17.87     518.44
 17.97     523.34
 18.07     547.54
 18.17     524.39
 18.27     592.56
 18.37     559.99
 18.47     535.00
 18.57     569.00
 18.67     601.00
 18.77     552.00
 18.87     608.00
 18.97     577.00
 19.07     525.00
 19.17     541.86
 19.27     546.00
 19.37     582.00
 19.47     599.00
 19.57     539.00
 19.67     513.50
 19.77     576.00
 19.87     597.24
 19.97     586.47
 20.07     551.00
 20.17     507.55
 20.27     546.70
 20.37     584.00
 20.47     549.00
 20.57     598.62
 20.67     535.00
 20.77     538.00
 20.87     494.00
 20.97     584.00
 21.07     580.48
 21.17     599.41
 21.27     595.00
 21.37     531.27
 21.47     574.51
 21.57     596.20
 21.67     579.09
 21.77     553.00
 21.87     582.00
 21.97     535.00
 22.07     544.00
 22.17     553.00
 22.27     525.00
 22.37     564.02
 22.47     552.00
 22.57     538.51
 22.67     504.98
 22.77     555.00
 22.87     559.26
 22.97     535.00
 23.07     532.95
 23.17     563.00
 23.27     503.23
 23.37     568.00
 23.47     539.56
 23.57     504.94
 23.67     530.00
 23.77     547.00
 23.87     570.00
 23.97     504.59
 24.07     549.00
 24.17     571.00
 24.27     515.00
 24.37     551.00
 24.47     614.00
 24.57     585.64
 24.67     577.00
 24.77     593.00
 24.87     614.00
 24.97     576.00
 25.07     559.06
 25.17     557.00
 25.27     519.00
 25.37     576.00
 25.47     577.01
 25.57     622.00
 25.67     588.10
 25.77     521.00
 25.87     540.00
 25.97     542.00
 26.07     553.84
 26.17     587.00
 26.27     552.00
 26.37     522.00
 26.47     525.83
 26.57     636.00
 26.67     545.45
 26.77     535.00
 26.87     537.00
 26.97     496.61
 27.07     581.63
 27.17     500.00
 27.27     583.00
 27.37     535.00
 27.47     567.00
 27.57     564.00
 27.67     600.72
 27.77     607.00
 27.87     595.00
 27.97     692.00
 28.07     740.56
 28.17     864.00
 28.27     922.00
 28.37     908.00
 28.47     821.73
 28.57     693.00
 28.67     710.03
 28.77     747.00
 28.87     814.00
 28.97     840.18
 29.07     818.49
 29.17     686.00
 29.27     665.14
 29.37     609.00
 29.47     637.00
 29.57     646.00
 29.67     632.00
 29.77     623.00
 29.87     602.00
 29.97     578.00
 30.07     554.70
 30.17     550.16
 30.27     551.90
 30.37     638.00
 30.47     540.00
 30.57     561.00
 30.67     585.00
 30.77     598.23
 30.87     609.70
 30.97     663.00
 31.07     544.00
 31.17     621.15
 31.27     565.00
 31.37     500.92
 31.47     531.76
 31.57     489.20
 31.67     538.00
 31.77     497.60
 31.87     569.00
 31.97     513.00
 32.07     549.00
 32.17     559.00
 32.27     544.00
 32.37     575.00
 32.47     486.64
 32.57     569.29
 32.67     581.00
 32.77     562.00
 32.87     550.80
 32.97     538.26
 33.07     530.36
 33.17     525.00
 33.27     497.00
 33.37     500.50
 33.47     519.08
 33.57     580.00
 33.67     636.46
 33.77     724.00
 33.87     873.00
 33.97     964.15
 34.07    1088.39
 34.17    1071.00
 34.27     885.00
 34.37     734.00
 34.47     663.08
 34.57     559.64
 34.67     558.00
 34.77     537.00
 34.87     545.00
 34.97     542.00
 35.07     553.19
 35.17     500.47
 35.27     537.00
 35.37     490.31
 35.47     482.00
 35.57     533.00
 35.67     513.02
 35.77     493.00
 35.87     503.00
 35.97     537.00
 36.07     504.10
 36.17     515.00
 36.27     520.00
 36.37     492.00
 36.47     552.22
 36.57     521.00
 36.67     526.00
 36.77     529.00
 36.87     540.84
 36.97     509.00
 37.07     502.41
 37.17     528.00
 37.27     501.00
 37.37     565.30
 37.47     555.00
 37.57     535.00
 37.67     556.23
 37.77     507.00
 37.87     532.00
 37.97     517.00
 38.07     506.40
 38.17     476.81
 38.27     512.00
 38.37     538.00
 38.47     488.00
 38.57     554.95
 38.67     514.02
 38.77     515.11
 38.87     494.00
 38.97     512.00
 39.07     485.00
 39.17     485.00
 39.27     494.00
 39.37     489.00
 39.47     502.00
 39.57     555.00
 39.67     520.00
 39.77     531.58
 39.87     542.00
 39.97     461.00
 40.07     534.00
 40.17     529.00
 40.27     474.00
 40.37     475.00
 40.47     493.00
 40.57     503.00
 40.67     483.87
 40.77     502.00
 40.87     499.00
 40.97     510.00
 41.07     488.00
 41.17     524.31
 41.27     493.61
 41.37     484.86
 41.47     436.00
 41.57     477.05
 41.67     523.00
 41.77     501.00
 41.87     516.00
 41.97     480.00
 42.07     510.60
 42.17     502.00
 42.27     543.00
 42.37     533.23
 42.47     577.00
 42.57     557.00
 42.67     620.00
 42.77     608.00
 42.87     615.00
 42.97     585.00
 43.07     561.00
 43.17     526.00
 43.27     546.44
 43.37     493.59
 43.47     523.00
 43.57     542.00
 43.67     537.00
 43.77     550.00
 43.87     550.54
 43.97     474.81
 44.07     484.00
 44.17     486.71
 44.27     500.00
 44.37     490.00
 44.47     502.00
 44.57     519.00
 44.67     548.06
 44.77     530.59
 44.87     520.00
 44.97     523.00
 45.07     480.25
 45.17     487.18
 45.27     513.00
 45.37     501.56
 45.47     502.00
 45.57     492.73
 45.67     527.90
 45.77     505.00
 45.87     538.88
 45.97     478.00
 46.07     500.00
 46.17     479.61
 46.27     532.44
 46.37     530.61
 46.47     513.00
 46.57     535.00
 46.67     484.27
 46.77     480.27
 46.87     498.00
 46.97     475.64
 47.07     525.98
 47.17     470.00
 47.27     530.00
 47.37     513.75
 47.47     584.00
 47.57     579.00
 47.67     600.00
 47.77     633.00
 47.87     622.00
 47.97     560.00
 48.07     535.26
 48.17     581.04
 48.27     525.89
 48.37     530.00
 48.47     566.19
 48.57     522.48
 48.67     537.00
 48.77     510.70
 48.87     558.00
 48.97     542.00
 49.07     559.00
 49.17     639.91
 49.27     587.00
 49.37     640.00
 49.47     675.67
 49.57     797.00
 49.67     862.03
 49.77    1069.36
 49.87    1490.00
 49.97    1813.00
 50.07    2143.97
 50.17    2450.75
 50.27    2590.12
 50.37    2311.00
 50.47    1891.09
 50.57    1371.00
 50.67    1008.00
 50.77     850.00
 50.87     710.43
 50.97     689.00
 51.07     629.00
 51.17     572.45
 51.27     602.00
 51.37     619.01
 51.47     584.00
 51.57     576.00
 51.67     541.00
 51.77     569.36
 51.87     522.98
 51.97     556.00
 52.07     545.90
 52.17     492.00
 52.27     548.00
 52.37     592.00
 52.47     543.00
 52.57     564.00
 52.67     581.85
 52.77     607.00
 52.87     655.82
 52.97     644.97
 53.07     826.00
 53.17     877.00
 53.27    1064.00
 53.37    1169.06
 53.47    1174.00
 53.57    1184.00
 53.67    1051.00
 53.77     984.00
 53.87     846.00
 53.97     768.00
 54.07     654.44
 54.17     622.95
 54.27     632.45
 54.37     554.00
 54.47     551.00
 54.57     546.00
 54.67     528.97
 54.77     584.00
 54.87     534.00
 54.97     516.88
 55.07     563.00
 55.17     576.00
 55.27     586.00
 55.37     603.00
 55.47     552.00
 55.57     588.00
 55.67     570.00
 55.77     594.00
 55.87     560.14
 55.97     635.19
 56.07     658.00
 56.17     809.40
 56.27     824.00
 56.37    1020.00
 56.47    1366.00
 56.57    1797.00
 56.67    2184.00
 56.77    2378.00
 56.87    2684.00
 56.97    2641.80
 57.07    2300.56
 57.17    2067.00
 57.27    1669.00
 57.37    1377.00
 57.47    1050.00
 57.57     829.35
 57.67     759.00
 57.77     666.58
 57.87     706.84
 57.97     666.92
 58.07     659.64
 58.17     693.88
 58.27     790.00
 58.37     907.19
 58.47     941.23
 58.57    1084.00
 58.67    1239.00
 58.77    1352.99
 58.87    1514.04
 58.97    1543.00
 59.07    1617.00
 59.17    1570.00
 59.27    1517.00
 59.37    1306.00
 59.47    1238.36
 59.57    1126.66
 59.67    1115.32
 59.77    1191.00
 59.87    1223.00
 59.97    1350.00
 60.07    1439.00
 60.17    1451.94
 60.27    1546.00
 60.37    1469.00
 60.47    1415.00
 60.57    1228.00
 60.67    1042.00
 60.77     892.71
 60.87     800.00
 60.97     727.00
 61.07     667.00
 61.17     605.92
 61.27     677.00
 61.37     680.00
 61.47     668.00
 61.57     733.00
 61.67     837.00
 61.77     918.04
 61.87    1084.00
 61.97    1195.00
 62.07    1361.00
 62.17    1369.00
 62.27    1473.04
 62.37    1388.54
 62.47    1195.00
 62.57     996.00
 62.67     877.00
 62.77     755.34
 62.87     719.51
 62.97     635.00
 63.07     581.00
 63.17     600.27
 63.27     568.82
 63.37     607.00
 63.47     592.41
 63.57     571.37
 63.67     586.00
 63.77     613.06
 63.87     626.00
 63.97     670.80
 64.07     755.00
 64.17     796.00
 64.27     850.00
 64.37     939.72
 64.47    1016.56
 64.57     991.00
 64.67    1003.31
 64.77    1043.41
 64.87     987.00
 64.97     972.00
 65.07     848.00
 65.17     802.00
 65.27     762.00
 65.37     630.00
 65.47     674.44
 65.57     644.00
 65.67     591.00
 65.77     568.00
 65.87     598.00
 65.97     593.00
 66.07     538.82
 66.17     568.00
 66.27     557.14
 66.37     552.00
 66.47     502.00
 66.57     548.00
 66.67     566.00
 66.77     551.00
 66.87     564.00
 66.97     646.90
 67.07     623.71
 67.17     687.00
 67.27     756.00
 67.37     849.95
 67.47    1031.00
 67.57    1279.00
 67.67    1551.00
 67.77    1879.55
 67.87    2067.00
 67.97    2240.00
 68.07    2438.00
 68.17    2449.84
 68.27    2230.52
 68.37    2114.00
 68.47    1811.00
 68.57    1550.74
 68.67    1272.00
 68.77    1052.00
 68.87     849.46
 68.97     747.00
 69.07     655.74
 69.17     633.00
 69.27     621.00
 69.37     596.00
 69.47     571.16
 69.57     599.00
 69.67     584.55
 69.77     590.00
 69.87     609.43
 69.97     595.04
 70.07     581.00
 70.17     530.00
 70.27     573.00
 70.37     596.00
 70.47     562.00
 70.57     571.00
 70.67     590.00
 70.77     596.87
 70.87     594.00
 70.97     633.00
 71.07     628.86
 71.17     703.00
 71.27     831.00
 71.37     891.00
 71.47    1125.95
 71.57    1239.00
 71.67    1352.00
 71.77    1631.00
 71.87    1761.34
 71.97    1884.00
 72.07    1919.00
 72.17    1935.27
 72.27    1793.97
 72.37    1629.00
 72.47    1466.27
 72.57    1369.00
 72.67    1141.05
 72.77    1049.65
 72.87     943.70
 72.97     927.36
 73.07     829.00
 73.17     679.00
 73.27     700.00
 73.37     692.00
 73.47     709.66
 73.57     633.47
 73.67     604.05
 73.77     642.36
 73.87     579.00
 73.97     594.09
 74.07     593.00
 74.17     596.99
 74.27     626.45
 74.37     534.64
 74.47     639.00
 74.57     587.48
 74.67     525.78
 74.77     655.00
 74.87     628.00
 74.97     688.00
 75.07     575.05
 75.17     572.00
 75.27     584.00
 75.37     582.00
 75.47     573.00
 75.57     583.00
 75.67     543.53
 75.77     602.41
 75.87     609.30
 75.97     594.00
 76.07     593.00
 76.17     672.00
 76.27     694.21
 76.37     702.00
 76.47     703.00
 76.57     701.00
 76.67     690.01
 76.77     708.00
 76.87     645.00
 76.97     608.00
 77.07     653.08
 77.17     650.46
 77.27     525.00
 77.37     520.00
 77.47     536.26
 77.57     585.03
 77.67     552.00
 77.77     535.00
 77.87     490.56
 77.97     565.00
 78.07     556.62
 78.17     520.00
 78.27     522.57
 78.37     519.00
 78.47     488.93
 78.57     531.00
 78.67     548.00
 78.77     537.00
 78.87     492.00
 78.97     517.00
 79.07     497.03
 79.17     573.80
 79.27     582.00
 79.37     569.00
 79.47     501.95
 79.57     504.30
 79.67     483.00
 79.77     528.00
 79.87     503.00
 79.97     578.00
 80.07     556.26
 80.17     566.00
 80.27     575.11
 80.37     574.82
 80.47     577.23
 80.57     660.63
 80.67     647.00
 80.77     627.21
 80.87     668.00
 80.97     682.00
 81.07     727.00
 81.17     715.00
 81.27     723.00
 81.37     748.00
 81.47     706.00
 81.57     783.00
 81.67     796.00
 81.77     755.00
 81.87     733.00
 81.97     687.00
 82.07     722.05
 82.17     647.70
 82.27     685.71
 82.37     640.69
 82.47     577.14
 82.57     590.00
 82.67     561.00
 82.77     571.00
 82.87     581.02
 82.97     533.00
 83.07     532.00
 83.17     553.00
 83.27     528.00
 83.37     582.00
 83.47     569.00
 83.57     527.14
 83.67     569.00
 83.77     579.19
 83.87     554.00
 83.97     533.00
 84.07     578.00
 84.17     518.00
 84.27     607.00
 84.37     573.00
 84.47     533.00
 84.57     568.60
 84.67     561.15
 84.77     559.13
 84.87     529.00
 84.97     519.00
 85.07     533.46
 85.17     566.00
 85.27     504.11
 85.37     527.00
 85.47     518.78
 85.57     550.00
 85.67     517.00
 85.77     516.84
 85.87     515.00
 85.97     502.00
 86.07     540.64
 86.17     547.00
 86.27     533.00
 86.37     582.83
 86.47     549.84
 86.57     591.75
 86.67     557.00
 86.77     638.00
 86.87     576.00
 86.97     575.00
 87.07     608.00
 87.17     630.00
 87.27     658.71
 87.37     665.37
 87.47     643.59
 87.57     599.33
 87.67     604.41
 87.77     688.00
 87.87     632.00
 87.97     597.00
 88.07     593.24
 88.17     602.00
 88.27     620.00
 88.37     565.68
 88.47     580.00
 88.57     544.00
 88.67     584.77
 88.77     615.00
 88.87     604.00
 88.97     586.00
 89.07     582.00
 89.17     597.00
 89.27     633.50
 89.37     598.28
 89.47     642.77
 89.57     608.24
 89.67     546.00
 89.77     556.00
 89.87     566.85
 89.97     536.00
 90.07     517.00
 90.17     533.00
 90.27     564.00
 90.37     519.18
 90.47     497.73
 90.57     512.00
 90.67     542.38
 90.77     523.00
 90.87     531.00
 90.97     550.00
 91.07     476.00
 91.17     543.00
 91.27     526.00
 91.37     474.00
 91.47     499.33
 91.57     564.26
 91.67     569.94
 91.77     519.00
 91.87     556.62
 91.97     545.00
 92.07     530.00
 92.17     570.00
 92.27     574.00
 92.37     584.00
 92.47     622.00
 92.57     611.00
 92.67     612.68
 92.77     683.00
 92.87     732.00
 92.97     781.00
 93.07     692.10
 93.17     792.54
 93.27     819.11
 93.37     809.00
 93.47     786.00
 93.57     845.02
 93.67     869.00
 93.77     851.13
 93.87     882.00
 93.97     824.72
 94.07     855.00
 94.17     851.00
 94.27     905.28
 94.37     896.00
 94.47     836.33
 94.57     913.00
 94.67     908.00
 94.77     911.00
 94.87     848.18
 94.97     847.00
 95.07     905.94
 95.17     904.00
 95.27     765.47
 95.37     831.00
 95.47     721.38
 95.57     739.00
 95.67     707.00
 95.77     703.00
 95.87     668.00
 95.97     670.34
 96.07     681.13
 96.17     703.00
 96.27     808.00
 96.37     765.00
 96.47     847.00
 96.57     855.68
 96.67     875.00
 96.77     995.24
 96.87    1093.75
 96.97    1117.00
 97.07    1261.00
 97.17    1232.00
 97.27    1364.00
 97.37    1402.61
 97.47    1425.00
 97.57    1460.00
 97.67    1441.86
 97.77    1456.00
 97.87    1375.15
 97.97    1336.41
 98.07    1263.09
 98.17    1080.01
 98.27    1083.00
 98.37     953.75
 98.47     976.00
 98.57     880.72
 98.67     879.00
 98.77     824.00
 98.87     780.00
 98.97     763.00
 99.07     793.00
 99.17     825.00
 99.27     909.00
 99.37     913.00
 99.47    1020.00
 99.57    1110.00
 99.67    1175.00
 99.77    1306.00
 99.87    1408.46
 99.97    1483.00
100.07    1661.00
100.17    1793.00
100.27    1799.00
100.37    1888.33
100.47    1997.00
100.57    2046.00
100.67    2123.72
100.77    2061.27
100.87    2109.00
100.97    2068.20
101.07    2026.71
101.17    1847.14
101.27    1789.83
101.37    1677.65
101.47    1635.00
101.57    1563.90
101.67    1415.00
101.77    1425.00
101.87    1316.00
101.97    1200.40
102.07    1168.48
102.17    1094.00
102.27    1163.00
102.37    1110.00
102.47    1151.08
102.57    1096.00
102.67    1068.12
102.77    1048.25
102.87    1047.78
102.97     959.00
103.07     908.00
103.17     831.00
103.27     806.00
103.37     793.00
103.47     777.00
103.57     741.00
103.67     736.17
103.77     693.00
103.87     636.61
103.97     652.00
104.07     668.00
104.17     600.00
104.27     596.00
104.37     554.00
104.47     571.49
104.57     519.76
104.67     513.68
104.77     509.37
104.87     532.00
104.97     554.00
105.07     544.00
105.17     558.00
105.27     542.00
105.37     538.00
105.47     570.00
105.57     551.00
105.67     514.92
105.77     530.00
105.87     594.00
105.97     550.44
106.07     560.00
106.17     563.00
106.27     579.82
106.37     594.00
106.47     609.00
106.57     619.36
106.67     589.65
106.77     620.00
106.87     642.00
106.97     662.00
107.07     640.00
107.17     665.00
107.27     651.00
107.37     713.96
107.47     694.83
107.57     674.00
107.67     661.00
107.77     663.00
107.87     706.00
107.97     653.00
108.07     687.00
108.17     668.00
108.27     646.49
108.37     648.00
108.47     669.00
108.57     681.00
108.67     652.00
108.77     685.00
108.87     698.00
108.97     633.23
109.07     634.00
109.17     648.00
109.27     693.00
109.37     605.00
109.47     650.00
109.57     667.25
109.67     641.00
109.77     585.36
109.87     608.00
109.97     649.00
110.07     602.81
110.17     562.00
110.27     601.00
110.37     558.00
110.47     589.00
110.57     514.71
110.67     570.16
110.77     563.00
110.87     533.10
110.97     493.42
111.07     537.00
111.17     546.00
111.27     525.00
111.37     544.93
111.47     509.00
111.57     563.00
111.67     535.00
111.77     527.39
111.87     531.88
111.97     520.00
112.07     533.00
112.17     578.00
112.27     585.00
112.37     655.00
112.47     555.21
112.57     606.61
112.67     630.00
112.77     654.00
112.87     675.00
112.97     637.35
113.07     705.62
113.17     743.95
113.27     687.08
113.37     774.00
113.47     743.00
113.57     793.00
113.67     857.00
113.77     834.68
113.87     981.75
113.97     959.68
114.07    1017.77
114.17    1022.00
114.27    1050.00
114.37    1258.00
114.47    1361.00
114.57    1416.00
114.67    1533.00
114.77    1671.00
114.87    1916.00
114.97    2114.00
115.07    2372.73
115.17    2578.00
115.27    2855.00
115.37    3133.00
115.47    3492.00
115.57    3723.00
115.67    4199.44
115.77    4423.00
115.87    4783.00
115.97    5212.00
116.07    5486.00
116.17    5944.73
116.27    6220.00
116.37    6545.36
116.47    6607.84
116.57    6845.00
116.67    6844.20
116.77    6952.03
116.87    6813.70
116.97    6687.00
117.07    6428.00
117.17    6149.00
117.27    5727.00
117.37    5322.00
117.47    5103.00
117.57    4653.00
117.67    4185.94
117.77    3926.58
117.87    3472.84
117.97    3241.00
118.07    2944.00
118.17    2573.00
118.27    2321.29
118.37    2047.00
118.47    1742.00
118.57    1600.00
118.67    1405.00
118.77    1243.00
118.87    1089.00
118.97    1062.00
119.07     993.00
119.17     873.57
119.27     778.25
119.37     786.01
119.47     723.75
119.57     704.11
119.67     663.00
119.77     632.77
119.87     615.85
119.97     635.00
120.07     646.49
120.17     556.83
120.27     576.00
120.37     634.71
120.47     558.00
120.57     548.15
120.67     588.00
120.77     575.00
120.87     555.42
120.97     585.00
121.07     580.00
121.17     574.07
121.27     580.00
121.37     569.94
121.47     623.74
121.57     559.00
121.67     583.00
121.77     590.00
121.87     554.00
121.97     589.00
122.07     613.42
122.17     621.00
122.27     617.00
122.37     591.00
122.47     617.00
122.57     656.00
122.67     620.00
122.77     636.00
122.87     629.00
122.97     696.00
123.07     672.00
123.17     658.00
123.27     646.00
123.37     621.00
123.47     608.81
123.57     673.56
123.67     653.75
123.77     612.00
123.87     654.00
123.97     563.00
124.07     639.00
124.17     572.62
124.27     660.00
124.37     602.30
124.47     648.71
124.57     572.00
124.67     601.00
124.77     625.32
124.87     564.00
124.97     568.00
