  9.97     606.00
 10.07     706.00
 10.17     667.00
 10.27     617.25
 10.37     657.00
 10.47     687.78
 10.57     667.00
 10.67     635.32
 10.77     665.00
 10.87     638.00
 10.97     656.00
 11.07     649.00
 11.17     675.10
 11.27     676.60
 11.37     659.64
 11.47     575.55
 11.57     693.09
 11.67     687.00
 11.77     700.00
 11.87     642.66
 11.97     728.00
 12.07     788.00
 12.17     708.00
 12.27     766.00
 12.37     783.70
 12.47     714.00
 12.57     692.00
 12.67     652.00
 12.77     638.00
 12.87     701.62
 12.97     628.00
 13.07     633.00
 13.17     661.70
 13.27     580.29
 13.37     681.35
 13.47     619.00
 13.57     688.06
 13.67     592.00
 13.77     588.00
 13.87     622.38
 13.97     652.28
 14.07     647.67
 14.17     614.00
 14.27     624.00
 14.37     594.98
 14.47     581.72
 14.57     621.00
 14.67     608.00
 14.77     598.00
 14.87     681.00
 14.97     638.47
 15.07     581.00
 15.17     681.50
 15.27     587.00
 15.37     626.00
 15.47     584.14
 15.57     593.21
 15.67     648.15
 15.77     594.00
 15.87     601.00
 15.97     634.00
 16.07     638.00
 16.17     662.00
 16.27     677.00
 16.37     656.00
 16.47     659.10
 16.57     623.20
 16.67     614.00
 16.77     683.00
 16.87     648.17
 16.97     646.00
 17.07     591.00
 17.17     600.12
 17.27     603.00
 17.37     658.79
 17.47     608.00
 17.57     599.32
 17.67     608.00
 17.77     572.00
 17.87     584.64
 17.97     620.93
 18.07     596.18
 18.17     594.00
 18.27     576.00
 18.37     638.00
 18.47     658.65
 18.57     631.00
 18.67     604.00
 18.77     615.00
 18.87     685.00
 18.97     631.17
 19.07     624.00
 19.17     614.00
 19.27     659.00
 19.37     599.00
 19.47     642.16
 19.57     681.02
 19.67     607.00
 19.77     622.45
 19.87     634.32
 19.97     562.00
 20.07     604.00
 20.17     613.00
 20.27     583.54
 20.37     603.00
 20.47     567.00
 20.57     545.00
 20.67     648.09
 20.77     590.00
 20.87     666.04
 20.97     618.00
 21.07     621.23
 21.17     596.48
 21.27     626.00
 21.37     607.00
 21.47     585.00
 21.57     571.00
 21.67     634.00
 21.77     593.86
 21.87     658.97
 21.97     642.42
 22.07     646.00
 22.17     643.00
 22.27     574.00
 22.37     619.00
 22.47     629.51
 22.57     615.44
 22.67     616.00
 22.77     625.00
 22.87     588.00
 22.97     615.00
 23.07     633.00
 23.17     595.87
 23.27     675.00
 23.37     601.00
 23.47     616.00
 23.57     609.00
 23.67     642.00
 23.77     632.00
 23.87     649.18
 23.97     592.90
 24.07     594.00
 24.17     639.88
 24.27     580.58
 24.37     616.00
 24.47     632.00
 24.57     684.00
 24.67     716.54
 24.77     671.82
 24.87     697.00
 24.97     731.00
 25.07     695.00
 25.17     686.00
 25.27     685.07
 25.37     585.39
 25.47     645.00
 25.57     689.00
 25.67     588.90
 25.77     666.00
 25.87     675.67
 25.97     593.97
 26.07     708.00
 26.17     638.00
 26.27     701.00
 26.37     584.61
 26.47     672.00
 26.57     707.00
 26.67     641.67
 26.77     612.99
 26.87     647.00
 26.97     666.00
 27.07     647.90
 27.17     702.00
 27.27     758.00
 27.37     667.81
 27.47     645.36
 27.57     770.00
 27.67     699.15
 27.77     790.00
 27.87     698.41
 27.97     927.00
 28.07     929.60
 28.17    1140.44
 28.27    1334.08
 28.37    1352.00
 28.47    1372.00
 28.57    1279.88
 28.67    1072.00
 28.77    1102.00
 28.87    1165.00
 28.97    1162.00
 29.07    1187.00
 29.17    1104.00
 29.27    1094.00
 29.37     884.71
 29.47     902.00
 29.57     796.00
 29.67     705.26
 29.77     622.60
 29.87     736.00
 29.97     582.37
 30.07     568.39
 30.17     574.77
 30.27     739.00
 30.37     573.84
 30.47     738.00
 30.57     637.00
 30.67     597.19
 30.77     652.00
 30.87     705.00
 30.97     725.00
 31.07     712.75
 31.17     723.95
 31.27     693.00
 31.37     659.34
 31.47     642.64
 31.57     639.00
 31.67     616.00
 31.77     622.79
 31.87     546.31
 31.97     577.00
 32.07     643.36
 32.17     615.00
 32.27     671.00
 32.37     641.00
 32.47     636.29
 32.57     564.98
 32.67     626.00
 32.77     609.00
 32.87     657.00
 32.97     553.25
 33.07     590.00
 33.17     556.08
 33.27     597.00
 33.37     641.77
 33.47     661.03
 33.57     618.62
 33.67     687.38
 33.77     677.00
 33.87     765.00
 33.97     899.06
 34.07     969.00
 34.17    1040.00
 34.27    1086.66
 34.37     943.00
 34.47     841.00
 34.57     745.00
 34.67     694.00
 34.77     622.00
 34.87     582.06
 34.97     641.95
 35.07     631.00
 35.17     612.00
 35.27     605.00
 35.37     595.66
 35.47     586.69
 35.57     551.00
 35.67     571.00
 35.77     548.00
 35.87     541.15
 35.97     506.00
 36.07     617.73
 36.17     540.00
 36.27     569.00
 36.37     530.00
 36.47     576.01
 36.57     561.00
 36.67     582.03
 36.77     542.00
 36.87     531.31
 36.97     550.00
 37.07     582.00
 37.17     521.00
 37.27     565.00
 37.37     570.00
 37.47     571.00
 37.57     577.16
 37.67     584.00
 37.77     564.00
 37.87     540.00
 37.97     572.00
 38.07     541.00
 38.17     582.48
 38.27     634.50
 38.37     574.00
 38.47     553.00
 38.57     518.45
 38.67     536.97
 38.77     567.47
 38.87     507.00
 38.97     594.09
 39.07     538.00
 39.17     559.00
 39.27     611.45
 39.37     514.18
 39.47     566.00
 39.57     541.00
 39.67     589.76
 39.77     546.00
 39.87     509.00
 39.97     512.28
 40.07     546.00
 40.17     554.00
 40.27     545.00
 40.37     541.00
 40.47     530.96
 40.57     509.00
 40.67     512.00
 40.77     503.00
 40.87     517.61
 40.97     539.00
 41.07     541.00
 41.17     508.00
 41.27     493.00
 41.37     523.00
 41.47     572.00
 41.57     572.00
 41.67     545.36
 41.77     557.10
 41.87     525.12
 41.97     510.00
 42.07     588.24
 42.17     570.65
 42.27     528.00
 42.37     592.14
 42.47     589.00
 42.57     578.00
 42.67     619.00
 42.77     619.00
 42.87     710.94
 42.97     639.07
 43.07     642.86
 43.17     596.00
 43.27     552.00
 43.37     563.85
 43.47     577.57
 43.57     533.94
 43.67     565.00
 43.77     562.52
 43.87     516.00
 43.97     584.97
 44.07     538.00
 44.17     600.23
 44.27     535.00
 44.37     591.00
 44.47     552.00
 44.57     582.14
 44.67     540.37
 44.77     517.00
 44.87     571.57
 44.97     580.00
 45.07     581.00
 45.17     554.12
 45.27     511.00
 45.37     532.00
 45.47     490.93
 45.57     541.00
 45.67     509.26
 45.77     562.00
 45.87     556.00
 45.97     549.00
 46.07     530.99
 46.17     541.00
 46.27     585.00
 46.37     510.87
 46.47     588.73
 46.57     538.00
 46.67     582.00
 46.77     561.00
 46.87     551.00
 46.97     511.17
 47.07     574.59
 47.17     590.44
 47.27     562.69
 47.37     566.00
 47.47     577.00
 47.57     579.04
 47.67     597.00
 47.77     567.71
 47.87     570.73
 47.97     635.00
 48.07     691.00
 48.17     645.39
 48.27     641.00
 48.37     646.00
 48.47     644.00
 48.57     578.00
 48.67     619.76
 48.77     556.00
 48.87     581.00
 48.97     611.00
 49.07     580.00
 49.17     612.00
 49.27     585.50
 49.37     577.00
 49.47     597.89
 49.57     744.26
 49.67     764.46
 49.77     786.00
 49.87     953.72
 49.97    1260.48
 50.07    1347.00
 50.17    1841.00
 50.27    2006.21
 50.37    2379.00
 50.47    2379.00
 50.57    2274.00
 50.67    2027.00
 50.77    1589.53
 50.87    1207.00
 50.97    1069.48
 51.07     808.00
 51.17     717.00
 51.27     717.00
 51.37     688.67
 51.47     674.00
 51.57     731.94
 51.67     662.00
 51.77     606.00
 51.87     579.50
 51.97     629.67
 52.07     601.05
 52.17     596.00
 52.27     608.92
 52.37     605.00
 52.47     600.00
 52.57     588.00
 52.67     632.41
 52.77     607.00
 52.87     622.00
 52.97     670.00
 53.07     651.87
 53.17     758.00
 53.27     734.63
 53.37     913.00
 53.47     965.20
 53.57    1131.00
 53.67    1183.00
 53.77    1189.56
 53.87    1245.00
 53.97    1129.00
 54.07    1013.00
 54.17     890.00
 54.27     853.00
 54.37     738.29
 54.47     772.00
 54.57     670.00
 54.67     701.16
 54.77     636.00
 54.87     560.17
 54.97     653.00
 55.07     687.00
 55.17     636.62
 55.27     641.00
 55.37     569.63
 55.47     640.00
 55.57     627.00
 55.67     592.00
 55.77     645.00
 55.87     672.00
 55.97     603.00
 56.07     700.00
 56.17     710.00
 56.27     763.00
 56.37     838.00
 56.47     964.37
 56.57    1076.00
 56.67    1362.00
 56.77    1697.19
 56.87    1894.63
 56.97    2311.00
 57.07    2584.99
 57.17    2653.00
 57.27    2473.00
 57.37    2255.00
 57.47    1862.00
 57.57    1534.49
 57.67    1273.00
 57.77    1077.72
 57.87     909.00
 57.97     915.39
 58.07     814.29
 58.17     712.00
 58.27     723.00
 58.37     798.71
 58.47     826.00
 58.57     842.00
 58.67     817.98
 58.77     929.00
 58.87    1019.00
 58.97    1061.00
 59.07    1105.00
 59.17    1118.00
 59.27    1270.00
 59.37    1310.04
 59.47    1265.00
 59.57    1215.00
 59.67    1186.99
 59.77    1179.81
 59.87    1103.00
 59.97    1127.75
 60.07    1341.00
 60.17    1323.00
 60.27    1398.00
 60.37    1573.00
 60.47    1566.00
 60.57    1654.00
 60.67    1559.00
 60.77    1377.23
 60.87    1323.00
 60.97    1177.00
 61.07    1015.00
 61.17     874.94
 61.27     777.00
 61.37     796.00
 61.47     803.00
 61.57     795.53
 61.67     753.00
 61.77     823.47
 61.87     888.00
 61.97     957.00
 62.07    1030.85
 62.17    1193.90
 62.27    1314.00
 62.37    1346.00
 62.47    1368.63
 62.57    1341.00
 62.67    1333.76
 62.77    1187.00
 62.87    1019.00
 62.97     909.30
 63.07     781.00
 63.17     730.02
 63.27     696.00
 63.37     695.00
 63.47     710.20
 63.57     654.00
 63.67     646.00
 63.77     655.00
 63.87     665.00
 63.97     697.39
 64.07     684.00
 64.17     723.21
 64.27     766.00
 64.37     799.00
 64.47     894.00
 64.57     888.65
 64.67    1035.00
 64.77     971.01
 64.87    1064.00
 64.97    1068.36
 65.07    1014.20
 65.17    1049.00
 65.27    1045.00
 65.37     972.00
 65.47     973.00
 65.57     848.00
 65.67     811.00
 65.77     734.72
 65.87     706.00
 65.97     657.00
 66.07     688.00
 66.17     608.00
 66.27     692.71
 66.37     671.50
 66.47     649.55
 66.57     638.00
 66.67     619.20
 66.77     681.89
 66.87     648.00
 66.97     609.66
 67.07     714.66
 67.17     672.00
 67.27     691.00
 67.37     773.00
 67.47     771.00
 67.57     913.00
 67.67    1023.00
 67.77    1158.00
 67.87    1357.00
 67.97    1550.00
 68.07    1819.00
 68.17    2136.00
 68.27    2262.00
 68.37    2394.06
 68.47    2432.73
 68.57    2321.00
 68.67    2092.41
 68.77    2018.99
 68.87    1805.17
 68.97    1386.00
 69.07    1172.00
 69.17    1117.27
 69.27     980.00
 69.37     832.00
 69.47     759.40
 69.57     712.55
 69.67     723.00
 69.77     688.93
 69.87     656.62
 69.97     592.15
 70.07     640.72
 70.17     597.00
 70.27     659.15
 70.37     639.00
 70.47     612.00
 70.57     594.00
 70.67     652.00
 70.77     603.73
 70.87     624.00
 70.97     623.00
 71.07     649.00
 71.17     630.35
 71.27     709.89
 71.37     732.56
 71.47     794.00
 71.57     882.00
 71.67     976.00
 71.77    1080.00
 71.87    1297.00
 71.97    1480.82
 72.07    1607.18
 72.17    1683.00
 72.27    1829.00
 72.37    1971.75
 72.47    1867.00
 72.57    1847.33
 72.67    1626.00
 72.77    1558.00
 72.87    1383.00
 72.97    1222.00
 73.07    1024.84
 73.17     998.44
 73.27     903.00
 73.37     857.00
 73.47     727.50
 73.57     744.92
 73.67     655.00
 73.77     597.06
 73.87     664.00
 73.97     604.30
 74.07     609.55
 74.17     590.00
 74.27     610.00
 74.37     623.00
 74.47     640.00
 74.57     596.18
 74.67     618.00
 74.77     669.00
 74.87     584.19
 74.97     701.00
 75.07     715.00
 75.17     541.50
 75.27     658.00
 75.37     697.00
 75.47     626.00
 75.57     615.07
 75.67     650.00
 75.77     605.00
 75.87     573.79
 75.97     537.23
 76.07     599.00
 76.17     595.00
 76.27     672.67
 76.37     706.05
 76.47     715.65
 76.57     690.54
 76.67     688.70
 76.77     751.00
 76.87     759.00
 76.97     792.72
 77.07     748.00
 77.17     748.82
 77.27     761.00
 77.37     766.00
 77.47     686.21
 77.57     623.86
 77.67     605.00
 77.77     607.00
 77.87     611.00
 77.97     613.00
 78.07     546.66
 78.17     551.00
 78.27     553.64
 78.37     540.00
 78.47     563.00
 78.57     573.61
 78.67     511.23
 78.77     557.00
 78.87     518.48
 78.97     530.00
 79.07     550.00
 79.17     587.00
 79.27     540.00
 79.37     526.08
 79.47     575.00
 79.57     511.11
 79.67     579.45
 79.77     558.00
 79.87     587.47
 79.97     588.00
 80.07     544.00
 80.17     600.00
 80.27     614.00
 80.37     605.00
 80.47     636.94
 80.57     631.00
 80.67     626.00
 80.77     635.00
 80.87     614.00
 80.97     683.00
 81.07     736.00
 81.17     699.00
 81.27     758.00
 81.37     753.00
 81.47     766.00
 81.57     766.00
 81.67     807.00
 81.77     792.00
 81.87     845.12
 81.97     871.00
 82.07     773.00
 82.17     748.00
 82.27     770.00
 82.37     756.00
 82.47     697.47
 82.57     653.00
 82.67     677.00
 82.77     668.47
 82.87     651.00
 82.97     591.00
 83.07     587.00
 83.17     663.75
 83.27     593.00
 83.37     538.00
 83.47     556.00
 83.57     622.56
 83.67     591.00
 83.77     602.00
 83.87     623.15
 83.97     582.00
 84.07     547.18
 84.17     559.00
 84.27     561.00
 84.37     579.00
 84.47     606.00
 84.57     609.00
 84.67     600.00
 84.77     649.00
 84.87     566.45
 84.97     552.00
 85.07     598.98
 85.17     582.82
 85.27     612.26
 85.37     546.00
 85.47     555.00
 85.57     509.00
 85.67     519.23
 85.77     598.00
 85.87     517.00
 85.97     512.93
 86.07     588.00
 86.17     528.44
 86.27     555.00
 86.37     555.00
 86.47     591.00
 86.57     572.07
 86.67     611.76
 86.77     571.00
 86.87     588.00
 86.97     582.56
 87.07     555.00
 87.17     619.00
 87.27     623.00
 87.37     587.00
 87.47     646.00
 87.57     637.41
 87.67     677.00
 87.77     640.00
 87.87     705.62
 87.97     694.00
 88.07     677.00
 88.17     682.00
 88.27     676.00
 88.37     624.00
 88.47     686.00
 88.57     630.69
 88.67     666.79
 88.77     593.00
 88.87     606.23
 88.97     585.00
 89.07     626.38
 89.17     646.00
 89.27     552.00
 89.37     610.00
 89.47     606.00
 89.57     671.25
 89.67     624.00
 89.77     590.00
 89.87     596.13
 89.97     631.00
 90.07     565.00
 90.17     572.79
 90.27     632.64
 90.37     537.00
 90.47     550.64
 90.57     620.58
 90.67     572.22
 90.77     521.80
 90.87     534.00
 90.97     553.00
 91.07     528.84
 91.17     504.61
 91.27     540.00
 91.37     522.30
 91.47     533.00
 91.57     546.00
 91.67     534.37
 91.77     520.00
 91.87     586.22
 91.97     599.86
 92.07     534.00
 92.17     579.63
 92.27     568.00
 92.37     567.00
 92.47     614.00
 92.57     613.58
 92.67     577.00
 92.77     614.07
 92.87     595.93
 92.97     629.00
 93.07     605.00
 93.17     674.00
 93.27     683.26
 93.37     763.02
 93.47     706.00
 93.57     749.00
 93.67     793.00
 93.77     740.34
 93.87     773.00
 93.97     732.00
 94.07     807.82
 94.17     853.00
 94.27     832.00
 94.37     780.60
 94.47     855.00
 94.57     827.00
 94.67     837.00
 94.77     902.00
 94.87     984.00
 94.97     935.00
 95.07     943.43
 95.17     970.38
 95.27     963.00
 95.37     926.42
 95.47     950.00
 95.57     968.00
 95.67     887.00
 95.77     800.09
 95.87     865.00
 95.97     826.00
 96.07     801.00
 96.17     731.00
 96.27     792.00
 96.37     761.00
 96.47     740.00
 96.57     775.00
 96.67     771.00
 96.77     793.71
 96.87     826.00
 96.97     920.97
 97.07     974.30
 97.17    1004.20
 97.27     998.90
 97.37    1131.00
 97.47    1195.00
 97.57    1214.43
 97.67    1301.00
 97.77    1364.00
 97.87    1429.87
 97.97    1391.91
 98.07    1522.00
 98.17    1546.89
 98.27    1496.00
 98.37    1402.00
 98.47    1364.00
 98.57    1466.00
 98.67    1309.00
 98.77    1265.00
 98.87    1138.00
 98.97    1132.00
 99.07    1006.00
 99.17    1024.00
 99.27    1021.10
 99.37     860.00
 99.47     937.87
 99.57     936.23
 99.67     925.00
 99.77     976.00
 99.87    1011.00
 99.97    1122.00
100.07    1086.00
100.17    1183.44
100.27    1316.00
100.37    1331.00
100.47    1436.65
100.57    1659.00
100.67    1700.00
100.77    1778.00
100.87    1839.00
100.97    1916.00
101.07    1941.00
101.17    2109.00
101.27    2037.30
101.37    1945.00
101.47    1934.87
101.57    2000.00
101.67    1893.00
101.77    1843.42
101.87    1874.00
101.97    1753.34
102.07    1635.00
102.17    1556.00
102.27    1518.00
102.37    1506.85
102.47    1348.00
102.57    1329.00
102.67    1287.00
102.77    1341.62
102.87    1224.31
102.97    1191.00
103.07    1161.00
103.17    1115.00
103.27    1163.00
103.37    1131.00
103.47    1085.00
103.57    1034.85
103.67     975.00
103.77     958.00
103.87     953.29
103.97     870.00
104.07     822.88
104.17     755.54
104.27     728.38
104.37     715.09
104.47     708.00
104.57     624.29
104.67     670.31
104.77     607.00
104.87     676.06
104.97     646.00
105.07     621.00
105.17     617.00
105.27     530.16
105.37     578.00
105.47     546.87
105.57     609.66
105.67     556.00
105.77     538.02
105.87     606.00
105.97     549.42
106.07     645.00
106.17     592.00
106.27     620.05
106.37     561.00
106.47     619.00
106.57     592.00
106.67     622.00
106.77     594.00
106.87     581.78
106.97     643.00
107.07     619.00
107.17     659.00
107.27     670.00
107.37     722.39
107.47     694.00
107.57     691.00
107.67     728.00
107.77     678.35
107.87     707.00
107.97     730.00
108.07     667.00
108.17     710.00
108.27     741.00
108.37     685.00
108.47     776.59
108.57     718.00
108.67     699.00
108.77     696.00
108.87     759.31
108.97     695.00
109.07     744.01
109.17     681.65
109.27     775.00
109.37     732.50
109.47     662.29
109.57     746.00
109.67     667.27
109.77     730.59
109.87     688.00
109.97     759.98
110.07     687.00
110.17     715.61
110.27     666.13
110.37     670.00
110.47     611.69
110.57     593.47
110.67     627.39
110.77     636.00
110.87     648.95
110.97     609.00
111.07     575.00
111.17     591.00
111.27     642.15
111.37     564.44
111.47     635.00
111.57     584.00
111.67     586.00
111.77     584.00
111.87     592.00
111.97     611.00
112.07     582.31
112.17     584.00
112.27     566.00
112.37     526.00
112.47     549.00
112.57     569.00
112.67     525.00
112.77     577.00
112.87     613.00
112.97     628.00
113.07     563.38
113.17     603.65
113.27     594.17
113.37     587.00
113.47     554.04
113.57     613.00
113.67     608.00
113.77     632.00
113.87     638.00
113.97     679.96
114.07     673.00
114.17     731.16
114.27     661.00
114.37     706.00
114.47     788.34
114.57     847.00
114.67     797.00
114.77     908.79
114.87     955.00
114.97    1068.00
115.07    1088.00
115.17    1234.00
115.27    1488.00
115.37    1588.00
115.47    1746.00
115.57    1832.46
115.67    2169.59
115.77    2481.00
115.87    2702.00
115.97    3071.00
116.07    3289.00
116.17    3784.00
116.27    4136.00
116.37    4357.82
116.47    4772.69
116.57    5067.00
116.67    5537.00
116.77    5882.00
116.87    6144.00
116.97    6558.00
117.07    6599.69
117.17    7081.58
117.27    7056.00
117.37    7060.00
117.47    7319.00
117.57    6947.90
117.67    6990.00
117.77    6552.21
117.87    6450.55
117.97    6330.58
118.07    5925.73
118.17    5383.00
118.27    4980.00
118.37    4591.21
118.47    4342.69
118.57    4060.00
118.67    3674.19
118.77    3353.00
118.87    2938.00
118.97    2698.00
119.07    2453.00
119.17    2128.00
119.27    1936.00
119.37    1825.50
119.47    1550.59
119.57    1553.47
119.67    1394.00
119.77    1255.95
119.87    1192.81
119.97    1043.00
120.07    1023.00
120.17     897.00
120.27     850.00
120.37     865.00
120.47     805.00
120.57     806.00
120.67     758.00
120.77     787.00
120.87     760.51
120.97     678.00
121.07     680.00
121.17     647.00
121.27     656.00
121.37     631.00
121.47     610.00
121.57     633.00
121.67     615.00
121.77     588.18
121.87     677.94
121.97     606.00
122.07     630.00
122.17     677.00
122.27     643.00
122.37     588.42
122.47     632.00
122.57     633.00
122.67     644.00
122.77     638.71
122.87     681.70
122.97     606.00
123.07     657.08
123.17     666.00
123.27     667.00
123.37     642.00
123.47     625.43
123.57     627.00
123.67     681.00
123.77     716.00
123.87     679.00
123.97     643.00
124.07     687.90
124.17     621.00
124.27     674.00
124.37     639.25
124.47     697.24
124.57     609.47
124.67     579.43
124.77     656.00
124.87     703.00
124.97     618.00
