  9.97     624.00
 10.07     603.32
 10.17     581.00
 10.27     596.00
 10.37     534.39
 10.47     629.00
 10.57     587.00
 10.67     552.20
 10.77     601.00
 10.87     582.00
 10.97     603.00
 11.07     607.00
 11.17     534.38
 11.27     595.00
 11.37     572.00
 11.47     619.37
 11.57     645.00
 11.67     637.00
 11.77     604.00
 11.87     614.00
 11.97     652.70
 12.07     683.00
 12.17     687.66
 12.27     746.00
 12.37     608.00
 12.47     624.00
 12.57     572.00
 12.67     564.55
 12.77     591.00
 12.87     539.26
 12.97     612.00
 13.07     538.72
 13.17     550.00
 13.27     521.00
 13.37     566.00
 13.47     550.00
 13.57     564.32
 13.67     607.00
 13.77     614.62
 13.87     541.00
 13.97     593.74
 14.07     545.91
 14.17     570.00
 14.27     603.67
 14.37     569.00
 14.47     592.49
 14.57     574.00
 14.67     572.00
 14.77     538.00
 14.87     585.00
 14.97     548.00
 15.07     592.12
 15.17     540.00
 15.27     530.47
 15.37     568.00
 15.47     565.00
 15.57     559.00
 15.67     550.00
 15.77     597.63
 15.87     553.00
 15.97     586.00
 16.07     598.00
 16.17     582.00
 16.27     531.79
 16.37     519.32
 16.47     563.05
 16.57     576.00
 16.67     565.00
 16.77     588.00
 16.87     604.00
 16.97     532.24
 17.07     593.00
 17.17     556.00
 17.27     530.00
 17.37     507.00
 17.47     517.00
 17.57     608.00
 17.67     572.00
 17.77     541.00
 17.87     606.35
 17.97     561.00
 18.07     547.00
 18.17     550.27
 18.27     545.00
 18.37     537.00
 18.47     533.84
 18.57     536.78
 18.67     571.00
 18.77     512.87
 18.87     525.00
 18.97     559.00
 19.07     544.00
 19.17     528.52
 19.27     518.72
 19.37     583.00
 19.47     504.00
 19.57     546.00
 19.67     491.00
 19.77     553.00
 19.87     546.00
 19.97     529.00
 20.07     539.00
 20.17     551.25
 20.27     576.00
 20.37     579.40
 20.47     556.31
 20.57     567.00
 20.67     552.00
 20.77     587.00
 20.87     550.58
 20.97     593.13
 21.07     517.00
 21.17     558.00
 21.27     570.00
 21.37     516.75
 21.47     568.00
 21.57     583.00
 21.67     507.54
 21.77     566.21
 21.87     575.36
 21.97     568.33
 22.07     557.00
 22.17     548.38
 22.27     507.15
 22.37     516.00
 22.47     510.48
 22.57     550.00
 22.67     545.56
 22.77     547.00
 22.87     582.01
 22.97     539.00
 23.07     589.61
 23.17     556.24
 23.27     545.00
 23.37     554.00
 23.47     543.00
 23.57     561.00
 23.67     551.00
 23.77     584.00
 23.87     539.00
 23.97     502.00
 24.07     567.00
 24.17     525.00
 24.27     534.00
 24.37     558.00
 24.47     582.00
 24.57     580.94
 24.67     599.00
 24.77     622.70
 24.87     679.00
 24.97     608.84
 25.07     587.90
 25.17     610.15
 25.27     548.00
 25.37     574.40
 25.47     504.21
 25.57     501.00
 25.67     537.00
 25.77     569.81
 25.87     603.00
 25.97     492.33
 26.07     560.00
 26.17     547.00
 26.27     583.78
 26.37     514.00
 26.47     588.00
 26.57     598.00
 26.67     521.00
 26.77     539.00
 26.87     508.41
 26.97     555.00
 27.07     509.00
 27.17     567.00
 27.27     540.00
 27.37     504.06
 27.47     577.21
 27.57     532.00
 27.67     578.00
 27.77     579.00
 27.87     597.00
 27.97     678.00
 28.07     748.00
 28.17     956.00
 28.27     980.00
 28.37     923.00
 28.47     815.00
 28.57     641.00
 28.67     715.00
 28.77     706.97
 28.87     770.14
 28.97     820.00
 29.07     817.41
 29.17     683.28
 29.27     620.00
 29.37     621.62
 29.47     595.00
 29.57     567.14
 29.67     553.73
 29.77     588.00
 29.87     549.00
 29.97     547.00
 30.07     511.47
 30.17     614.00
 30.27     550.46
 30.37     535.00
 30.47     548.00
 30.57     545.20
 30.67     615.00
 30.77     613.02
 30.87     631.26
 30.97     631.00
 31.07     593.00
 31.17     602.00
 31.27     522.11
 31.37     581.00
 31.47     551.00
 31.57     536.00
 31.67     547.00
 31.77     538.00
 31.87     552.00
 31.97     506.00
 32.07     542.00
 32.17     506.57
 32.27     569.12
 32.37     548.00
 32.47     538.00
 32.57     503.31
 32.67     564.95
 32.77     546.00
 32.87     520.00
 32.97     570.00
 33.07     547.00
 33.17     513.70
 33.27     508.03
 33.37     552.87
 33.47     564.00
 33.57     568.00
 33.67     634.00
 33.77     762.00
 33.87     867.49
 33.97     978.74
 34.07    1009.44
 34.17    1012.30
 34.27     905.10
 34.37     710.01
 34.47     619.00
 34.57     616.88
 34.67     504.99
 34.77     550.49
 34.87     547.00
 34.97     516.00
 35.07     482.29
 35.17     521.00
 35.27     561.00
 35.37     559.00
 35.47     498.74
 35.57     462.00
 35.67     480.91
 35.77     502.00
 35.87     548.00
 35.97     534.00
 36.07     530.00
 36.17     544.00
 36.27     498.95
 36.37     559.39
 36.47     489.54
 36.57     497.00
 36.67     445.00
 36.77     484.52
 36.87     540.00
 36.97     518.00
 37.07     544.09
 37.17     506.88
 37.27     525.00
 37.37     504.00
 37.47     526.86
 37.57     529.00
 37.67     500.83
 37.77     513.00
 37.87     543.88
 37.97     503.00
 38.07     498.00
 38.17     517.00
 38.27     543.50
 38.37     522.00
 38.47     483.40
 38.57     481.00
 38.67     542.00
 38.77     546.00
 38.87     476.31
 38.97     483.00
 39.07     498.00
 39.17     523.00
 39.27     541.72
 39.37     541.60
 39.47     472.57
 39.57     524.00
 39.67     505.00
 39.77     538.69
 39.87     544.00
 39.97     484.00
 40.07     468.00
 40.17     465.00
 40.27     500.00
 40.37     457.00
 40.47     468.94
 40.57     545.88
 40.67     497.00
 40.77     478.18
 40.87     549.89
 40.97     477.00
 41.07     491.00
 41.17     519.00
 41.27     495.00
 41.37     520.97
 41.47     517.00
 41.57     523.00
 41.67     478.50
 41.77     531.27
 41.87     546.42
 41.97     480.00
 42.07     479.00
 42.17     497.05
 42.27     542.00
 42.37     544.00
 42.47     590.50
 42.57     571.63
 42.67     631.00
 42.77     572.00
 42.87     595.00
 42.97     554.00
 43.07     547.01
 43.17     554.83
 43.27     498.27
 43.37     557.00
 43.47     510.00
 43.57     535.00
 43.67     551.00
 43.77     469.00
 43.87     519.00
 43.97     502.00
 44.07     536.00
 44.17     488.00
 44.27     459.00
 44.37     475.29
 44.47     474.36
 44.57     544.71
 44.67     466.44
 44.77     497.93
 44.87     532.00
 44.97     503.46
 45.07     508.37
 45.17     530.00
 45.27     519.00
 45.37     534.00
 45.47     513.00
 45.57     476.21
 45.67     515.00
 45.77     484.00
 45.87     530.00
 45.97     461.00
 46.07     529.00
 46.17     535.00
 46.27     504.91
 46.37     494.00
 46.47     496.00
 46.57     485.00
 46.67     480.00
 46.77     521.00
 46.87     491.00
 46.97     487.00
 47.07     527.00
 47.17     547.77
 47.27     528.00
 47.37     515.00
 47.47     547.00
 47.57     540.00
 47.67     555.40
 47.77     541.51
 47.87     577.72
 47.97     572.83
 48.07     547.73
 48.17     548.00
 48.27     528.00
 48.37     521.12
 48.47     528.63
 48.57     536.00
 48.67     537.00
 48.77     497.00
 48.87     555.00
 48.97     581.00
 49.07     592.10
 49.17     611.00
 49.27     669.00
 49.37     682.00
 49.47     683.33
 49.57     797.84
 49.67     869.00
 49.77    1169.00
 49.87    1487.00
 49.97    1809.00
 50.07    2290.00
 50.17    2483.00
 50.27    2573.00
 50.37    2246.06
 50.47    1864.00
 50.57    1475.74
 50.67     989.00
 50.77     821.20
 50.87     678.00
 50.97     670.64
 51.07     603.00
 51.17     613.00
 51.27     569.00
 51.37     620.00
 51.47     578.00
 51.57     570.70
 51.67     557.00
 51.77     536.20
 51.87     576.00
 51.97     593.00
 52.07     567.00
 52.17     551.00
 52.27     528.00
 52.37     563.90
 52.47     519.94
 52.57     531.22
 52.67     538.00
 52.77     556.00
 52.87     605.00
 52.97     728.00
 53.07     811.00
 53.17     889.65
 53.27    1009.00
 53.37    1100.18
 53.47    1182.85
 53.57    1161.00
 53.67    1068.00
 53.77    1028.55
 53.87     868.00
 53.97     758.00
 54.07     706.00
 54.17     586.00
 54.27     551.65
 54.37     568.00
 54.47     571.00
 54.57     579.94
 54.67     576.00
 54.77     564.31
 54.87     543.76
 54.97     499.47
 55.07     511.95
 55.17     565.92
 55.27     532.49
 55.37     583.00
 55.47     526.00
 55.57     583.00
 55.67     570.00
 55.77     589.00
 55.87     618.00
 55.97     650.00
 56.07     594.00
 56.17     751.70
 56.27     862.00
 56.37    1087.00
 56.47    1392.00
 56.57    1825.16
 56.67    2121.00
 56.77    2420.00
 56.87    2568.00
 56.97    2617.00
 57.07    2359.00
 57.17    1915.61
 57.27    1772.00
 57.37    1282.95
 57.47    1051.00
 57.57     831.92
 57.67     724.80
 57.77     678.00
 57.87     705.00
 57.97     614.00
 58.07     626.44
 58.17     710.00
 58.27     792.00
 58.37     865.00
 58.47     905.00
 58.57    1098.00
 58.67    1201.03
 58.77    1445.18
 58.87    1507.62
 58.97    1566.59
 59.07    1561.68
 59.17    1469.22
 59.27    1433.79
 59.37    1366.00
 59.47    1166.80
 59.57    1207.50
 59.67    1167.00
 59.77    1166.00
 59.87    1230.00
 59.97    1302.88
 60.07    1496.00
 60.17    1449.09
 60.27    1600.00
 60.37    1543.98
 60.47    1381.80
 60.57    1287.18
 60.67    1056.00
 60.77     851.00
 60.87     797.35
 60.97     631.00
 61.07     669.00
 61.17     663.00
 61.27     627.00
 61.37     629.71
 61.47     688.00
 61.57     734.00
 61.67     888.82
 61.77     898.00
 61.87    1028.00
 61.97    1240.00
 62.07    1461.82
 62.17    1387.00
 62.27    1430.00
 62.37    1368.00
 62.47    1195.00
 62.57    1040.00
 62.67     879.00
 62.77     777.00
 62.87     716.71
 62.97     611.96
 63.07     627.00
 63.17     571.00
 63.27     531.92
 63.37     570.00
 63.47     578.70
 63.57     586.54
 63.67     557.00
 63.77     602.00
 63.87     640.00
 63.97     658.00
 64.07     714.96
 64.17     696.00
 64.27     835.00
 64.37     949.00
 64.47     941.00
 64.57    1009.00
 64.67     980.00
 64.77    1059.19
 64.87     996.00
 64.97     863.85
 65.07     932.00
 65.17     824.69
 65.27     727.00
 65.37     723.03
 65.47     694.84
 65.57     626.00
 65.67     637.00
 65.77     607.00
 65.87     534.00
 65.97     595.00
 66.07     558.42
 66.17     512.50
 66.27     508.00
 66.37     507.00
 66.47     557.51
 66.57     574.00
 66.67     527.00
 66.77     559.00
 66.87     556.00
 66.97     598.00
 67.07     587.00
 67.17     634.32
 67.27     764.00
 67.37     909.05
 67.47    1053.00
 67.57    1276.23
 67.67    1500.00
 67.77    1764.00
 67.87    2005.00
 67.97    2386.00
 68.07    2414.51
 68.17    2479.01
 68.27    2389.00
 68.37    2202.00
 68.47    1800.17
 68.57    1494.00
 68.67    1299.09
 68.77    1058.03
 68.87     912.00
 68.97     731.94
 69.07     693.00
 69.17     633.00
 69.27     628.00
 69.37     575.00
 69.47     550.60
 69.57     609.25
 69.67     604.00
 69.77     592.94
 69.87     609.70
 69.97     528.46
 70.07     569.00
 70.17     515.21
 70.27     581.00
 70.37     552.00
 70.47     545.00
 70.57     555.00
 70.67     590.00
 70.77     565.00
 70.87     612.00
 70.97     637.00
 71.07     617.00
 71.17     673.00
 71.27     754.00
 71.37     868.00
 71.47    1021.00
 71.57    1268.00
 71.67    1448.00
 71.77    1643.57
 71.87    1765.00
 71.97    1844.00
 72.07    1969.00
 72.17    1864.00
 72.27    1908.00
 72.37    1720.00
 72.47    1503.00
 72.57    1354.79
 72.67    1247.91
 72.77    1094.00
 72.87    1050.81
 72.97     873.00
 73.07     888.02
 73.17     769.02
 73.27     781.06
 73.37     693.00
 73.47     716.77
 73.57     656.43
 73.67     583.00
 73.77     586.00
 73.87     633.48
 73.97     578.96
 74.07     599.00
 74.17     534.15
 74.27     552.67
 74.37     620.00
 74.47     580.00
 74.57     613.00
 74.67     653.00
 74.77     622.00
 74.87     646.00
 74.97     523.93
 75.07     642.00
 75.17     586.00
 75.27     559.00
 75.37     572.00
 75.47     562.00
 75.57     601.64
 75.67     578.00
 75.77     556.62
 75.87     568.66
 75.97     620.00
 76.07     658.00
 76.17     652.24
 76.27     711.00
 76.37     660.90
 76.47     679.00
 76.57     700.00
 76.67     766.00
 76.77     670.83
 76.87     644.00
 76.97     665.21
 77.07     588.00
 77.17     615.00
 77.27     593.75
 77.37     608.11
 77.47     564.00
 77.57     535.00
 77.67     496.21
 77.77     574.00
 77.87     488.00
 77.97     511.79
 78.07     522.00
 78.17     486.00
 78.27     550.44
 78.37     528.00
 78.47     558.46
 78.57     569.05
 78.67     527.00
 78.77     569.43
 78.87     554.00
 78.97     529.65
 79.07     516.49
 79.17     522.00
 79.27     554.00
 79.37     534.00
 79.47     539.00
 79.57     501.00
 79.67     576.00
 79.77     520.00
 79.87     516.00
 79.97     537.31
 80.07     566.00
 80.17     580.13
 80.27     543.10
 80.37     531.00
 80.47     586.97
 80.57     569.65
 80.67     582.00
 80.77     687.00
 80.87     648.00
 80.97     721.00
 81.07     715.00
 81.17     786.04
 81.27     765.00
 81.37     697.38
 81.47     707.16
 81.57     721.19
 81.67     770.71
 81.77     766.00
 81.87     746.96
 81.97     704.40
 82.07     673.00
 82.17     677.00
 82.27     592.83
 82.37     654.00
 82.47     610.00
 82.57     577.46
 82.67     584.00
 82.77     599.37
 82.87     594.00
 82.97     566.00
 83.07     522.00
 83.17     528.00
 83.27     525.00
 83.37     543.00
 83.47     558.00
 83.57     502.00
 83.67     526.00
 83.77     589.00
 83.87     565.09
 83.97     575.98
 84.07     613.02
 84.17     617.98
 84.27     601.72
 84.37     593.00
 84.47     511.00
 84.57     537.84
 84.67     526.12
 84.77     545.00
 84.87     523.62
 84.97     539.00
 85.07     514.00
 85.17     522.00
 85.27     530.00
 85.37     528.00
 85.47     469.00
 85.57     516.00
 85.67     562.00
 85.77     521.00
 85.87     523.00
 85.97     529.00
 86.07     559.00
 86.17     509.00
 86.27     513.00
 86.37     530.74
 86.47     570.00
 86.57     563.15
 86.67     568.43
 86.77     564.00
 86.87     615.23
 86.97     610.00
 87.07     613.86
 87.17     642.59
 87.27     672.00
 87.37     663.00
 87.47     662.00
 87.57     657.68
 87.67     662.00
 87.77     589.01
 87.87     590.39
 87.97     625.00
 88.07     595.00
 88.17     604.00
 88.27     577.00
 88.37     605.00
 88.47     579.00
 88.57     528.00
 88.67     549.00
 88.77     547.71
 88.87     588.35
 88.97     546.10
 89.07     548.85
 89.17     609.56
 89.27     645.05
 89.37     598.72
 89.47     611.00
 89.57     633.85
 89.67     557.14
 89.77     581.64
 89.87     584.00
 89.97     574.82
 90.07     607.00
 90.17     591.00
 90.27     543.00
 90.37     525.00
 90.47     536.00
 90.57     579.00
 90.67     479.00
 90.77     552.87
 90.87     509.00
 90.97     584.00
 91.07     481.00
 91.17     541.88
 91.27     547.00
 91.37     517.00
 91.47     544.00
 91.57     536.00
 91.67     509.00
 91.77     510.00
 91.87     562.00
 91.97     542.00
 92.07     553.00
 92.17     589.00
 92.27     567.00
 92.37     605.00
 92.47     599.99
 92.57     575.00
 92.67     644.08
 92.77     717.65
 92.87     719.96
 92.97     707.00
 93.07     757.14
 93.17     832.00
 93.27     783.00
 93.37     807.04
 93.47     804.36
 93.57     836.33
 93.67     819.21
 93.77     808.00
 93.87     773.80
 93.97     857.00
 94.07     889.15
 94.17     836.07
 94.27     845.00
 94.37     901.98
 94.47     860.00
 94.57     907.00
 94.67     890.25
 94.77     893.00
 94.87     909.89
 94.97     907.00
 95.07     823.92
 95.17     879.00
 95.27     760.17
 95.37     817.00
 95.47     777.00
 95.57     762.63
 95.67     760.33
 95.77     702.00
 95.87     705.00
 95.97     664.82
 96.07     679.00
 96.17     680.00
 96.27     731.87
 96.37     803.00
 96.47     752.59
 96.57     801.00
 96.67     884.00
 96.77     925.35
 96.87    1032.00
 96.97    1102.26
 97.07    1213.00
 97.17    1248.00
 97.27    1359.00
 97.37    1347.78
 97.47    1411.75
 97.57    1447.00
 97.67    1480.00
 97.77    1326.80
 97.87    1284.00
 97.97    1302.81
 98.07    1234.00
 98.17    1144.00
 98.27    1064.00
 98.37    1013.21
 98.47     981.00
 98.57     889.68
 98.67     928.00
 98.77     808.00
 98.87     786.00
 98.97     769.00
 99.07     814.00
 99.17     893.00
 99.27     889.00
 99.37     974.99
 99.47    1007.00
 99.57    1119.00
 99.67    1218.00
 99.77    1257.00
 99.87    1368.00
 99.97    1435.46
100.07    1622.00
100.17    1770.50
100.27    1975.00
100.37    1852.88
100.47    2012.00
100.57    2088.00
100.67    2080.00
100.77    2128.00
100.87    2059.00
100.97    2120.88
101.07    2092.00
101.17    1956.00
101.27    1867.69
101.37    1733.00
101.47    1550.00
101.57    1490.00
101.67    1403.51
101.77    1327.24
101.87    1246.31
101.97    1192.57
102.07    1141.00
102.17    1183.40
102.27    1124.00
102.37    1163.15
102.47    1130.00
102.57    1047.00
102.67    1006.00
102.77    1030.00
102.87     951.60
102.97     924.00
103.07     912.01
103.17     929.17
103.27     800.51
103.37     781.00
103.47     767.00
103.57     740.00
103.67     712.00
103.77     666.00
103.87     612.46
103.97     628.00
104.07     590.00
104.17     575.63
104.27     591.58
104.37     564.76
104.47     564.21
104.57     586.89
104.67     569.47
104.77     541.00
104.87     511.00
104.97     542.00
105.07     555.00
105.17     526.00
105.27     545.43
105.37     546.00
105.47     576.85
105.57     589.00
105.67     556.00
105.77     541.21
105.87     566.00
105.97     569.00
106.07     585.62
106.17     576.00
106.27     570.00
106.37     613.00
106.47     627.00
106.57     672.74
106.67     635.00
106.77     599.00
106.87     622.23
106.97     629.84
107.07     736.06
107.17     666.48
107.27     667.00
107.37     668.00
107.47     663.52
107.57     673.70
107.67     626.00
107.77     661.00
107.87     714.00
107.97     683.00
108.07     619.00
108.17     671.37
108.27     655.00
108.37     696.00
108.47     668.00
108.57     648.91
108.67     694.00
108.77     701.00
108.87     733.35
108.97     674.00
109.07     687.00
109.17     672.13
109.27     639.00
109.37     631.00
109.47     635.00
109.57     642.00
109.67     623.00
109.77     597.00
109.87     589.00
109.97     569.00
110.07     630.00
110.17     602.02
110.27     513.00
110.37     575.00
110.47     563.00
110.57     565.00
110.67     544.31
110.77     515.93
110.87     513.12
110.97     552.00
111.07     575.92
111.17     550.07
111.27     544.00
111.37     544.60
111.47     543.00
111.57     526.88
111.67     568.00
111.77     552.34
111.87     527.00
111.97     551.00
112.07     551.00
112.17     593.00
112.27     551.00
112.37     614.00
112.47     605.08
112.57     570.32
112.67     622.67
112.77     635.00
112.87     669.94
112.97     690.00
113.07     667.00
113.17     748.00
113.27     718.00
113.37     774.15
113.47     778.00
113.57     834.00
113.67     828.00
113.77     898.00
113.87     964.00
113.97    1010.77
114.07    1013.00
114.17    1087.00
114.27    1151.15
114.37    1271.00
114.47    1415.96
114.57    1526.22
114.67    1542.00
114.77    1702.55
114.87    1922.35
114.97    2132.08
115.07    2235.73
115.17    2625.56
115.27    2919.00
115.37    3080.00
115.47    3293.00
115.57    3815.00
115.67    4083.00
115.77    4418.00
115.87    4770.00
115.97    5290.18
116.07    5721.51
116.17    5907.99
116.27    6302.00
116.37    6702.96
116.47    6811.23
116.57    6971.55
116.67    7039.00
116.77    6930.00
116.87    6840.00
116.97    6821.00
117.07    6368.00
117.17    6274.39
117.27    5686.00
117.37    5486.00
117.47    4947.00
117.57    4541.00
117.67    4305.00
117.77    4024.00
117.87    3510.77
117.97    3310.00
118.07    2944.00
118.17    2544.74
118.27    2227.00
118.37    1963.64
118.47    1731.00
118.57    1571.00
118.67    1312.00
118.77    1235.00
118.87    1101.00
118.97    1014.00
119.07     959.00
119.17     831.40
119.27     854.00
119.37     775.00
119.47     733.00
119.57     718.70
119.67     686.14
119.77     646.00
119.87     651.00
119.97     618.00
120.07     608.00
120.17     588.09
120.27     583.00
120.37     568.00
120.47     586.54
120.57     578.00
120.67     576.27
120.77     577.00
120.87     556.00
120.97     577.00
121.07     596.00
121.17     535.00
121.27     569.00
121.37     538.34
121.47     564.00
121.57     591.62
121.67     591.00
121.77     601.00
121.87     588.41
121.97     566.00
122.07     639.09
122.17     630.00
122.27     633.00
122.37     635.00
122.47     648.74
122.57     624.00
122.67     699.00
122.77     651.00
122.87     681.73
122.97     667.05
123.07     645.00
123.17     615.62
123.27     635.00
123.37     697.40
123.47     675.43
123.57     662.00
123.67     667.55
123.77     655.00
123.87     657.80
123.97     628.66
124.07     575.16
124.17     645.72
124.27     595.48
124.37     600.00
124.47     568.65
124.57     626.00
124.67     586.00
124.77     555.86
124.87     593.00
124.97     578.97
