  9.97     609.00
 10.07     568.17
 10.17     605.00
 10.27     591.00
 10.37     573.00
 10.47     579.00
 10.57     593.00
 10.67     609.00
 10.77     560.00
 10.87     529.00
 10.97     575.00
 11.07     601.00
 11.17     570.00
 11.27     525.80
 11.37     572.00
 11.47     559.00
 11.57     626.84
 11.67     653.00
 11.77     594.53
 11.87     656.00
 11.97     622.95
 12.07     648.89
 12.17     684.89
 12.27     642.00
 12.37     658.04
 12.47     645.00
 12.57     583.00
 12.67     570.00
 12.77     558.03
 12.87     574.00
 12.97     589.26
 13.07     542.00
 13.17     587.00
 13.27     543.00
 13.37     589.79
 13.47     573.00
 13.57     553.00
 13.67     585.47
 13.77     541.29
 13.87     592.00
 13.97     588.00
 14.07     589.00
 14.17     545.00
 14.27     526.00
 14.37     562.00
 14.47     595.00
 14.57     582.53
 14.67     597.00
 14.77     604.00
 14.87     538.03
 14.97     564.00
 15.07     547.00
 15.17     542.48
 15.27     563.27
 15.37     563.67
 15.47     579.23
 15.57     554.22
 15.67     590.65
 15.77     544.00
 15.87     571.96
 15.97     606.75
 16.07     604.95
 16.17     607.00
 16.27     581.72
 16.37     542.55
 16.47     562.33
 16.57     558.36
 16.67     583.20
 16.77     514.00
 16.87     613.73
 16.97     560.00
 17.07     544.00
 17.17     527.11
 17.27     538.00
 17.37     610.54
 17.47     522.00
 17.57     568.00
 17.67     563.02
 17.77     536.00
 17.87     571.00
 17.97     623.00
 18.07     597.14
 18.17     557.00
 18.27     565.05
 18.37     523.17
 18.47     569.00
 18.57     558.66
 18.67     581.00
 18.77     610.66
 18.87     558.00
 18.97     525.70
 19.07     542.59
 19.17     556.00
 19.27     552.00
 19.37     575.73
 19.47     546.00
 19.57     506.00
 19.67     579.00
 19.77     566.00
 19.87     590.37
 19.97     602.01
 20.07     544.39
 20.17     582.00
 20.27     554.21
 20.37     601.03
 20.47     531.00
 20.57     582.00
 20.67     539.95
 20.77     523.00
 20.87     541.00
 20.97     556.00
 21.07     556.34
 21.17     527.00
 21.27     566.78
 21.37     559.66
 21.47     599.52
 21.57     543.00
 21.67     548.00
 21.77     532.22
 21.87     509.34
 21.97     528.15
 22.07     528.15
 22.17     548.00
 22.27     559.00
 22.37     534.00
 22.47     583.00
 22.57     536.20
 22.67     579.00
 22.77     526.00
 22.87     595.00
 22.97     576.00
 23.07     549.00
 23.17     553.00
 23.27     567.00
 23.37     570.62
 23.47     558.65
 23.57     606.00
 23.67     593.66
 23.77     538.00
 23.87     598.00
 23.97     547.00
 24.07     553.00
 24.17     567.00
 24.27     580.90
 24.37     584.00
 24.47     602.00
 24.57     593.53
 24.67     604.00
 24.77     650.70
 24.87     605.00
 24.97     634.01
 25.07     591.00
 25.17     595.00
 25.27     590.79
 25.37     565.00
 25.47     525.00
 25.57     554.06
 25.67     543.00
 25.77     566.00
 25.87     549.59
 25.97     517.00
 26.07     585.00
 26.17     551.11
 26.27     564.97
 26.37     544.00
 26.47     583.97
 26.57     545.00
 26.67     554.00
 26.77     543.00
 26.87     556.96
 26.97     618.00
 27.07     568.74
 27.17     566.00
 27.27     583.00
 27.37     546.00
 27.47     583.86
 27.57     557.00
 27.67     567.00
 27.77     618.00
 27.87     642.00
 27.97     655.00
 28.07     801.09
 28.17     857.12
 28.27    1007.00
 28.37     884.93
 28.47     747.09
 28.57     662.80
 28.67     703.00
 28.77     777.00
 28.87     811.00
 28.97     814.00
 29.07     767.91
 29.17     746.00
 29.27     635.00
 29.37     640.00
 29.47     586.00
 29.57     561.09
 29.67     548.99
 29.77     594.96
 29.87     591.00
 29.97     590.00
 30.07     598.36
 30.17     561.75
 30.27     578.00
 30.37     518.27
 30.47     528.00
 30.57     532.00
 30.67     585.00
 30.77     561.11
 30.87     574.76
 30.97     619.00
 31.07     608.00
 31.17     539.00
 31.27     601.00
 31.37     507.94
 31.47     521.00
 31.57     586.00
 31.67     563.33
 31.77     538.00
 31.87     534.00
 31.97     546.79
 32.07     550.00
 32.17     494.00
 32.27     513.94
 32.37     504.17
 32.47     539.00
 32.57     545.00
 32.67     507.00
 32.77     533.36
 32.87     578.00
 32.97     555.00
 33.07     549.02
 33.17     538.00
 33.27     515.11
 33.37     553.00
 33.47     592.99
 33.57     590.00
 33.67     679.00
 33.77     780.14
 33.87     889.00
 33.97     985.00
 34.07    1090.00
 34.17    1020.00
 34.27     886.00
 34.37     761.00
 34.47     691.90
 34.57     591.00
 34.67     569.00
 34.77     573.34
 34.87     510.28
 34.97     531.00
 35.07     522.00
 35.17     516.93
 35.27     511.60
 35.37     513.00
 35.47     520.15
 35.57     551.00
 35.67     483.46
 35.77     546.91
 35.87     489.00
 35.97     482.00
 36.07     503.31
 36.17     554.29
 36.27     505.00
 36.37     492.00
 36.47     491.70
 36.57     563.07
 36.67     491.00
 36.77     536.00
 36.87     511.37
 36.97     546.85
 37.07     511.00
 37.17     474.89
 37.27     553.96
 37.37     527.00
 37.47     526.00
 37.57     523.00
 37.67     526.00
 37.77     535.00
 37.87     522.00
 37.97     539.00
 38.07     496.10
 38.17     516.96
 38.27     523.00
 38.37     536.00
 38.47     537.48
 38.57     540.00
 38.67     509.00
 38.77     501.00
 38.87     484.00
 38.97     509.00
 39.07     488.00
 39.17     491.00
 39.27     501.00
 39.37     539.00
 39.47     502.00
 39.57     542.00
 39.67     552.73
 39.77     459.00
 39.87     489.00
 39.97     475.00
 40.07     503.00
 40.17     485.00
 40.27     489.00
 40.37     513.00
 40.47     489.00
 40.57     519.00
 40.67     534.88
 40.77     481.00
 40.87     525.00
 40.97     521.03
 41.07     482.90
 41.17     509.00
 41.27     499.00
 41.37     495.00
 41.47     535.00
 41.57     549.59
 41.67     509.00
 41.77     472.00
 41.87     522.00
 41.97     528.00
 42.07     524.67
 42.17     513.50
 42.27     499.43
 42.37     566.95
 42.47     583.00
 42.57     626.41
 42.67     628.00
 42.77     659.61
 42.87     591.00
 42.97     595.00
 43.07     509.00
 43.17     534.00
 43.27     529.50
 43.37     549.63
 43.47     518.00
 43.57     496.00
 43.67     511.00
 43.77     482.00
 43.87     511.29
 43.97     479.36
 44.07     512.00
 44.17     520.00
 44.27     521.00
 44.37     573.00
 44.47     525.00
 44.57     453.00
 44.67     508.00
 44.77     499.00
 44.87     487.00
 44.97     495.00
 45.07     524.48
 45.17     509.00
 45.27     521.00
 45.37     543.00
 45.47     480.93
 45.57     497.00
 45.67     510.00
 45.77     475.11
 45.87     516.00
 45.97     477.00
 46.07     499.00
 46.17     474.74
 46.27     510.39
 46.37     545.42
 46.47     498.00
 46.57     534.00
 46.67     495.00
 46.77     507.00
 46.87     500.00
 46.97     524.00
 47.07     533.00
 47.17     513.00
 47.27     528.00
 47.37     517.00
 47.47     534.00
 47.57     550.28
 47.67     553.66
 47.77     549.55
 47.87     610.11
 47.97     591.00
 48.07     533.13
 48.17     613.00
 48.27     549.00
 48.37     520.46
 48.47     519.81
 48.57     525.00
 48.67     545.00
 48.77     547.75
 48.87     525.00
 48.97     546.00
 49.07     581.00
 49.17     593.00
 49.27     618.00
 49.37     651.00
 49.47     719.96
 49.57     773.00
 49.67     931.00
 49.77    1116.00
 49.87    1437.00
 49.97    1766.21
 50.07    2197.00
 50.17    2565.01
 50.27    2488.00
 50.37    2262.00
 50.47    1922.00
 50.57    1488.98
 50.67    1044.00
 50.77     818.00
 50.87     713.00
 50.97     620.55
 51.07     600.00
 51.17     594.71
 51.27     598.60
 51.37     576.00
 51.47     593.00
 51.57     522.36
 51.67     567.69
 51.77     497.23
 51.87     578.37
 51.97     533.00
 52.07     552.00
 52.17     523.00
 52.27     542.73
 52.37     549.00
 52.47     538.00
 52.57     557.00
 52.67     604.00
 52.77     580.09
 52.87     602.26
 52.97     637.72
 53.07     821.01
 53.17     944.96
 53.27    1007.00
 53.37    1199.97
 53.47    1180.60
 53.57    1182.00
 53.67    1059.00
 53.77     986.00
 53.87     844.00
 53.97     735.00
 54.07     677.00
 54.17     579.00
 54.27     633.00
 54.37     592.57
 54.47     566.99
 54.57     543.00
 54.67     514.12
 54.77     561.00
 54.87     554.90
 54.97     532.85
 55.07     584.00
 55.17     549.00
 55.27     526.89
 55.37     577.55
 55.47     575.00
 55.57     554.00
 55.67     574.00
 55.77     581.00
 55.87     646.00
 55.97     595.74
 56.07     652.00
 56.17     733.00
 56.27     903.00
 56.37    1175.91
 56.47    1410.42
 56.57    1759.00
 56.67    2100.00
 56.77    2486.00
 56.87    2664.00
 56.97    2661.34
 57.07    2360.00
 57.17    2026.00
 57.27    1715.00
 57.37    1260.38
 57.47    1044.00
 57.57     949.00
 57.67     764.26
 57.77     750.00
 57.87     698.00
 57.97     703.00
 58.07     642.97
 58.17     699.00
 58.27     730.03
 58.37     837.00
 58.47     989.00
 58.57    1072.00
 58.67    1283.00
 58.77    1416.00
 58.87    1488.00
 58.97    1623.00
 59.07    1618.00
 59.17    1523.00
 59.27    1483.00
 59.37    1332.72
 59.47    1257.00
 59.57    1135.55
 59.67    1070.46
 59.77    1127.14
 59.87    1196.00
 59.97    1329.00
 60.07    1424.05
 60.17    1486.00
 60.27    1573.00
 60.37    1511.48
 60.47    1310.73
 60.57    1271.00
 60.67    1112.00
 60.77     880.00
 60.87     760.00
 60.97     722.39
 61.07     609.00
 61.17     635.00
 61.27     636.00
 61.37     621.52
 61.47     674.00
 61.57     731.00
 61.67     795.28
 61.77     996.00
 61.87    1036.00
 61.97    1250.00
 62.07    1334.00
 62.17    1367.30
 62.27    1397.00
 62.37    1324.00
 62.47    1203.00
 62.57    1072.77
 62.67     865.74
 62.77     750.20
 62.87     664.00
 62.97     641.92
 63.07     630.58
 63.17     590.00
 63.27     584.00
 63.37     576.00
 63.47     539.44
 63.57     617.00
 63.67     533.91
 63.77     590.00
 63.87     602.00
 63.97     586.06
 64.07     645.33
 64.17     790.00
 64.27     753.00
 64.37     864.43
 64.47     901.00
 64.57     959.00
 64.67    1041.00
 64.77     972.00
 64.87     928.00
 64.97     908.00
 65.07     847.00
 65.17     783.00
 65.27     757.00
 65.37     684.00
 65.47     642.00
 65.57     617.00
 65.67     572.00
 65.77     561.92
 65.87     600.00
 65.97     564.00
 66.07     530.00
 66.17     602.40
 66.27     514.00
 66.37     550.93
 66.47     548.00
 66.57     573.00
 66.67     554.00
 66.77     613.92
 66.87     546.00
 66.97     625.00
 67.07     617.59
 67.17     713.18
 67.27     753.00
 67.37     846.00
 67.47    1049.00
 67.57    1233.00
 67.67    1505.00
 67.77    1748.00
 67.87    2062.00
 67.97    2239.86
 68.07    2383.00
 68.17    2418.00
 68.27    2266.00
 68.37    2059.00
 68.47    1859.00
 68.57    1626.00
 68.67    1221.00
 68.77    1020.37
 68.87     872.00
 68.97     787.68
 69.07     634.35
 69.17     599.59
 69.27     563.82
 69.37     584.00
 69.47     625.00
 69.57     605.20
 69.67     570.32
 69.77     597.94
 69.87     575.00
 69.97     614.00
 70.07     546.00
 70.17     572.00
 70.27     516.43
 70.37     598.70
 70.47     535.00
 70.57     541.33
 70.67     569.00
 70.77     608.00
 70.87     566.00
 70.97     584.00
 71.07     673.38
 71.17     731.00
 71.27     780.00
 71.37     962.00
 71.47    1091.17
 71.57    1163.00
 71.67    1361.00
 71.77    1602.00
 71.87    1771.00
 71.97    1961.40
 72.07    1896.00
 72.17    1946.90
 72.27    1839.73
 72.37    1696.68
 72.47    1578.00
 72.57    1386.54
 72.67    1182.70
 72.77    1069.00
 72.87    1044.34
 72.97     856.00
 73.07     779.00
 73.17     787.63
 73.27     752.49
 73.37     757.02
 73.47     632.00
 73.57     590.00
 73.67     562.00
 73.77     606.00
 73.87     614.56
 73.97     591.18
 74.07     573.00
 74.17     616.00
 74.27     664.00
 74.37     592.00
 74.47     539.44
 74.57     616.00
 74.67     611.50
 74.77     634.00
 74.87     629.00
 74.97     602.00
 75.07     566.00
 75.17     576.00
 75.27     546.00
 75.37     596.00
 75.47     579.00
 75.57     591.05
 75.67     595.00
 75.77     632.00
 75.87     634.61
 75.97     639.00
 76.07     655.16
 76.17     645.00
 76.27     696.00
 76.37     719.00
 76.47     676.00
 76.57     719.00
 76.67     651.00
 76.77     681.49
 76.87     627.00
 76.97     604.00
 77.07     651.58
 77.17     597.00
 77.27     589.00
 77.37     535.00
 77.47     581.03
 77.57     579.00
 77.67     542.00
 77.77     536.00
 77.87     523.96
 77.97     541.00
 78.07     500.00
 78.17     535.00
 78.27     569.11
 78.37     510.00
 78.47     538.00
 78.57     543.00
 78.67     505.79
 78.77     529.09
 78.87     533.00
 78.97     484.07
 79.07     529.00
 79.17     553.00
 79.27     545.63
 79.37     500.00
 79.47     538.49
 79.57     543.71
 79.67     550.27
 79.77     528.00
 79.87     527.00
 79.97     574.00
 80.07     536.00
 80.17     594.50
 80.27     531.57
 80.37     593.86
 80.47     656.00
 80.57     622.00
 80.67     643.33
 80.77     620.70
 80.87     659.00
 80.97     717.74
 81.07     708.00
 81.17     721.00
 81.27     750.00
 81.37     749.00
 81.47     774.00
 81.57     756.00
 81.67     780.07
 81.77     759.00
 81.87     709.81
 81.97     705.00
 82.07     702.00
 82.17     654.82
 82.27     599.00
 82.37     586.00
 82.47     612.00
 82.57     621.00
 82.67     611.00
 82.77     575.00
 82.87     535.00
 82.97     546.00
 83.07     569.00
 83.17     534.29
 83.27     532.35
 83.37     522.00
 83.47     560.00
 83.57     566.00
 83.67     556.00
 83.77     535.00
 83.87     568.00
 83.97     565.31
 84.07     560.00
 84.17     540.00
 84.27     540.00
 84.37     560.00
 84.47     526.79
 84.57     510.00
 84.67     587.49
 84.77     517.00
 84.87     525.57
 84.97     505.14
 85.07     579.00
 85.17     563.17
 85.27     573.85
 85.37     504.00
 85.47     534.00
 85.57     531.00
 85.67     541.00
 85.77     482.43
 85.87     499.97
 85.97     466.00
 86.07     521.00
 86.17     549.48
 86.27     538.00
 86.37     547.41
 86.47     552.00
 86.57     583.27
 86.67     573.00
 86.77     552.60
 86.87     563.17
 86.97     595.15
 87.07     595.00
 87.17     631.00
 87.27     633.00
 87.37     676.00
 87.47     696.00
 87.57     651.00
 87.67     616.51
 87.77     661.78
 87.87     671.00
 87.97     638.57
 88.07     578.16
 88.17     590.23
 88.27     570.00
 88.37     587.00
 88.47     532.00
 88.57     569.00
 88.67     556.50
 88.77     529.09
 88.87     584.00
 88.97     597.00
 89.07     594.00
 89.17     621.85
 89.27     609.00
 89.37     607.00
 89.47     596.82
 89.57     646.93
 89.67     563.83
 89.77     597.00
 89.87     567.77
 89.97     564.00
 90.07     591.28
 90.17     540.00
 90.27     566.00
 90.37     519.00
 90.47     518.00
 90.57     531.00
 90.67     562.84
 90.77     499.92
 90.87     537.00
 90.97     500.56
 91.07     506.00
 91.17     547.00
 91.27     519.00
 91.37     497.00
 91.47     495.65
 91.57     534.00
 91.67     489.00
 91.77     548.00
 91.87     572.41
 91.97     537.98
 92.07     520.68
 92.17     551.15
 92.27     587.62
 92.37     636.29
 92.47     658.00
 92.57     586.00
 92.67     681.00
 92.77     674.00
 92.87     777.00
 92.97     734.06
 93.07     738.00
 93.17     841.00
 93.27     780.00
 93.37     828.00
 93.47     863.49
 93.57     851.00
 93.67     882.00
 93.77     833.00
 93.87     825.00
 93.97     868.00
 94.07     869.16
 94.17     821.00
 94.27     843.00
 94.37     817.00
 94.47     867.48
 94.57     894.00
 94.67     931.00
 94.77     948.00
 94.87     888.00
 94.97     879.41
 95.07     933.00
 95.17     825.40
 95.27     910.00
 95.37     811.00
 95.47     794.00
 95.57     860.00
 95.67     685.43
 95.77     757.00
 95.87     656.00
 95.97     717.00
 96.07     708.00
 96.17     669.00
 96.27     696.28
 96.37     790.14
 96.47     780.00
 96.57     867.00
 96.67     872.00
 96.77    1020.52
 96.87    1016.03
 96.97    1093.00
 97.07    1196.85
 97.17    1239.00
 97.27    1343.00
 97.37    1411.00
 97.47    1425.00
 97.57    1366.56
 97.67    1399.00
 97.77    1424.81
 97.87    1404.98
 97.97    1296.56
 98.07    1232.98
 98.17    1153.05
 98.27    1175.00
 98.37    1037.00
 98.47     990.00
 98.57     880.87
 98.67     851.00
 98.77     782.57
 98.87     822.79
 98.97     854.26
 99.07     720.00
 99.17     783.15
 99.27     832.00
 99.37     902.27
 99.47     944.00
 99.57    1079.52
 99.67    1191.18
 99.77    1296.00
 99.87    1419.15
 99.97    1494.00
100.07    1678.44
100.17    1744.37
100.27    1926.00
100.37    1872.33
100.47    2091.70
100.57    2053.00
100.67    2080.23
100.77    2094.00
100.87    2006.49
100.97    2093.27
101.07    1902.72
101.17    1929.00
101.27    1836.00
101.37    1742.00
101.47    1569.00
101.57    1505.00
101.67    1428.00
101.77    1412.00
101.87    1327.00
101.97    1248.00
102.07    1200.91
102.17    1077.00
102.27    1171.97
102.37    1095.00
102.47    1111.00
102.57    1027.81
102.67    1070.05
102.77     989.01
102.87    1007.79
102.97     931.15
103.07     923.68
103.17     894.88
103.27     825.00
103.37     796.00
103.47     749.10
103.57     703.00
103.67     664.13
103.77     686.14
103.87     664.00
103.97     615.00
104.07     592.00
104.17     593.00
104.27     529.00
104.37     554.31
104.47     534.00
104.57     623.00
104.67     540.92
104.77     577.00
104.87     528.00
104.97     537.98
105.07     546.56
105.17     544.00
105.27     562.00
105.37     554.23
105.47     539.00
105.57     555.00
105.67     594.00
105.77     526.00
105.87     554.00
105.97     589.00
106.07     576.00
106.17     564.17
106.27     554.54
106.37     584.00
106.47     637.06
106.57     657.00
106.67     677.30
106.77     618.00
106.87     634.43
106.97     659.34
107.07     680.00
107.17     678.00
107.27     691.00
107.37     706.00
107.47     669.00
107.57     696.00
107.67     724.67
107.77     672.00
107.87     685.00
107.97     673.00
108.07     747.24
108.17     693.00
108.27     662.00
108.37     631.00
108.47     739.00
108.57     686.00
108.67     726.26
108.77     721.00
108.87     658.26
108.97     712.00
109.07     718.00
109.17     726.79
109.27     690.55
109.37     682.00
109.47     623.40
109.57     641.00
109.67     603.00
109.77     657.65
109.87     616.00
109.97     541.31
110.07     635.00
110.17     538.00
110.27     595.83
110.37     539.29
110.47     588.00
110.57     569.09
110.67     589.26
110.77     548.00
110.87     535.00
110.97     538.51
111.07     579.97
111.17     562.00
111.27     548.00
111.37     552.97
111.47     534.00
111.57     540.00
111.67     505.00
111.77     565.00
111.87     526.00
111.97     591.00
112.07     598.08
112.17     566.00
112.27     585.00
112.37     612.00
112.47     598.00
112.57     625.00
112.67     611.00
112.77     625.00
112.87     628.68
112.97     710.00
113.07     721.15
113.17     756.00
113.27     734.00
113.37     745.00
113.47     844.46
113.57     845.00
113.67     836.90
113.77     931.00
113.87     975.00
113.97     969.75
114.07    1063.00
114.17    1129.00
114.27    1149.01
114.37    1290.00
114.47    1335.57
114.57    1423.00
114.67    1519.73
114.77    1786.96
114.87    1972.00
114.97    2126.00
115.07    2269.45
115.17    2530.00
115.27    2913.94
115.37    3164.64
115.47    3387.80
115.57    3881.48
115.67    4267.91
115.77    4598.61
115.87    4888.00
115.97    5155.00
116.07    5621.93
116.17    5995.00
116.27    6337.00
116.37    6628.78
116.47    6664.89
116.57    6892.00
116.67    7004.00
116.77    6997.19
116.87    6791.59
116.97    6659.76
117.07    6476.00
117.17    6191.00
117.27    5644.00
117.37    5334.00
117.47    4947.18
117.57    4736.25
117.67    4312.48
117.77    3792.23
117.87    3501.96
117.97    3272.00
118.07    2995.00
118.17    2525.00
118.27    2290.00
118.37    2005.00
118.47    1855.00
118.57    1607.64
118.67    1364.00
118.77    1291.68
118.87    1140.00
118.97     993.00
119.07     933.00
119.17     879.49
119.27     837.27
119.37     773.00
119.47     732.00
119.57     694.00
119.67     674.00
119.77     695.84
119.87     663.55
119.97     559.00
120.07     610.00
120.17     575.33
120.27     556.00
120.37     566.00
120.47     580.00
120.57     531.00
120.67     516.00
120.77     573.52
120.87     556.00
120.97     600.00
121.07     590.42
121.17     530.00
121.27     587.00
121.37     564.61
121.47     508.00
121.57     622.96
121.67     592.93
121.77     626.00
121.87     628.99
121.97     581.00
122.07     616.00
122.17     633.00
122.27     615.00
122.37     592.00
122.47     662.00
122.57     617.00
122.67     628.00
122.77     627.13
122.87     632.00
122.97     647.39
123.07     649.00
123.17     613.00
123.27     640.00
123.37     651.81
123.47     630.00
123.57     608.71
123.67     651.00
123.77     573.82
123.87     659.30
123.97     592.68
124.07     642.00
124.17     632.00
124.27     611.00
124.37     578.47
124.47     595.00
124.57     607.00
124.67     571.60
124.77     554.20
124.87     565.00
124.97     547.00
