  9.97     581.00
 10.07     619.00
 10.17     564.00
 10.27     566.00
 10.37     593.43
 10.47     585.00
 10.57     630.00
 10.67     534.52
 10.77     588.00
 10.87     597.00
 10.97     559.81
 11.07     567.00
 11.17     603.99
 11.27     597.00
 11.37     559.00
 11.47     630.00
 11.57     612.40
 11.67     637.00
 11.77     618.29
 11.87     661.00
 11.97     640.00
 12.07     674.00
 12.17     717.75
 12.27     650.00
 12.37     608.00
 12.47     661.77
 12.57     596.00
 12.67     572.00
 12.77     544.31
 12.87     574.09
 12.97     620.00
 13.07     548.00
 13.17     528.59
 13.27     607.91
 13.37     591.00
 13.47     563.00
 13.57     530.62
 13.67     581.00
 13.77     556.00
 13.87     564.00
 13.97     543.53
 14.07     579.74
 14.17     526.00
 14.27     561.00
 14.37     546.00
 14.47     567.56
 14.57     575.00
 14.67     558.00
 14.77     563.00
 14.87     583.00
 14.97     529.00
 15.07     565.72
 15.17     540.04
 15.27     576.00
 15.37     529.13
 15.47     567.00
 15.57     571.00
 15.67     533.18
 15.77     587.81
 15.87     561.00
 15.97     518.84
 16.07     583.00
 16.17     583.00
 16.27     595.25
 16.37     536.63
 16.47     564.00
 16.57     561.53
 16.67     556.00
 16.77     577.00
 16.87     568.99
 16.97     527.00
 17.07     553.00
 17.17     539.00
 17.27     597.00
 17.37     509.00
 17.47     579.00
 17.57     574.00
 17.67     545.99
 17.77     531.00
 17.87     558.00
 17.97     537.00
 18.07     604.16
 18.17     541.00
 18.27     586.79
 18.37     597.62
 18.47     576.00
 18.57     555.00
 18.67     537.00
 18.77     584.63
 18.87     585.31
 18.97     525.00
 19.07     541.81
 19.17     541.00
 19.27     562.39
 19.37     593.72
 19.47     596.81
 19.57     528.00
 19.67     563.00
 19.77     508.73
 19.87     510.00
 19.97     555.00
 20.07     515.29
 20.17     562.00
 20.27     583.00
 20.37     522.66
 20.47     554.00
 20.57     551.87
 20.67     552.89
 20.77     541.00
 20.87     520.00
 20.97     539.00
 21.07     595.70
 21.17     533.00
 21.27     557.00
 21.37     521.00
 21.47     543.00
 21.57     523.00
 21.67     552.00
 21.77     551.00
 21.87     566.00
 21.97     584.00
 22.07     539.00
 22.17     527.33
 22.27     521.08
 22.37     522.00
 22.47     512.89
 22.57     570.00
 22.67     564.00
 22.77     493.00
 22.87     569.00
 22.97     538.92
 23.07     576.00
 23.17     554.12
 23.27     513.32
 23.37     563.00
 23.47     527.00
 23.57     558.00
 23.67     586.08
 23.77     556.00
 23.87     549.00
 23.97     527.00
 24.07     565.00
 24.17     558.00
 24.27     558.90
 24.37     602.00
 24.47     574.00
 24.57     572.88
 24.67     648.00
 24.77     634.52
 24.87     627.00
 24.97     637.68
 25.07     594.00
 25.17     581.00
 25.27     597.00
 25.37     516.00
 25.47     552.00
 25.57     537.22
 25.67     566.00
 25.77     508.00
 25.87     510.36
 25.97     536.00
 26.07     579.24
 26.17     551.00
 26.27     558.00
 26.37     500.72
 26.47     553.11
 26.57     548.00
 26.67     555.09
 26.77     547.00
 26.87     517.00
 26.97     542.00
 27.07     555.00
 27.17     539.00
 27.27     582.45
 27.37     586.00
 27.47     552.00
 27.57     570.00
 27.67     574.00
 27.77     524.13
 27.87     587.41
 27.97     611.84
 28.07     746.24
 28.17     941.43
 28.27     895.00
 28.37     927.00
 28.47     813.00
 28.57     683.93
 28.67     729.00
 28.77     704.00
 28.87     744.00
 28.97     810.42
 29.07     779.00
 29.17     746.00
 29.27     626.00
 29.37     627.00
 29.47     584.70
 29.57     531.41
 29.67     617.00
 29.77     520.75
 29.87     571.00
 29.97     560.00
 30.07     575.98
 30.17     506.32
 30.27     573.36
 30.37     567.08
 30.47     558.00
 30.57     549.00
 30.67     590.00
 30.77     614.14
 30.87     597.00
 30.97     597.00
 31.07     605.33
 31.17     589.00
 31.27     543.00
 31.37     554.00
 31.47     561.00
 31.57     512.00
 31.67     529.00
 31.77     555.00
 31.87     568.73
 31.97     558.00
 32.07     576.00
 32.17     538.00
 32.27     605.00
 32.37     550.00
 32.47     535.64
 32.57     586.00
 32.67     528.00
 32.77     563.00
 32.87     534.00
 32.97     548.00
 33.07     552.00
 33.17     597.00
 33.27     523.00
 33.37     555.00
 33.47     561.00
 33.57     609.00
 33.67     646.00
 33.77     745.13
 33.87     832.87
 33.97     967.00
 34.07    1012.00
 34.17    1007.00
 34.27     845.00
 34.37     782.00
 34.47     617.00
 34.57     593.00
 34.67     559.00
 34.77     503.20
 34.87     570.65
 34.97     510.00
 35.07     522.00
 35.17     530.91
 35.27     523.00
 35.37     515.00
 35.47     507.10
 35.57     509.00
 35.67     562.30
 35.77     538.00
 35.87     534.44
 35.97     513.00
 36.07     533.00
 36.17     500.39
 36.27     479.87
 36.37     553.68
 36.47     478.00
 36.57     488.00
 36.67     552.83
 36.77     549.85
 36.87     480.82
 36.97     521.00
 37.07     541.07
 37.17     542.00
 37.27     514.00
 37.37     562.97
 37.47     522.00
 37.57     533.00
 37.67     541.60
 37.77     509.27
 37.87     560.00
 37.97     486.00
 38.07     536.00
 38.17     513.00
 38.27     494.09
 38.37     524.00
 38.47     545.91
 38.57     515.35
 38.67     477.24
 38.77     496.00
 38.87     529.19
 38.97     533.00
 39.07     500.00
 39.17     483.00
 39.27     490.00
 39.37     451.00
 39.47     544.35
 39.57     478.87
 39.67     507.00
 39.77     536.35
 39.87     539.00
 39.97     496.00
 40.07     519.00
 40.17     505.00
 40.27     546.00
 40.37     466.66
 40.47     508.38
 40.57     500.00
 40.67     481.00
 40.77     548.68
 40.87     508.39
 40.97     518.00
 41.07     499.00
 41.17     543.49
 41.27     504.95
 41.37     534.00
 41.47     527.30
 41.57     513.00
 41.67     486.00
 41.77     542.38
 41.87     496.00
 41.97     522.00
 42.07     566.00
 42.17     499.07
 42.27     514.70
 42.37     544.00
 42.47     596.93
 42.57     593.00
 42.67     577.00
 42.77     596.13
 42.87     558.24
 42.97     620.00
 43.07     532.49
 43.17     537.00
 43.27     502.00
 43.37     536.68
 43.47     485.00
 43.57     497.00
 43.67     515.00
 43.77     542.72
 43.87     469.32
 43.97     481.98
 44.07     467.00
 44.17     480.00
 44.27     492.60
 44.37     473.00
 44.47     493.95
 44.57     507.00
 44.67     470.00
 44.77     495.00
 44.87     556.00
 44.97     513.00
 45.07     539.00
 45.17     542.42
 45.27     547.47
 45.37     514.00
 45.47     511.00
 45.57     497.00
 45.67     462.34
 45.77     516.00
 45.87     482.79
 45.97     537.00
 46.07     522.37
 46.17     517.46
 46.27     561.00
 46.37     488.00
 46.47     473.00
 46.57     511.52
 46.67     515.84
 46.77     506.00
 46.87     471.81
 46.97     548.37
 47.07     543.00
 47.17     509.00
 47.27     513.17
 47.37     502.00
 47.47     568.00
 47.57     517.00
 47.67     578.48
 47.77     606.00
 47.87     586.00
 47.97     612.51
 48.07     583.00
 48.17     597.63
 48.27     506.33
 48.37     590.00
 48.47     553.02
 48.57     559.00
 48.67     519.00
 48.77     533.00
 48.87     545.00
 48.97     528.00
 49.07     577.00
 49.17     570.00
 49.27     577.00
 49.37     666.00
 49.47     727.00
 49.57     774.00
 49.67     892.00
 49.77    1109.00
 49.87    1451.00
 49.97    1877.00
 50.07    2303.00
 50.17    2392.93
 50.27    2466.00
 50.37    2297.00
 50.47    1824.00
 50.57    1386.55
 50.67    1093.37
 50.77     854.00
 50.87     708.00
 50.97     670.00
 51.07     602.43
 51.17     578.32
 51.27     643.00
 51.37     563.00
 51.47     562.87
 51.57     597.00
 51.67     590.00
 51.77     576.89
 51.87     578.37
 51.97     526.06
 52.07     611.00
 52.17     546.00
 52.27     509.76
 52.37     534.71
 52.47     569.00
 52.57     546.00
 52.67     553.00
 52.77     622.00
 52.87     597.00
 52.97     782.00
 53.07     817.32
 53.17     952.44
 53.27    1055.00
 53.37    1167.00
 53.47    1207.91
 53.57    1161.00
 53.67    1073.61
 53.77    1062.28
 53.87     860.00
 53.97     714.00
 54.07     646.55
 54.17     624.00
 54.27     615.03
 54.37     578.00
 54.47     561.00
 54.57     587.00
 54.67     580.31
 54.77     575.00
 54.87     524.01
 54.97     558.94
 55.07     540.00
 55.17     586.00
 55.27     563.00
 55.37     540.00
 55.47     551.10
 55.57     595.00
 55.67     545.00
 55.77     590.00
 55.87     614.00
 55.97     623.00
 56.07     707.19
 56.17     746.95
 56.27     877.57
 56.37    1021.00
 56.47    1433.00
 56.57    1759.42
 56.67    2176.00
 56.77    2519.33
 56.87    2717.75
 56.97    2587.53
 57.07    2378.24
 57.17    2030.00
 57.27    1653.00
 57.37    1286.00
 57.47    1017.41
 57.57     858.03
 57.67     787.00
 57.77     731.00
 57.87     733.00
 57.97     665.00
 58.07     699.00
 58.17     745.00
 58.27     820.85
 58.37     881.33
 58.47     970.00
 58.57    1019.00
 58.67    1238.00
 58.77    1404.88
 58.87    1455.00
 58.97    1547.00
 59.07    1595.20
 59.17    1563.00
 59.27    1477.00
 59.37    1357.00
 59.47    1312.00
 59.57    1125.43
 59.67    1080.00
 59.77    1172.00
 59.87    1155.68
 59.97    1337.00
 60.07    1436.50
 60.17    1478.77
 60.27    1562.00
 60.37    1533.00
 60.47    1462.00
 60.57    1245.00
 60.67    1077.00
 60.77     914.00
 60.87     750.00
 60.97     724.00
 61.07     681.00
 61.17     670.30
 61.27     589.58
 61.37     699.31
 61.47     680.00
 61.57     795.97
 61.67     837.00
 61.77     942.30
 61.87    1092.72
 61.97    1250.05
 62.07    1381.00
 62.17    1494.21
 62.27    1353.00
 62.37    1288.00
 62.47    1233.38
 62.57    1090.00
 62.67     871.50
 62.77     785.00
 62.87     747.00
 62.97     645.00
 63.07     577.00
 63.17     608.25
 63.27     605.05
 63.37     571.61
 63.47     560.41
 63.57     556.00
 63.67     551.85
 63.77     604.00
 63.87     628.31
 63.97     629.00
 64.07     729.00
 64.17     705.86
 64.27     824.00
 64.37     926.14
 64.47     979.00
 64.57    1000.70
 64.67    1031.00
 64.77     937.35
 64.87     984.00
 64.97     936.49
 65.07     901.17
 65.17     773.29
 65.27     717.00
 65.37     674.00
 65.47     630.00
 65.57     602.00
 65.67     572.52
 65.77     570.74
 65.87     529.00
 65.97     580.00
 66.07     561.62
 66.17     571.00
 66.27     532.00
 66.37     560.00
 66.47     586.00
 66.57     557.00
 66.67     541.08
 66.77     544.00
 66.87     636.00
 66.97     596.00
 67.07     686.30
 67.17     699.00
 67.27     741.23
 67.37     880.00
 67.47    1022.00
 67.57    1266.00
 67.67    1470.00
 67.77    1731.60
 67.87    2122.01
 67.97    2346.70
 68.07    2450.00
 68.17    2379.25
 68.27    2323.00
 68.37    2075.00
 68.47    1842.92
 68.57    1577.00
 68.67    1236.00
 68.77     992.00
 68.87     867.00
 68.97     769.00
 69.07     697.60
 69.17     640.99
 69.27     657.00
 69.37     594.00
 69.47     580.00
 69.57     578.55
 69.67     567.00
 69.77     599.00
 69.87     582.66
 69.97     585.00
 70.07     534.91
 70.17     555.00
 70.27     562.00
 70.37     585.27
 70.47     601.00
 70.57     555.00
 70.67     613.15
 70.77     581.86
 70.87     578.00
 70.97     621.00
 71.07     691.50
 71.17     669.00
 71.27     841.00
 71.37     908.00
 71.47    1101.00
 71.57    1321.95
 71.67    1392.00
 71.77    1615.00
 71.87    1719.00
 71.97    1954.76
 72.07    1949.62
 72.17    1875.60
 72.27    1755.00
 72.37    1670.00
 72.47    1515.51
 72.57    1363.00
 72.67    1208.00
 72.77    1066.00
 72.87     930.00
 72.97     888.00
 73.07     863.10
 73.17     720.00
 73.27     702.00
 73.37     714.94
 73.47     715.95
 73.57     616.00
 73.67     577.00
 73.77     594.00
 73.87     574.00
 73.97     583.00
 74.07     613.00
 74.17     572.45
 74.27     542.97
 74.37     627.00
 74.47     600.00
 74.57     697.00
 74.67     657.00
 74.77     604.02
 74.87     588.95
 74.97     590.00
 75.07     577.89
 75.17     545.00
 75.27     592.00
 75.37     573.00
 75.47     519.41
 75.57     569.00
 75.67     550.00
 75.77     597.00
 75.87     622.36
 75.97     577.28
 76.07     634.00
 76.17     607.61
 76.27     657.14
 76.37     737.66
 76.47     737.00
 76.57     756.00
 76.67     699.54
 76.77     725.01
 76.87     649.86
 76.97     609.00
 77.07     576.00
 77.17     612.04
 77.27     552.07
 77.37     566.00
 77.47     534.00
 77.57     513.00
 77.67     576.89
 77.77     502.54
 77.87     534.76
 77.97     530.00
 78.07     524.00
 78.17     555.61
 78.27     542.52
 78.37     491.94
 78.47     504.00
 78.57     568.99
 78.67     536.13
 78.77     512.00
 78.87     543.25
 78.97     558.75
 79.07     536.46
 79.17     548.00
 79.27     532.00
 79.37     557.00
 79.47     564.81
 79.57     561.77
 79.67     504.00
 79.77     506.00
 79.87     566.00
 79.97     523.00
 80.07     554.00
 80.17     491.00
 80.27     547.00
 80.37     574.00
 80.47     606.07
 80.57     625.29
 80.67     628.00
 80.77     650.00
 80.87     677.00
 80.97     712.87
 81.07     694.48
 81.17     732.00
 81.27     736.00
 81.37     774.00
 81.47     691.00
 81.57     801.00
 81.67     781.00
 81.77     711.00
 81.87     675.09
 81.97     734.00
 82.07     693.00
 82.17     664.92
 82.27     692.00
 82.37     599.00
 82.47     569.00
 82.57     583.00
 82.67     600.00
 82.77     576.32
 82.87     547.00
 82.97     541.00
 83.07     533.00
 83.17     532.00
 83.27     549.00
 83.37     580.00
 83.47     540.00
 83.57     552.28
 83.67     548.63
 83.77     552.00
 83.87     555.00
 83.97     568.00
 84.07     543.27
 84.17     578.00
 84.27     535.00
 84.37     607.23
 84.47     538.00
 84.57     525.00
 84.67     579.87
 84.77     541.39
 84.87     497.00
 84.97     493.00
 85.07     527.00
 85.17     524.00
 85.27     518.45
 85.37     532.02
 85.47     511.00
 85.57     483.29
 85.67     502.00
 85.77     554.00
 85.87     535.00
 85.97     503.10
 86.07     534.00
 86.17     488.31
 86.27     576.00
 86.37     512.00
 86.47     565.00
 86.57     576.00
 86.67     545.00
 86.77     565.00
 86.87     620.00
 86.97     550.89
 87.07     590.00
 87.17     637.00
 87.27     651.23
 87.37     665.00
 87.47     586.22
 87.57     668.00
 87.67     672.00
 87.77     578.36
 87.87     665.00
 87.97     649.00
 88.07     602.55
 88.17     613.00
 88.27     546.41
 88.37     590.99
 88.47     603.00
 88.57     581.00
 88.67     592.00
 88.77     582.27
 88.87     590.01
 88.97     561.39
 89.07     609.00
 89.17     601.00
 89.27     628.00
 89.37     587.00
 89.47     566.00
 89.57     588.00
 89.67     580.00
 89.77     583.00
 89.87     629.00
 89.97     575.00
 90.07     595.00
 90.17     568.00
 90.27     506.23
 90.37     559.49
 90.47     529.00
 90.57     506.00
 90.67     509.00
 90.77     540.00
 90.87     526.00
 90.97     500.00
 91.07     538.00
 91.17     527.00
 91.27     524.00
 91.37     531.00
 91.47     519.00
 91.57     554.00
 91.67     562.00
 91.77     533.00
 91.87     543.00
 91.97     580.91
 92.07     585.00
 92.17     570.00
 92.27     593.00
 92.37     625.83
 92.47     608.00
 92.57     640.63
 92.67     609.00
 92.77     698.88
 92.87     761.00
 92.97     712.00
 93.07     815.00
 93.17     754.81
 93.27     810.02
 93.37     753.46
 93.47     832.00
 93.57     794.00
 93.67     785.12
 93.77     917.00
 93.87     861.00
 93.97     797.92
 94.07     852.00
 94.17     846.00
 94.27     890.43
 94.37     852.00
 94.47     953.00
 94.57     880.00
 94.67     912.00
 94.77     849.99
 94.87     882.95
 94.97     879.00
 95.07     835.00
 95.17     932.00
 95.27     854.00
 95.37     751.32
 95.47     842.00
 95.57     755.00
 95.67     663.62
 95.77     690.00
 95.87     673.00
 95.97     683.00
 96.07     713.98
 96.17     675.00
 96.27     755.00
 96.37     782.00
 96.47     788.77
 96.57     836.00
 96.67     901.00
 96.77     923.00
 96.87    1075.00
 96.97    1083.00
 97.07    1207.00
 97.17    1233.00
 97.27    1437.00
 97.37    1473.72
 97.47    1425.58
 97.57    1445.00
 97.67    1466.00
 97.77    1349.31
 97.87    1301.00
 97.97    1350.00
 98.07    1238.00
 98.17    1199.00
 98.27    1055.00
 98.37    1073.00
 98.47     985.27
 98.57     915.00
 98.67     853.00
 98.77     799.00
 98.87     758.74
 98.97     786.00
 99.07     831.00
 99.17     845.00
 99.27     900.00
 99.37     918.00
 99.47     993.00
 99.57    1077.00
 99.67    1162.00
 99.77    1313.00
 99.87    1372.42
 99.97    1547.12
100.07    1641.00
100.17    1726.00
100.27    1866.00
100.37    2015.00
100.47    2094.00
100.57    2089.00
100.67    2055.00
100.77    2095.00
100.87    2043.16
100.97    2105.73
101.07    1951.00
101.17    1818.43
101.27    1857.87
101.37    1655.67
101.47    1583.00
101.57    1540.00
101.67    1409.00
101.77    1335.00
101.87    1251.41
101.97    1276.00
102.07    1242.00
102.17    1181.09
102.27    1160.00
102.37    1126.00
102.47    1122.87
102.57    1102.00
102.67    1067.00
102.77    1029.00
102.87     996.49
102.97     921.00
103.07     935.18
103.17     921.12
103.27     882.76
103.37     787.00
103.47     751.31
103.57     725.00
103.67     732.00
103.77     680.00
103.87     680.75
103.97     604.92
104.07     624.00
104.17     587.00
104.27     545.36
104.37     576.00
104.47     564.19
104.57     577.02
104.67     505.76
104.77     539.00
104.87     544.00
104.97     549.14
105.07     520.00
105.17     562.12
105.27     558.00
105.37     541.44
105.47     521.11
105.57     560.00
105.67     530.63
105.77     568.61
105.87     583.68
105.97     566.10
106.07     555.00
106.17     595.00
106.27     592.00
106.37     585.00
106.47     581.00
106.57     577.00
106.67     663.39
106.77     612.00
106.87     645.55
106.97     724.96
107.07     711.17
107.17     681.56
107.27     671.00
107.37     668.23
107.47     702.93
107.57     688.00
107.67     661.06
107.77     657.60
107.87     713.44
107.97     669.00
108.07     674.00
108.17     748.12
108.27     699.00
108.37     642.00
108.47     736.63
108.57     703.94
108.67     660.00
108.77     768.00
108.87     717.44
108.97     721.01
109.07     645.00
109.17     649.00
109.27     703.92
109.37     624.00
109.47     672.57
109.57     627.22
109.67     656.28
109.77     612.00
109.87     581.76
109.97     615.00
110.07     583.29
110.17     592.06
110.27     584.00
110.37     604.00
110.47     594.33
110.57     561.70
110.67     512.15
110.77     575.00
110.87     512.80
110.97     536.00
111.07     552.07
111.17     500.00
111.27     526.08
111.37     513.12
111.47     567.00
111.57     517.85
111.67     548.00
111.77     584.57
111.87     569.00
111.97     554.00
112.07     611.64
112.17     558.00
112.27     595.00
112.37     602.00
112.47     598.00
112.57     581.00
112.67     585.00
112.77     658.00
112.87     702.03
112.97     649.00
113.07     675.00
113.17     674.84
113.27     697.00
113.37     791.86
113.47     794.00
113.57     815.00
113.67     875.00
113.77     936.82
113.87     941.00
113.97     979.56
114.07     984.81
114.17    1083.00
114.27    1072.00
114.37    1188.00
114.47    1270.84
114.57    1393.00
114.67    1584.63
114.77    1640.14
114.87    1893.00
114.97    2132.00
115.07    2305.00
115.17    2540.00
115.27    2835.00
115.37    3124.00
115.47    3415.00
115.57    3705.00
115.67    4108.00
115.77    4441.00
115.87    4826.16
115.97    5433.76
116.07    5764.45
116.17    5955.81
116.27    6284.30
116.37    6480.00
116.47    6606.21
116.57    6996.03
116.67    6930.00
116.77    6997.00
116.87    6878.00
116.97    6626.00
117.07    6456.00
117.17    6174.00
117.27    5592.00
117.37    5374.80
117.47    4924.00
117.57    4665.71
117.67    4364.00
117.77    3950.00
117.87    3557.40
117.97    3224.00
118.07    2864.09
118.17    2483.87
118.27    2193.06
118.37    1978.73
118.47    1727.00
118.57    1552.53
118.67    1367.95
118.77    1209.00
118.87    1179.00
118.97    1048.33
119.07     926.71
119.17     936.00
119.27     822.00
119.37     786.99
119.47     744.00
119.57     693.00
119.67     634.89
119.77     649.74
119.87     671.20
119.97     665.36
120.07     584.00
120.17     576.97
120.27     558.00
120.37     571.00
120.47     570.00
120.57     591.06
120.67     577.00
120.77     523.22
120.87     571.00
120.97     552.00
121.07     581.00
121.17     612.00
121.27     518.00
121.37     590.34
121.47     621.14
121.57     576.00
121.67     591.00
121.77     562.35
121.87     565.03
121.97     612.00
122.07     634.00
122.17     597.00
122.27     620.68
122.37     621.43
122.47     663.00
122.57     700.00
122.67     640.00
122.77     639.00
122.87     681.00
122.97     633.69
123.07     628.00
123.17     650.00
123.27     645.00
123.37     580.00
123.47     673.00
123.57     639.00
123.67     657.22
123.77     628.00
123.87     641.00
123.97     569.54
124.07     628.00
124.17     594.00
124.27     581.08
124.37     546.00
124.47     588.00
124.57     543.61
124.67     567.96
124.77     582.00
124.87     553.00
124.97     557.00
