  9.97     615.38
 10.07     532.58
 10.17     563.20
 10.27     621.00
 10.37     612.00
 10.47     564.10
 10.57     636.00
 10.67     580.00
 10.77     555.55
 10.87     582.00
 10.97     604.00
 11.07     623.00
 11.17     575.65
 11.27     617.00
 11.37     586.00
 11.47     588.00
 11.57     551.66
 11.67     619.00
 11.77     549.55
 11.87     613.21
 11.97     647.00
 12.07     675.00
 12.17     653.00
 12.27     663.00
 12.37     631.00
 12.47     636.00
 12.57     637.00
 12.67     577.00
 12.77     552.00
 12.87     617.00
 12.97     532.00
 13.07     560.00
 13.17     553.00
 13.27     571.49
 13.37     591.74
 13.47     615.04
 13.57     555.00
 13.67     560.00
 13.77     543.00
 13.87     524.79
 13.97     520.00
 14.07     538.51
 14.17     568.30
 14.27     568.00
 14.37     573.86
 14.47     519.00
 14.57     549.00
 14.67     537.00
 14.77     526.00
 14.87     522.60
 14.97     520.77
 15.07     540.00
 15.17     570.00
 15.27     596.74
 15.37     575.00
 15.47     567.51
 15.57     558.09
 15.67     534.00
 15.77     562.00
 15.87     567.31
 15.97     497.00
 16.07     560.00
 16.17     556.00
 16.27     566.95
 16.37     575.00
 16.47     594.63
 16.57     551.00
 16.67     608.42
 16.77     556.00
 16.87     559.09
 16.97     532.77
 17.07     515.00
 17.17     522.00
 17.27     646.00
 17.37     574.00
 17.47     605.72
 17.57     582.94
 17.67     521.83
 17.77     527.00
 17.87     584.00
 17.97     536.00
 18.07     576.00
 18.17     586.00
 18.27     574.00
 18.37     542.00
 18.47     541.00
 18.57     557.00
 18.67     561.00
 18.77     556.99
 18.87     559.00
 18.97     537.00
 19.07     596.00
 19.17     535.00
 19.27     517.00
 19.37     563.00
 19.47     558.59
 19.57     571.00
 19.67     548.00
 19.77     528.00
 19.87     570.00
 19.97     570.00
 20.07     577.00
 20.17     541.00
 20.27     503.00
 20.37     535.35
 20.47     565.00
 20.57     554.63
 20.67     555.00
 20.77     539.00
 20.87     587.00
 20.97     573.00
 21.07     506.72
 21.17     562.00
 21.27     550.00
 21.37     545.57
 21.47     580.46
 21.57     551.00
 21.67     532.00
 21.77     539.00
 21.87     574.24
 21.97     529.00
 22.07     574.00
 22.17     572.00
 22.27     569.79
 22.37     518.17
 22.47     511.24
 22.57     575.64
 22.67     543.00
 22.77     562.00
 22.87     560.36
 22.97     529.00
 23.07     552.00
 23.17     518.00
 23.27     567.01
 23.37     527.00
 23.47     543.38
 23.57     563.00
 23.67     561.00
 23.77     589.00
 23.87     559.77
 23.97     548.53
 24.07     541.00
 24.17     538.94
 24.27     595.00
 24.37     615.00
 24.47     566.00
 24.57     598.78
 24.67     581.00
 24.77     627.00
 24.87     598.00
 24.97     578.02
 25.07     599.38
 25.17     519.23
 25.27     510.00
 25.37     547.00
 25.47     504.38
 25.57     545.00
 25.67     581.95
 25.77     560.00
 25.87     524.00
 25.97     506.65
 26.07     579.00
 26.17     509.81
 26.27     529.00
 26.37     583.47
 26.47     548.76
 26.57     540.00
 26.67     518.61
 26.77     566.00
 26.87     513.00
 26.97     540.57
 27.07     561.00
 27.17     549.00
 27.27     514.00
 27.37     560.03
 27.47     511.37
 27.57     503.36
 27.67     618.00
 27.77     596.00
 27.87     627.00
 27.97     672.00
 28.07     776.00
 28.17     902.37
 28.27     946.30
 28.37     891.00
 28.47     763.24
 28.57     740.03
 28.67     662.36
 28.77     735.00
 28.87     827.00
 28.97     804.00
 29.07     782.00
 29.17     685.00
 29.27     657.37
 29.37     596.00
 29.47     546.21
 29.57     589.10
 29.67     586.00
 29.77     530.72
 29.87     586.00
 29.97     522.99
 30.07     551.00
 30.17     513.62
 30.27     549.00
 30.37     569.00
 30.47     562.01
 30.57     555.00
 30.67     526.02
 30.77     588.00
 30.87     572.00
 30.97     596.00
 31.07     615.00
 31.17     536.00
 31.27     542.00
 31.37     564.49
 31.47     554.63
 31.57     504.00
 31.67     527.00
 31.77     555.00
 31.87     557.03
 31.97     508.00
 32.07     517.00
 32.17     523.00
 32.27     537.00
 32.37     493.88
 32.47     568.00
 32.57     538.00
 32.67     536.00
 32.77     524.69
 32.87     555.00
 32.97     536.00
 33.07     524.29
 33.17     523.00
 33.27     565.00
 33.37     523.74
 33.47     553.24
 33.57     599.78
 33.67     686.01
 33.77     822.00
 33.87     889.00
 33.97    1017.00
 34.07    1009.10
 34.17    1004.00
 34.27     927.00
 34.37     738.00
 34.47     660.00
 34.57     627.00
 34.67     532.89
 34.77     498.75
 34.87     573.36
 34.97     515.89
 35.07     513.00
 35.17     538.00
 35.27     534.00
 35.37     512.00
 35.47     490.45
 35.57     495.81
 35.67     531.00
 35.77     524.81
 35.87     482.67
 35.97     547.43
 36.07     496.00
 36.17     498.00
 36.27     494.00
 36.37     478.00
 36.47     472.00
 36.57     488.88
 36.67     525.06
 36.77     507.00
 36.87     528.00
 36.97     504.09
 37.07     507.13
 37.17     487.00
 37.27     509.00
 37.37     534.00
 37.47     527.11
 37.57     560.41
 37.67     550.63
 37.77     529.00
 37.87     550.07
 37.97     532.00
 38.07     526.00
 38.17     518.85
 38.27     510.00
 38.37     519.37
 38.47     532.00
 38.57     478.76
 38.67     498.00
 38.77     545.78
 38.87     494.00
 38.97     465.00
 39.07     522.00
 39.17     474.00
 39.27     502.00
 39.37     514.00
 39.47     532.00
 39.57     522.82
 39.67     500.61
 39.77     491.00
 39.87     485.00
 39.97     479.00
 40.07     495.00
 40.17     516.00
 40.27     501.53
 40.37     488.00
 40.47     498.00
 40.57     503.00
 40.67     495.00
 40.77     481.00
 40.87     475.00
 40.97     498.71
 41.07     477.07
 41.17     503.00
 41.27     550.00
 41.37     481.53
 41.47     498.30
 41.57     518.00
 41.67     505.00
 41.77     522.83
 41.87     489.00
 41.97     518.00
 42.07     478.00
 42.17     482.00
 42.27     532.00
 42.37     574.00
 42.47     606.01
 42.57     653.48
 42.67     595.00
 42.77     631.25
 42.87     601.06
 42.97     508.00
 43.07     535.60
 43.17     490.00
 43.27     517.65
 43.37     496.00
 43.47     544.00
 43.57     511.00
 43.67     527.90
 43.77     493.00
 43.87     486.00
 43.97     516.88
 44.07     539.02
 44.17     514.00
 44.27     508.00
 44.37     512.00
 44.47     516.00
 44.57     500.00
 44.67     524.00
 44.77     481.00
 44.87     536.00
 44.97     529.00
 45.07     517.00
 45.17     482.15
 45.27     509.54
 45.37     497.00
 45.47     503.56
 45.57     486.00
 45.67     508.00
 45.77     527.00
 45.87     505.00
 45.97     521.65
 46.07     491.00
 46.17     503.00
 46.27     465.00
 46.37     481.00
 46.47     504.00
 46.57     524.91
 46.67     526.00
 46.77     494.96
 46.87     493.49
 46.97     496.00
 47.07     493.00
 47.17     549.57
 47.27     536.77
 47.37     529.00
 47.47     546.28
 47.57     548.00
 47.67     593.12
 47.77     562.00
 47.87     578.00
 47.97     579.00
 48.07     531.04
 48.17     581.93
 48.27     568.00
 48.37     536.00
 48.47     468.00
 48.57     533.00
 48.67     534.14
 48.77     574.14
 48.87     568.80
 48.97     543.00
 49.07     553.29
 49.17     586.00
 49.27     630.52
 49.37     673.32
 49.47     706.00
 49.57     831.39
 49.67     877.95
 49.77    1129.00
 49.87    1507.12
 49.97    1900.00
 50.07    2193.76
 50.17    2563.01
 50.27    2529.00
 50.37    2347.00
 50.47    1777.00
 50.57    1350.00
 50.67    1094.20
 50.77     786.00
 50.87     714.35
 50.97     664.00
 51.07     634.14
 51.17     622.00
 51.27     646.00
 51.37     559.71
 51.47     562.00
 51.57     571.00
 51.67     588.00
 51.77     550.38
 51.87     552.32
 51.97     540.00
 52.07     565.00
 52.17     541.99
 52.27     541.21
 52.37     540.32
 52.47     575.88
 52.57     572.77
 52.67     549.97
 52.77     554.44
 52.87     601.00
 52.97     714.00
 53.07     810.32
 53.17     845.81
 53.27    1072.00
 53.37    1157.67
 53.47    1147.00
 53.57    1171.00
 53.67    1173.15
 53.77    1006.63
 53.87     804.00
 53.97     761.74
 54.07     707.00
 54.17     632.00
 54.27     574.00
 54.37     545.44
 54.47     579.36
 54.57     561.00
 54.67     590.00
 54.77     529.40
 54.87     583.42
 54.97     545.00
 55.07     594.00
 55.17     544.00
 55.27     557.00
 55.37     549.00
 55.47     574.00
 55.57     548.52
 55.67     592.00
 55.77     570.00
 55.87     618.90
 55.97     596.00
 56.07     647.00
 56.17     765.00
 56.27     848.00
 56.37    1092.60
 56.47    1387.20
 56.57    1776.61
 56.67    2186.00
 56.77    2476.00
 56.87    2714.00
 56.97    2631.00
 57.07    2333.20
 57.17    2006.00
 57.27    1612.00
 57.37    1371.00
 57.47     970.02
 57.57     951.00
 57.67     716.57
 57.77     672.26
 57.87     668.63
 57.97     634.80
 58.07     688.00
 58.17     693.00
 58.27     775.79
 58.37     856.00
 58.47     871.00
 58.57    1093.00
 58.67    1216.00
 58.77    1438.00
 58.87    1591.00
 58.97    1531.05
 59.07    1557.94
 59.17    1563.00
 59.27    1481.00
 59.37    1337.00
 59.47    1287.51
 59.57    1147.00
 59.67    1092.04
 59.77    1140.29
 59.87    1210.63
 59.97    1360.00
 60.07    1387.00
 60.17    1508.00
 60.27    1596.00
 60.37    1552.98
 60.47    1520.00
 60.57    1353.00
 60.67    1091.09
 60.77     916.00
 60.87     787.00
 60.97     707.00
 61.07     676.00
 61.17     592.27
 61.27     610.00
 61.37     640.00
 61.47     644.19
 61.57     741.89
 61.67     806.00
 61.77     947.00
 61.87    1133.62
 61.97    1222.43
 62.07    1293.00
 62.17    1501.53
 62.27    1369.00
 62.37    1320.54
 62.47    1156.00
 62.57    1094.24
 62.67     898.00
 62.77     818.21
 62.87     612.00
 62.97     649.00
 63.07     611.00
 63.17     608.72
 63.27     535.31
 63.37     607.00
 63.47     558.19
 63.57     609.00
 63.67     573.00
 63.77     584.89
 63.87     589.44
 63.97     622.72
 64.07     701.30
 64.17     721.12
 64.27     885.00
 64.37     911.00
 64.47     970.29
 64.57     969.38
 64.67    1060.00
 64.77    1040.63
 64.87     993.00
 64.97     922.00
 65.07     902.00
 65.17     751.00
 65.27     744.00
 65.37     714.00
 65.47     680.65
 65.57     645.00
 65.67     639.00
 65.77     617.00
 65.87     529.00
 65.97     550.00
 66.07     522.00
 66.17     564.00
 66.27     558.00
 66.37     542.00
 66.47     623.00
 66.57     563.00
 66.67     532.00
 66.77     543.78
 66.87     595.00
 66.97     613.17
 67.07     672.00
 67.17     661.00
 67.27     766.27
 67.37     839.05
 67.47     974.00
 67.57    1257.00
 67.67    1558.56
 67.77    1862.87
 67.87    2018.00
 67.97    2347.00
 68.07    2430.81
 68.17    2503.06
 68.27    2321.00
 68.37    2124.00
 68.47    1771.00
 68.57    1522.21
 68.67    1300.00
 68.77    1056.00
 68.87     849.00
 68.97     783.00
 69.07     674.00
 69.17     670.00
 69.27     569.00
 69.37     622.00
 69.47     603.00
 69.57     602.50
 69.67     530.42
 69.77     574.00
 69.87     572.00
 69.97     589.00
 70.07     613.00
 70.17     536.99
 70.27     565.00
 70.37     597.00
 70.47     586.00
 70.57     606.22
 70.67     565.00
 70.77     593.56
 70.87     584.00
 70.97     602.00
 71.07     627.00
 71.17     746.00
 71.27     822.00
 71.37     946.00
 71.47    1041.00
 71.57    1210.00
 71.67    1409.04
 71.77    1572.65
 71.87    1740.00
 71.97    1880.00
 72.07    1936.00
 72.17    1852.72
 72.27    1715.69
 72.37    1636.00
 72.47    1501.00
 72.57    1335.66
 72.67    1226.00
 72.77    1088.00
 72.87     983.20
 72.97     924.00
 73.07     920.22
 73.17     781.00
 73.27     759.54
 73.37     634.00
 73.47     690.40
 73.57     618.00
 73.67     608.00
 73.77     592.00
 73.87     527.00
 73.97     563.00
 74.07     575.00
 74.17     561.37
 74.27     603.20
 74.37     543.35
 74.47     524.27
 74.57     606.33
 74.67     626.00
 74.77     612.00
 74.87     624.00
 74.97     596.08
 75.07     631.00
 75.17     620.00
 75.27     553.00
 75.37     553.00
 75.47     534.00
 75.57     571.26
 75.67     580.00
 75.77     603.00
 75.87     626.00
 75.97     646.56
 76.07     605.34
 76.17     669.06
 76.27     706.87
 76.37     671.00
 76.47     674.71
 76.57     692.00
 76.67     700.28
 76.77     675.66
 76.87     666.00
 76.97     654.76
 77.07     644.00
 77.17     608.00
 77.27     584.68
 77.37     585.32
 77.47     594.86
 77.57     504.85
 77.67     544.80
 77.77     562.42
 77.87     543.00
 77.97     532.52
 78.07     499.85
 78.17     510.00
 78.27     486.53
 78.37     524.00
 78.47     538.00
 78.57     552.96
 78.67     495.99
 78.77     562.00
 78.87     501.00
 78.97     570.40
 79.07     502.00
 79.17     534.00
 79.27     536.00
 79.37     546.00
 79.47     509.00
 79.57     560.00
 79.67     494.00
 79.77     560.00
 79.87     526.00
 79.97     542.84
 80.07     536.00
 80.17     526.00
 80.27     576.00
 80.37     575.00
 80.47     614.73
 80.57     636.00
 80.67     639.00
 80.77     631.00
 80.87     664.00
 80.97     700.00
 81.07     767.30
 81.17     697.99
 81.27     703.42
 81.37     769.00
 81.47     772.00
 81.57     727.00
 81.67     731.14
 81.77     762.10
 81.87     739.00
 81.97     729.69
 82.07     623.02
 82.17     650.00
 82.27     628.00
 82.37     578.75
 82.47     605.62
 82.57     582.50
 82.67     561.94
 82.77     586.00
 82.87     553.00
 82.97     555.69
 83.07     540.00
 83.17     533.52
 83.27     536.00
 83.37     552.00
 83.47     553.00
 83.57     526.00
 83.67     544.00
 83.77     559.22
 83.87     574.07
 83.97     549.00
 84.07     554.00
 84.17     610.00
 84.27     544.86
 84.37     569.00
 84.47     553.00
 84.57     565.00
 84.67     527.00
 84.77     541.60
 84.87     567.23
 84.97     537.55
 85.07     552.92
 85.17     574.32
 85.27     514.00
 85.37     518.44
 85.47     555.63
 85.57     506.95
 85.67     513.00
 85.77     492.00
 85.87     505.00
 85.97     486.58
 86.07     510.00
 86.17     501.00
 86.27     531.00
 86.37     520.00
 86.47     534.00
 86.57     544.28
 86.67     567.00
 86.77     560.00
 86.87     544.67
 86.97     599.00
 87.07     611.00
 87.17     598.09
 87.27     622.00
 87.37     685.00
 87.47     678.00
 87.57     610.00
 87.67     679.00
 87.77     662.00
 87.87     630.00
 87.97     584.00
 88.07     614.00
 88.17     545.08
 88.27     606.00
 88.37     631.00
 88.47     592.00
 88.57     591.00
 88.67     652.00
 88.77     576.00
 88.87     553.49
 88.97     596.39
 89.07     639.00
 89.17     594.00
 89.27     582.27
 89.37     600.00
 89.47     623.00
 89.57     582.69
 89.67     570.00
 89.77     536.00
 89.87     559.14
 89.97     602.00
 90.07     568.00
 90.17     602.13
 90.27     545.00
 90.37     521.00
 90.47     543.00
 90.57     509.00
 90.67     496.00
 90.77     519.00
 90.87     527.44
 90.97     516.00
 91.07     473.00
 91.17     561.00
 91.27     527.79
 91.37     530.00
 91.47     520.64
 91.57     527.00
 91.67     571.96
 91.77     534.00
 91.87     531.00
 91.97     515.52
 92.07     539.00
 92.17     570.00
 92.27     597.00
 92.37     619.00
 92.47     658.00
 92.57     692.06
 92.67     640.00
 92.77     638.67
 92.87     690.00
 92.97     703.50
 93.07     787.49
 93.17     797.00
 93.27     762.00
 93.37     813.00
 93.47     805.00
 93.57     831.00
 93.67     814.00
 93.77     894.00
 93.87     818.24
 93.97     836.78
 94.07     823.00
 94.17     840.98
 94.27     887.00
 94.37     874.00
 94.47     821.17
 94.57     926.16
 94.67     917.00
 94.77     909.00
 94.87     920.00
 94.97     843.75
 95.07     886.00
 95.17     838.48
 95.27     870.00
 95.37     830.80
 95.47     812.00
 95.57     762.00
 95.67     733.00
 95.77     737.30
 95.87     689.00
 95.97     657.00
 96.07     706.73
 96.17     716.58
 96.27     751.65
 96.37     796.38
 96.47     797.00
 96.57     819.00
 96.67     978.00
 96.77     924.00
 96.87    1094.00
 96.97    1121.00
 97.07    1178.00
 97.17    1342.25
 97.27    1375.00
 97.37    1381.00
 97.47    1370.00
 97.57    1473.00
 97.67    1372.30
 97.77    1411.00
 97.87    1356.00
 97.97    1374.00
 98.07    1221.21
 98.17    1174.00
 98.27    1022.83
 98.37    1067.00
 98.47     974.70
 98.57     842.00
 98.67     850.00
 98.77     801.00
 98.87     753.00
 98.97     789.00
 99.07     805.00
 99.17     809.00
 99.27     846.00
 99.37     892.00
 99.47    1016.80
 99.57    1056.00
 99.67    1224.56
 99.77    1263.00
 99.87    1393.45
 99.97    1535.00
100.07    1651.00
100.17    1705.34
100.27    1880.24
100.37    1865.00
100.47    2058.59
100.57    2132.00
100.67    2172.00
100.77    2054.00
100.87    2082.00
100.97    2056.00
101.07    1989.00
101.17    1935.00
101.27    1779.13
101.37    1791.67
101.47    1660.10
101.57    1580.81
101.67    1434.00
101.77    1394.00
101.87    1247.00
101.97    1226.00
102.07    1207.06
102.17    1220.52
102.27    1144.83
102.37    1125.00
102.47    1052.00
102.57    1069.00
102.67    1042.60
102.77    1089.00
102.87     996.23
102.97     930.00
103.07     973.00
103.17     958.00
103.27     847.00
103.37     795.71
103.47     802.00
103.57     746.00
103.67     648.38
103.77     668.00
103.87     660.00
103.97     598.00
104.07     589.37
104.17     567.27
104.27     579.00
104.37     579.00
104.47     548.00
104.57     574.00
104.67     516.51
104.77     537.00
104.87     552.00
104.97     576.00
105.07     537.00
105.17     540.62
105.27     568.00
105.37     538.00
105.47     526.00
105.57     575.82
105.67     557.00
105.77     546.73
105.87     535.06
105.97     590.00
106.07     580.00
106.17     609.00
106.27     628.00
106.37     597.00
106.47     588.00
106.57     585.29
106.67     673.66
106.77     638.30
106.87     629.00
106.97     663.00
107.07     665.00
107.17     669.00
107.27     696.00
107.37     682.12
107.47     704.00
107.57     727.02
107.67     731.38
107.77     664.00
107.87     649.00
107.97     686.11
108.07     655.30
108.17     690.00
108.27     696.00
108.37     679.00
108.47     684.00
108.57     742.75
108.67     663.58
108.77     696.42
108.87     718.00
108.97     679.00
109.07     679.41
109.17     663.00
109.27     673.00
109.37     585.00
109.47     723.00
109.57     597.00
109.67     618.00
109.77     568.97
109.87     608.92
109.97     627.00
110.07     611.93
110.17     582.00
110.27     531.07
110.37     569.00
110.47     582.62
110.57     586.25
110.67     517.34
110.77     582.59
110.87     566.00
110.97     545.00
111.07     513.70
111.17     508.55
111.27     567.00
111.37     556.00
111.47     545.00
111.57     574.00
111.67     528.83
111.77     547.40
111.87     550.00
111.97     566.00
112.07     554.00
112.17     569.00
112.27     572.00
112.37     541.55
112.47     588.69
112.57     640.00
112.67     647.05
112.77     621.00
112.87     655.00
112.97     712.00
113.07     730.92
113.17     683.41
113.27     708.00
113.37     765.00
113.47     819.00
113.57     821.00
113.67     891.00
113.77     889.45
113.87     950.00
113.97    1028.15
114.07    1063.00
114.17    1100.52
114.27    1140.37
114.37    1293.12
114.47    1375.76
114.57    1509.16
114.67    1578.30
114.77    1728.46
114.87    1915.00
114.97    2139.66
115.07    2287.24
115.17    2593.00
115.27    2848.00
115.37    3207.57
115.47    3448.00
115.57    3607.00
115.67    4058.00
115.77    4587.04
115.87    4704.00
115.97    5382.74
116.07    5677.76
116.17    5978.00
116.27    6437.67
116.37    6652.00
116.47    6775.00
116.57    7002.00
116.67    7084.00
116.77    6825.46
116.87    6751.10
116.97    6640.00
117.07    6452.00
117.17    6007.19
117.27    5718.00
117.37    5357.00
117.47    4874.00
117.57    4740.12
117.67    4324.00
117.77    3966.68
117.87    3444.25
117.97    3333.00
118.07    2876.00
118.17    2546.00
118.27    2226.00
118.37    1961.00
118.47    1738.00
118.57    1496.00
118.67    1447.00
118.77    1246.00
118.87    1058.00
118.97     983.00
119.07     914.00
119.17     841.29
119.27     874.00
119.37     829.00
119.47     722.00
119.57     686.68
119.67     651.00
119.77     626.00
119.87     692.48
119.97     599.00
120.07     574.47
120.17     587.22
120.27     590.00
120.37     588.00
120.47     543.00
120.57     587.00
120.67     580.80
120.77     559.08
120.87     586.00
120.97     566.00
121.07     594.00
121.17     566.00
121.27     551.00
121.37     610.08
121.47     593.69
121.57     581.00
121.67     600.31
121.77     601.00
121.87     598.00
121.97     615.18
122.07     608.00
122.17     651.00
122.27     596.00
122.37     616.00
122.47     620.00
122.57     639.88
122.67     636.00
122.77     645.00
122.87     635.94
122.97     645.00
123.07     622.00
123.17     683.00
123.27     673.74
123.37     687.00
123.47     665.00
123.57     617.00
123.67     616.00
123.77     648.00
123.87     624.00
123.97     679.00
124.07     634.00
124.17     634.46
124.27     606.35
124.37     613.00
124.47     595.00
124.57     600.00
124.67     621.00
124.77     630.90
124.87     543.00
124.97     574.00
