  9.97     668.10
 10.07     730.00
 10.17     685.00
 10.27     726.00
 10.37     771.00
 10.47     745.39
 10.57     702.00
 10.67     738.00
 10.77     677.55
 10.87     714.00
 10.97     685.00
 11.07     710.96
 11.17     702.26
 11.27     758.00
 11.37     729.00
 11.47     676.72
 11.57     738.00
 11.67     738.00
 11.77     723.69
 11.87     733.86
 11.97     835.00
 12.07     866.00
 12.17     816.00
 12.27     826.00
 12.37     854.45
 12.47     763.00
 12.57     776.76
 12.67     776.00
 12.77     735.00
 12.87     725.33
 12.97     698.00
 13.07     715.00
 13.17     630.00
 13.27     645.56
 13.37     734.82
 13.47     702.00
 13.57     696.00
 13.67     667.69
 13.77     719.00
 13.87     645.00
 13.97     666.00
 14.07     672.00
 14.17     701.00
 14.27     713.60
 14.37     710.81
 14.47     635.00
 14.57     654.00
 14.67     663.00
 14.77     646.00
 14.87     637.00
 14.97     670.00
 15.07     674.00
 15.17     665.96
 15.27     672.76
 15.37     656.26
 15.47     628.97
 15.57     659.00
 15.67     679.49
 15.77     664.01
 15.87     650.00
 15.97     661.00
 16.07     619.02
 16.17     672.00
 16.27     666.00
 16.37     673.00
 16.47     638.00
 16.57     630.00
 16.67     692.00
 16.77     703.68
 16.87     651.17
 16.97     662.00
 17.07     630.00
 17.17     707.66
 17.27     668.00
 17.37     682.58
 17.47     632.00
 17.57     653.00
 17.67     678.15
 17.77     669.78
 17.87     642.95
 17.97     642.00
 18.07     648.37
 18.17     659.00
 18.27     610.00
 18.37     641.93
 18.47     689.04
 18.57     609.44
 18.67     628.00
 18.77     671.00
 18.87     639.00
 18.97     677.27
 19.07     612.00
 19.17     648.58
 19.27     663.00
 19.37     617.00
 19.47     665.00
 19.57     610.00
 19.67     632.00
 19.77     600.00
 19.87     656.00
 19.97     658.74
 20.07     632.00
 20.17     655.42
 20.27     602.00
 20.37     638.00
 20.47     597.00
 20.57     619.33
 20.67     686.33
 20.77     618.00
 20.87     640.00
 20.97     599.21
 21.07     669.87
 21.17     624.00
 21.27     630.00
 21.37     632.00
 21.47     676.00
 21.57     640.00
 21.67     647.00
 21.77     667.00
 21.87     612.58
 21.97     667.85
 22.07     598.00
 22.17     677.68
 22.27     624.06
 22.37     612.00
 22.47     587.00
 22.57     624.00
 22.67     632.00
 22.77     617.00
 22.87     622.00
 22.97     658.96
 23.07     664.10
 23.17     657.00
 23.27     632.42
 23.37     659.83
 23.47     653.00
 23.57     624.89
 23.67     656.00
 23.77     638.00
 23.87     616.00
 23.97     601.07
 24.07     612.00
 24.17     655.00
 24.27     647.00
 24.37     632.60
 24.47     644.39
 24.57     625.46
 24.67     615.62
 24.77     686.50
 24.87     649.33
 24.97     713.13
 25.07     749.00
 25.17     713.10
 25.27     657.11
 25.37     626.33
 25.47     652.38
 25.57     662.23
 25.67     631.36
 25.77     693.00
 25.87     674.00
 25.97     668.00
 26.07     672.00
 26.17     621.00
 26.27     611.98
 26.37     655.00
 26.47     648.00
 26.57     707.48
 26.67     726.00
 26.77     664.00
 26.87     637.00
 26.97     674.64
 27.07     675.00
 27.17     724.41
 27.27     683.00
 27.37     710.50
 27.47     723.13
 27.57     846.03
 27.67     776.00
 27.77     929.00
 27.87    1047.00
 27.97    1334.94
 28.07    2026.00
 28.17    3192.00
 28.27    5303.00
 28.37    7598.00
 28.47    8544.00
 28.57    8076.00
 28.67    6176.00
 28.77    4446.47
 28.87    3605.95
 28.97    3887.00
 29.07    4435.00
 29.17    4913.00
 29.27    4465.00
 29.37    3485.97
 29.47    2409.00
 29.57    1625.00
 29.67    1252.00
 29.77    1052.00
 29.87     945.00
 29.97     863.00
 30.07     817.00
 30.17     813.00
 30.27     756.00
 30.37     692.00
 30.47     741.13
 30.57     709.65
 30.67     708.00
 30.77     669.29
 30.87     726.00
 30.97     797.00
 31.07     744.00
 31.17     830.00
 31.27     745.25
 31.37     788.00
 31.47     717.00
 31.57     649.68
 31.67     712.00
 31.77     659.00
 31.87     659.00
 31.97     660.03
 32.07     638.17
 32.17     665.00
 32.27     651.54
 32.37     713.00
 32.47     668.10
 32.57     645.00
 32.67     642.00
 32.77     583.71
 32.87     622.00
 32.97     654.00
 33.07     636.00
 33.17     638.00
 33.27     593.85
 33.37     597.00
 33.47     605.89
 33.57     642.00
 33.67     646.00
 33.77     728.00
 33.87     793.00
 33.97     845.00
 34.07     936.00
 34.17    1102.00
 34.27    1253.00
 34.37    1313.05
 34.47    1226.99
 34.57    1084.00
 34.67     947.00
 34.77     781.00
 34.87     751.76
 34.97     757.00
 35.07     713.00
 35.17     709.00
 35.27     751.00
 35.37     651.00
 35.47     615.32
 35.57     655.00
 35.67     621.27
 35.77     636.00
 35.87     641.00
 35.97     646.88
 36.07     634.00
 36.17     610.00
 36.27     618.00
 36.37     620.00
 36.47     576.00
 36.57     583.19
 36.67     596.63
 36.77     620.00
 36.87     626.00
 36.97     619.00
 37.07     589.00
 37.17     649.43
 37.27     628.00
 37.37     631.00
 37.47     585.00
 37.57     597.60
 37.67     622.05
 37.77     640.13
 37.87     648.00
 37.97     703.00
 38.07     691.00
 38.17     710.00
 38.27     785.28
 38.37     821.28
 38.47     769.00
 38.57     771.75
 38.67     685.00
 38.77     669.38
 38.87     664.00
 38.97     594.00
 39.07     572.24
 39.17     601.00
 39.27     617.00
 39.37     615.90
 39.47     614.17
 39.57     644.43
 39.67     592.00
 39.77     626.00
 39.87     595.00
 39.97     606.89
 40.07     570.00
 40.17     570.00
 40.27     625.00
 40.37     621.34
 40.47     575.00
 40.57     603.19
 40.67     563.00
 40.77     569.00
 40.87     581.00
 40.97     584.00
 41.07     573.00
 41.17     635.00
 41.27     601.00
 41.37     631.00
 41.47     590.00
 41.57     556.00
 41.67     602.00
 41.77     634.72
 41.87     647.04
 41.97     582.00
 42.07     604.27
 42.17     600.00
 42.27     578.00
 42.37     593.38
 42.47     619.68
 42.57     621.14
 42.67     627.00
 42.77     687.98
 42.87     678.00
 42.97     658.00
 43.07     689.00
 43.17     661.24
 43.27     676.00
 43.37     661.00
 43.47     645.00
 43.57     626.00
 43.67     596.00
 43.77     637.00
 43.87     584.95
 43.97     621.00
 44.07     643.00
 44.17     647.00
 44.27     661.00
 44.37     555.98
 44.47     614.00
 44.57     621.00
 44.67     633.00
 44.77     622.00
 44.87     585.00
 44.97     610.67
 45.07     597.00
 45.17     628.00
 45.27     602.00
 45.37     608.00
 45.47     575.00
 45.57     620.77
 45.67     617.00
 45.77     641.00
 45.87     642.84
 45.97     631.39
 46.07     617.00
 46.17     564.29
 46.27     620.00
 46.37     650.84
 46.47     597.00
 46.57     615.00
 46.67     582.00
 46.77     605.00
 46.87     589.00
 46.97     561.89
 47.07     614.00
 47.17     613.00
 47.27     573.00
 47.37     608.00
 47.47     606.00
 47.57     635.00
 47.67     592.00
 47.77     641.00
 47.87     688.47
 47.97     656.00
 48.07     627.22
 48.17     721.90
 48.27     660.25
 48.37     701.00
 48.47     738.00
 48.57     684.37
 48.67     691.00
 48.77     667.90
 48.87     634.00
 48.97     557.00
 49.07     617.00
 49.17     688.41
 49.27     642.00
 49.37     639.00
 49.47     679.33
 49.57     687.00
 49.67     728.00
 49.77     794.73
 49.87     779.00
 49.97     897.00
 50.07    1215.00
 50.17    1494.00
 50.27    2075.48
 50.37    2511.00
 50.47    2971.00
 50.57    3149.00
 50.67    3161.00
 50.77    2815.61
 50.87    2419.00
 50.97    1866.64
 51.07    1465.68
 51.17    1173.00
 51.27     948.13
 51.37     818.00
 51.47     825.00
 51.57     798.13
 51.67     778.00
 51.77     703.30
 51.87     785.00
 51.97     709.00
 52.07     705.90
 52.17     704.50
 52.27     707.00
 52.37     649.67
 52.47     708.62
 52.57     652.76
 52.67     698.32
 52.77     708.00
 52.87     728.00
 52.97     665.00
 53.07     727.00
 53.17     675.59
 53.27     712.26
 53.37     761.00
 53.47     825.00
 53.57     977.89
 53.67    1069.40
 53.77    1122.00
 53.87    1217.00
 53.97    1304.00
 54.07    1229.00
 54.17    1233.00
 54.27    1155.00
 54.37    1007.69
 54.47     904.00
 54.57     903.00
 54.67     731.00
 54.77     740.00
 54.87     686.00
 54.97     740.00
 55.07     731.00
 55.17     664.88
 55.27     684.00
 55.37     686.00
 55.47     671.91
 55.57     704.00
 55.67     672.00
 55.77     669.00
 55.87     701.00
 55.97     736.00
 56.07     733.55
 56.17     697.00
 56.27     730.95
 56.37     816.00
 56.47     806.00
 56.57     953.67
 56.67    1072.46
 56.77    1230.00
 56.87    1421.00
 56.97    1743.26
 57.07    2136.93
 57.17    2521.00
 57.27    2744.00
 57.37    2723.00
 57.47    2593.78
 57.57    2437.00
 57.67    2103.00
 57.77    1731.93
 57.87    1398.00
 57.97    1208.00
 58.07    1047.17
 58.17     865.00
 58.27     876.00
 58.37     801.00
 58.47     844.62
 58.57     822.00
 58.67     802.00
 58.77     929.00
 58.87    1004.75
 58.97    1014.00
 59.07    1196.16
 59.17    1221.79
 59.27    1296.00
 59.37    1316.00
 59.47    1343.00
 59.57    1365.57
 59.67    1376.00
 59.77    1298.45
 59.87    1248.00
 59.97    1159.09
 60.07    1269.90
 60.17    1269.00
 60.27    1350.00
 60.37    1325.63
 60.47    1457.46
 60.57    1591.45
 60.67    1673.00
 60.77    1645.08
 60.87    1519.00
 60.97    1474.00
 61.07    1319.00
 61.17    1117.52
 61.27    1100.00
 61.37     995.00
 61.47     886.31
 61.57     774.00
 61.67     853.00
 61.77     857.61
 61.87     905.00
 61.97     915.00
 62.07    1039.00
 62.17    1082.00
 62.27    1311.42
 62.37    1480.00
 62.47    1630.99
 62.57    1648.00
 62.67    1887.00
 62.77    1865.47
 62.87    1776.00
 62.97    1560.00
 63.07    1458.00
 63.17    1253.00
 63.27    1093.67
 63.37     950.00
 63.47     841.00
 63.57     766.48
 63.67     760.02
 63.77     742.71
 63.87     701.97
 63.97     773.80
 64.07     704.90
 64.17     758.00
 64.27     752.00
 64.37     808.83
 64.47     800.46
 64.57     900.00
 64.67     980.00
 64.77    1121.00
 64.87    1201.56
 64.97    1304.00
 65.07    1431.00
 65.17    1556.00
 65.27    1559.90
 65.37    1587.41
 65.47    1530.00
 65.57    1368.76
 65.67    1268.88
 65.77    1176.70
 65.87    1099.08
 65.97     910.00
 66.07     910.00
 66.17     807.53
 66.27     841.00
 66.37     738.00
 66.47     762.00
 66.57     713.00
 66.67     706.74
 66.77     675.00
 66.87     705.00
 66.97     752.36
 67.07     665.19
 67.17     745.42
 67.27     740.00
 67.37     672.00
 67.47     809.96
 67.57     751.87
 67.67     840.00
 67.77     910.00
 67.87     969.00
 67.97    1164.00
 68.07    1421.50
 68.17    1553.00
 68.27    1753.05
 68.37    2048.00
 68.47    2328.00
 68.57    2491.98
 68.67    2549.00
 68.77    2569.00
 68.87    2464.00
 68.97    2191.13
 69.07    2046.00
 69.17    1684.24
 69.27    1543.00
 69.37    1311.00
 69.47    1097.50
 69.57    1037.00
 69.67     859.42
 69.77     900.00
 69.87     876.00
 69.97     784.01
 70.07     731.43
 70.17     711.00
 70.27     732.84
 70.37     694.24
 70.47     730.67
 70.57     658.75
 70.67     687.00
 70.77     682.17
 70.87     659.06
 70.97     648.77
 71.07     740.00
 71.17     701.00
 71.27     710.56
 71.37     767.00
 71.47     730.00
 71.57     820.00
 71.67     793.00
 71.77     913.00
 71.87     944.00
 71.97    1070.00
 72.07    1287.00
 72.17    1349.43
 72.27    1553.00
 72.37    1729.00
 72.47    1806.46
 72.57    1957.00
 72.67    1971.00
 72.77    1996.00
 72.87    1943.00
 72.97    1742.00
 73.07    1636.00
 73.17    1462.00
 73.27    1284.00
 73.37    1201.00
 73.47    1026.00
 73.57     885.00
 73.67     852.00
 73.77     825.68
 73.87     770.00
 73.97     788.00
 74.07     777.00
 74.17     732.18
 74.27     678.00
 74.37     700.00
 74.47     652.00
 74.57     689.00
 74.67     725.25
 74.77     617.00
 74.87     627.00
 74.97     725.69
 75.07     700.00
 75.17     695.00
 75.27     698.49
 75.37     719.00
 75.47     647.25
 75.57     689.00
 75.67     654.35
 75.77     683.00
 75.87     717.00
 75.97     693.00
 76.07     691.00
 76.17     663.00
 76.27     689.00
 76.37     679.12
 76.47     798.00
 76.57     752.00
 76.67     788.00
 76.77     878.00
 76.87     941.43
 76.97     899.93
 77.07     933.90
 77.17    1023.00
 77.27    1043.00
 77.37    1009.57
 77.47     987.88
 77.57     931.33
 77.67     896.00
 77.77     870.00
 77.87     829.00
 77.97     780.31
 78.07     731.00
 78.17     731.00
 78.27     702.00
 78.37     684.00
 78.47     690.28
 78.57     657.00
 78.67     660.00
 78.77     604.21
 78.87     642.00
 78.97     628.00
 79.07     611.00
 79.17     644.49
 79.27     590.00
 79.37     602.00
 79.47     606.00
 79.57     636.71
 79.67     628.12
 79.77     603.93
 79.87     618.00
 79.97     654.00
 80.07     601.00
 80.17     640.00
 80.27     669.00
 80.37     639.00
 80.47     638.00
 80.57     754.09
 80.67     789.00
 80.77     750.00
 80.87     775.00
 80.97     921.26
 81.07    1011.00
 81.17    1088.00
 81.27    1068.78
 81.37    1212.83
 81.47    1312.00
 81.57    1261.92
 81.67    1346.31
 81.77    1453.23
 81.87    1398.14
 81.97    1554.00
 82.07    1406.00
 82.17    1430.00
 82.27    1307.00
 82.37    1206.57
 82.47    1068.10
 82.57    1010.16
 82.67     989.00
 82.77     975.67
 82.87     903.00
 82.97     881.49
 83.07     786.71
 83.17     792.00
 83.27     750.16
 83.37     756.90
 83.47     748.16
 83.57     644.00
 83.67     654.79
 83.77     669.00
 83.87     659.00
 83.97     672.00
 84.07     630.33
 84.17     648.00
 84.27     649.18
 84.37     658.00
 84.47     685.00
 84.57     640.00
 84.67     707.37
 84.77     705.39
 84.87     673.00
 84.97     634.00
 85.07     648.00
 85.17     644.00
 85.27     679.86
 85.37     632.00
 85.47     596.00
 85.57     609.00
 85.67     622.00
 85.77     597.11
 85.87     590.82
 85.97     630.64
 86.07     629.76
 86.17     624.00
 86.27     627.00
 86.37     657.00
 86.47     677.43
 86.57     673.38
 86.67     676.00
 86.77     651.00
 86.87     658.00
 86.97     641.36
 87.07     655.00
 87.17     648.00
 87.27     705.00
 87.37     727.81
 87.47     685.00
 87.57     727.00
 87.67     691.00
 87.77     713.00
 87.87     709.00
 87.97     694.00
 88.07     764.00
 88.17     756.00
 88.27     759.00
 88.37     736.00
 88.47     686.00
 88.57     710.00
 88.67     719.00
 88.77     708.38
 88.87     707.00
 88.97     688.00
 89.07     644.27
 89.17     674.67
 89.27     656.34
 89.37     662.00
 89.47     630.77
 89.57     656.00
 89.67     650.00
 89.77     688.34
 89.87     667.00
 89.97     711.81
 90.07     720.00
 90.17     726.49
 90.27     642.05
 90.37     699.00
 90.47     686.40
 90.57     639.00
 90.67     622.84
 90.77     631.00
 90.87     673.00
 90.97     639.33
 91.07     654.08
 91.17     660.00
 91.27     632.00
 91.37     599.00
 91.47     611.00
 91.57     563.00
 91.67     651.00
 91.77     603.00
 91.87     602.00
 91.97     601.00
 92.07     558.33
 92.17     616.00
 92.27     621.08
 92.37     587.00
 92.47     570.00
 92.57     654.89
 92.67     601.00
 92.77     658.00
 92.87     641.00
 92.97     658.00
 93.07     676.40
 93.17     708.78
 93.27     683.00
 93.37     690.58
 93.47     693.00
 93.57     689.56
 93.67     731.00
 93.77     752.82
 93.87     802.00
 93.97     796.00
 94.07     785.00
 94.17     861.00
 94.27     899.31
 94.37     922.00
 94.47     899.00
 94.57     908.00
 94.67     887.00
 94.77     914.00
 94.87     971.00
 94.97     918.00
 95.07    1001.00
 95.17    1049.40
 95.27     966.00
 95.37    1008.00
 95.47    1044.28
 95.57    1032.00
 95.67    1020.15
 95.77    1102.40
 95.87    1110.00
 95.97    1017.00
 96.07    1021.23
 96.17     951.00
 96.27     934.00
 96.37     948.00
 96.47     877.00
 96.57     927.00
 96.67     813.89
 96.77     874.89
 96.87     799.00
 96.97     851.00
 97.07     910.00
 97.17     887.00
 97.27     946.49
 97.37    1005.00
 97.47    1021.75
 97.57     995.32
 97.67    1096.90
 97.77    1161.70
 97.87    1323.00
 97.97    1377.09
 98.07    1397.00
 98.17    1470.00
 98.27    1573.95
 98.37    1561.00
 98.47    1608.00
 98.57    1654.91
 98.67    1594.00
 98.77    1539.48
 98.87    1477.00
 98.97    1425.71
 99.07    1428.00
 99.17    1290.00
 99.27    1220.80
 99.37    1208.00
 99.47    1221.00
 99.57    1093.00
 99.67    1039.15
 99.77    1104.10
 99.87    1038.16
 99.97     984.00
100.07    1085.31
100.17    1079.00
100.27    1151.00
100.37    1066.63
100.47    1170.64
100.57    1231.16
100.67    1361.00
100.77    1478.00
100.87    1536.00
100.97    1707.00
101.07    1787.00
101.17    1809.00
101.27    1864.00
101.37    1955.00
101.47    2088.16
101.57    2014.10
101.67    2081.00
101.77    2055.03
101.87    2057.48
101.97    2169.00
102.07    2168.96
102.17    2066.00
102.27    2033.00
102.37    2039.59
102.47    1892.07
102.57    1781.00
102.67    1792.74
102.77    1649.00
102.87    1578.00
102.97    1560.15
103.07    1423.00
103.17    1524.95
103.27    1423.00
103.37    1329.00
103.47    1360.66
103.57    1327.00
103.67    1261.00
103.77    1241.00
103.87    1177.00
103.97    1114.00
104.07    1104.00
104.17    1143.49
104.27    1037.00
104.37    1028.00
104.47     948.06
104.57     916.00
104.67     943.00
104.77     867.00
104.87     762.96
104.97     796.00
105.07     761.96
105.17     702.96
105.27     705.00
105.37     702.00
105.47     736.00
105.57     697.16
105.67     630.31
105.77     670.20
105.87     610.78
105.97     643.60
106.07     576.10
106.17     628.00
106.27     638.00
106.37     637.00
106.47     645.03
106.57     629.77
106.67     610.99
106.77     646.00
106.87     695.00
106.97     684.00
107.07     660.00
107.17     698.00
107.27     662.00
107.37     622.00
107.47     756.00
107.57     727.00
107.67     672.73
107.77     690.91
107.87     770.00
107.97     703.00
108.07     736.99
108.17     780.00
108.27     797.41
108.37     773.00
108.47     834.35
108.57     747.73
108.67     750.00
108.77     773.00
108.87     741.00
108.97     779.00
109.07     749.43
109.17     759.00
109.27     810.02
109.37     771.00
109.47     823.58
109.57     783.00
109.67     834.93
109.77     813.04
109.87     765.00
109.97     808.00
110.07     746.58
110.17     783.75
110.27     795.00
110.37     768.00
110.47     736.00
110.57     757.87
110.67     813.15
110.77     735.00
110.87     732.00
110.97     739.69
111.07     730.00
111.17     694.00
111.27     747.97
111.37     646.72
111.47     648.22
111.57     660.51
111.67     685.61
111.77     691.00
111.87     657.00
111.97     655.00
112.07     645.00
112.17     583.00
112.27     583.00
112.37     634.00
112.47     600.83
112.57     567.00
112.67     660.00
112.77     617.00
112.87     615.00
112.97     666.00
113.07     629.00
113.17     663.17
113.27     636.00
113.37     667.12
113.47     661.38
113.57     650.00
113.67     687.62
113.77     659.64
113.87     630.00
113.97     691.00
114.07     675.00
114.17     680.95
114.27     662.00
114.37     734.91
114.47     648.00
114.57     747.84
114.67     753.00
114.77     720.00
114.87     748.00
114.97     775.00
115.07     775.00
115.17     808.00
115.27     913.00
115.37    1033.50
115.47    1002.00
115.57    1211.67
115.67    1301.00
115.77    1419.35
115.87    1538.00
115.97    1683.00
116.07    1975.00
116.17    2208.00
116.27    2469.00
116.37    2709.00
116.47    2915.75
116.57    3186.03
116.67    3624.00
116.77    4085.00
116.87    4346.05
116.97    4726.00
117.07    5123.54
117.17    5596.76
117.27    5940.00
117.37    6330.31
117.47    6746.91
117.57    6942.00
117.67    7229.00
117.77    7458.47
117.87    7586.94
117.97    7578.00
118.07    7618.00
118.17    7402.34
118.27    7292.09
118.37    7195.00
118.47    6814.78
118.57    6592.00
118.67    6228.00
118.77    5946.49
118.87    5475.68
118.97    5223.91
119.07    4880.61
119.17    4468.00
119.27    4119.99
119.37    3669.39
119.47    3407.70
119.57    3063.00
119.67    2765.00
119.77    2462.00
119.87    2243.00
119.97    2024.00
120.07    1909.00
120.17    1733.00
120.27    1583.00
120.37    1459.00
120.47    1355.00
120.57    1256.00
120.67    1196.00
120.77    1049.02
120.87     984.80
120.97     898.47
121.07     893.22
121.17     924.00
121.27     856.00
121.37     829.00
121.47     809.53
121.57     855.00
121.67     798.00
121.77     766.00
121.87     747.68
121.97     796.39
122.07     703.00
122.17     714.00
122.27     700.00
122.37     709.00
122.47     711.05
122.57     742.37
122.67     756.28
122.77     721.00
122.87     725.47
122.97     748.74
123.07     786.88
123.17     729.00
123.27     726.35
123.37     695.00
123.47     734.00
123.57     722.63
123.67     751.00
123.77     777.00
123.87     798.00
123.97     787.87
124.07     775.00
124.17     834.00
124.27     750.94
124.37     832.00
124.47     830.00
124.57     835.00
124.67     782.00
124.77     806.00
124.87     870.00
124.97     720.98
