  9.97     583.24
 10.07     581.00
 10.17     579.42
 10.27     559.67
 10.37     603.00
 10.47     546.85
 10.57     573.00
 10.67     622.00
 10.77     568.07
 10.87     603.00
 10.97     585.10
 11.07     528.00
 11.17     614.46
 11.27     610.00
 11.37     562.00
 11.47     635.00
 11.57     614.00
 11.67     644.00
 11.77     607.00
 11.87     639.22
 11.97     628.00
 12.07     645.65
 12.17     697.00
 12.27     757.09
 12.37     661.25
 12.47     614.68
 12.57     636.00
 12.67     578.92
 12.77     609.00
 12.87     601.00
 12.97     624.95
 13.07     584.62
 13.17     606.12
 13.27     571.00
 13.37     585.01
 13.47     564.00
 13.57     589.00
 13.67     537.00
 13.77     566.93
 13.87     589.00
 13.97     566.23
 14.07     577.00
 14.17     555.15
 14.27     537.00
 14.37     530.83
 14.47     573.09
 14.57     571.00
 14.67     581.00
 14.77     572.00
 14.87     537.33
 14.97     593.13
 15.07     527.00
 15.17     567.00
 15.27     616.25
 15.37     622.00
 15.47     566.00
 15.57     540.00
 15.67     556.00
 15.77     530.69
 15.87     597.91
 15.97     603.32
 16.07     554.74
 16.17     520.51
 16.27     511.00
 16.37     524.37
 16.47     608.44
 16.57     516.00
 16.67     602.00
 16.77     539.47
 16.87     551.00
 16.97     586.00
 17.07     541.00
 17.17     534.00
 17.27     569.00
 17.37     503.00
 17.47     581.00
 17.57     602.38
 17.67     553.00
 17.77     545.89
 17.87     570.00
 17.97     584.00
 18.07     594.00
 18.17     592.00
 18.27     575.01
 18.37     573.06
 18.47     541.00
 18.57     550.00
 18.67     534.00
 18.77     519.00
 18.87     548.39
 18.97     590.79
 19.07     572.00
 19.17     516.00
 19.27     594.00
 19.37     537.00
 19.47     540.00
 19.57     509.13
 19.67     579.99
 19.77     553.00
 19.87     557.00
 19.97     592.00
 20.07     548.00
 20.17     527.92
 20.27     586.00
 20.37     539.97
 20.47     595.79
 20.57     565.00
 20.67     519.00
 20.77     575.80
 20.87     563.54
 20.97     574.37
 21.07     552.00
 21.17     524.00
 21.27     518.01
 21.37     569.18
 21.47     563.15
 21.57     538.00
 21.67     551.00
 21.77     572.00
 21.87     562.00
 21.97     576.00
 22.07     535.00
 22.17     503.00
 22.27     529.98
 22.37     593.00
 22.47     538.00
 22.57     542.00
 22.67     518.00
 22.77     561.97
 22.87     528.00
 22.97     506.43
 23.07     531.00
 23.17     525.27
 23.27     590.07
 23.37     512.57
 23.47     507.00
 23.57     563.00
 23.67     534.26
 23.77     569.00
 23.87     525.00
 23.97     564.00
 24.07     533.73
 24.17     559.00
 24.27     514.22
 24.37     591.00
 24.47     549.27
 24.57     593.00
 24.67     589.00
 24.77     590.84
 24.87     607.68
 24.97     652.82
 25.07     573.00
 25.17     602.00
 25.27     536.06
 25.37     547.00
 25.47     604.00
 25.57     560.00
 25.67     584.00
 25.77     558.00
 25.87     592.96
 25.97     553.13
 26.07     558.37
 26.17     541.00
 26.27     541.00
 26.37     522.88
 26.47     578.00
 26.57     542.00
 26.67     492.91
 26.77     529.00
 26.87     527.00
 26.97     582.11
 27.07     553.00
 27.17     535.00
 27.27     542.64
 27.37     506.00
 27.47     563.00
 27.57     548.00
 27.67     551.00
 27.77     540.95
 27.87     602.00
 27.97     704.93
 28.07     814.00
 28.17     896.00
 28.27     919.00
 28.37     895.96
 28.47     755.00
 28.57     705.00
 28.67     653.00
 28.77     779.00
 28.87     761.00
 28.97     844.58
 29.07     786.00
 29.17     717.00
 29.27     683.51
 29.37     617.00
 29.47     570.58
 29.57     588.00
 29.67     583.00
 29.77     552.00
 29.87     559.00
 29.97     550.00
 30.07     538.00
 30.17     536.06
 30.27     609.00
 30.37     529.16
 30.47     549.00
 30.57     524.88
 30.67     513.78
 30.77     582.55
 30.87     567.74
 30.97     627.00
 31.07     590.00
 31.17     586.00
 31.27     586.00
 31.37     551.00
 31.47     621.00
 31.57     579.00
 31.67     511.26
 31.77     562.00
 31.87     560.00
 31.97     549.00
 32.07     486.49
 32.17     556.00
 32.27     514.00
 32.37     532.00
 32.47     558.00
 32.57     525.91
 32.67     547.25
 32.77     518.00
 32.87     504.44
 32.97     562.46
 33.07     572.66
 33.17     572.30
 33.27     557.00
 33.37     566.00
 33.47     569.00
 33.57     564.05
 33.67     684.00
 33.77     761.00
 33.87     926.08
 33.97    1069.00
 34.07    1097.45
 34.17     971.72
 34.27     844.00
 34.37     761.00
 34.47     646.00
 34.57     551.39
 34.67     602.00
 34.77     513.44
 34.87     473.00
 34.97     528.37
 35.07     508.42
 35.17     495.00
 35.27     506.00
 35.37     484.00
 35.47     500.00
 35.57     498.00
 35.67     529.00
 35.77     530.55
 35.87     518.00
 35.97     480.21
 36.07     519.00
 36.17     562.01
 36.27     542.63
 36.37     546.85
 36.47     538.00
 36.57     559.57
 36.67     480.00
 36.77     501.00
 36.87     519.00
 36.97     543.00
 37.07     501.00
 37.17     529.41
 37.27     503.26
 37.37     508.00
 37.47     502.00
 37.57     524.00
 37.67     550.63
 37.77     510.00
 37.87     484.69
 37.97     475.21
 38.07     498.00
 38.17     553.00
 38.27     536.00
 38.37     524.39
 38.47     484.97
 38.57     520.64
 38.67     499.48
 38.77     510.00
 38.87     531.71
 38.97     512.38
 39.07     511.00
 39.17     529.52
 39.27     466.00
 39.37     518.00
 39.47     545.18
 39.57     509.00
 39.67     527.00
 39.77     523.83
 39.87     457.00
 39.97     539.00
 40.07     507.61
 40.17     507.56
 40.27     518.00
 40.37     522.00
 40.47     482.18
 40.57     534.00
 40.67     515.99
 40.77     511.20
 40.87     515.06
 40.97     487.00
 41.07     508.58
 41.17     515.73
 41.27     489.23
 41.37     504.00
 41.47     519.51
 41.57     532.00
 41.67     518.00
 41.77     516.00
 41.87     474.78
 41.97     514.17
 42.07     506.00
 42.17     519.00
 42.27     519.00
 42.37     543.00
 42.47     551.00
 42.57     618.20
 42.67     602.76
 42.77     664.52
 42.87     535.00
 42.97     560.00
 43.07     503.00
 43.17     516.00
 43.27     456.00
 43.37     483.00
 43.47     508.00
 43.57     490.00
 43.67     500.64
 43.77     435.00
 43.87     527.15
 43.97     496.36
 44.07     539.00
 44.17     513.00
 44.27     471.42
 44.37     524.00
 44.47     488.00
 44.57     495.00
 44.67     472.00
 44.77     527.52
 44.87     516.14
 44.97     510.00
 45.07     545.00
 45.17     456.96
 45.27     506.73
 45.37     495.00
 45.47     508.00
 45.57     497.00
 45.67     468.40
 45.77     528.90
 45.87     482.00
 45.97     511.00
 46.07     491.00
 46.17     477.82
 46.27     507.00
 46.37     494.00
 46.47     523.00
 46.57     467.61
 46.67     493.00
 46.77     514.00
 46.87     503.00
 46.97     496.01
 47.07     524.00
 47.17     540.00
 47.27     529.00
 47.37     534.00
 47.47     539.00
 47.57     524.06
 47.67     564.13
 47.77     599.00
 47.87     611.00
 47.97     555.88
 48.07     548.41
 48.17     593.00
 48.27     566.75
 48.37     556.01
 48.47     543.00
 48.57     560.00
 48.67     512.00
 48.77     497.84
 48.87     553.00
 48.97     511.04
 49.07     520.00
 49.17     561.00
 49.27     597.00
 49.37     626.00
 49.47     637.00
 49.57     768.00
 49.67     929.00
 49.77    1106.00
 49.87    1497.00
 49.97    1726.43
 50.07    2176.00
 50.17    2408.00
 50.27    2366.35
 50.37    2235.25
 50.47    1855.11
 50.57    1425.00
 50.67    1097.00
 50.77     776.00
 50.87     734.00
 50.97     666.00
 51.07     600.84
 51.17     649.00
 51.27     630.00
 51.37     614.00
 51.47     591.00
 51.57     557.00
 51.67     549.48
 51.77     566.00
 51.87     554.22
 51.97     553.00
 52.07     546.94
 52.17     543.00
 52.27     573.00
 52.37     517.04
 52.47     570.00
 52.57     587.00
 52.67     610.00
 52.77     584.35
 52.87     607.64
 52.97     726.00
 53.07     806.79
 53.17     903.85
 53.27    1067.46
 53.37    1139.00
 53.47    1217.32
 53.57    1169.00
 53.67    1095.00
 53.77    1005.00
 53.87     949.58
 53.97     806.00
 54.07     692.00
 54.17     683.93
 54.27     569.87
 54.37     575.00
 54.47     594.68
 54.57     543.41
 54.67     539.00
 54.77     565.00
 54.87     624.00
 54.97     570.25
 55.07     555.00
 55.17     602.00
 55.27     590.00
 55.37     509.06
 55.47     596.00
 55.57     528.31
 55.67     569.00
 55.77     545.81
 55.87     631.43
 55.97     616.00
 56.07     693.00
 56.17     789.31
 56.27     994.00
 56.37    1138.00
 56.47    1406.14
 56.57    1825.00
 56.67    2152.00
 56.77    2412.00
 56.87    2678.00
 56.97    2630.00
 57.07    2312.00
 57.17    2081.16
 57.27    1571.80
 57.37    1324.00
 57.47    1102.05
 57.57     848.00
 57.67     774.00
 57.77     744.00
 57.87     645.00
 57.97     699.00
 58.07     718.00
 58.17     669.55
 58.27     714.90
 58.37     872.00
 58.47     943.17
 58.57    1020.00
 58.67    1089.00
 58.77    1216.51
 58.87    1382.16
 58.97    1440.00
 59.07    1454.00
 59.17    1450.00
 59.27    1285.00
 59.37    1184.43
 59.47    1240.00
 59.57    1161.00
 59.67    1134.00
 59.77    1175.20
 59.87    1257.00
 59.97    1365.00
 60.07    1456.00
 60.17    1478.85
 60.27    1594.14
 60.37    1431.98
 60.47    1367.91
 60.57    1226.00
 60.67    1072.00
 60.77     935.00
 60.87     802.31
 60.97     706.00
 61.07     700.00
 61.17     654.00
 61.27     604.85
 61.37     636.00
 61.47     673.00
 61.57     810.00
 61.67     872.86
 61.77     954.91
 61.87    1187.96
 61.97    1259.00
 62.07    1343.56
 62.17    1378.00
 62.27    1354.95
 62.37    1372.51
 62.47    1180.00
 62.57    1001.00
 62.67     823.00
 62.77     779.89
 62.87     711.00
 62.97     623.00
 63.07     637.00
 63.17     569.00
 63.27     592.00
 63.37     607.44
 63.47     610.00
 63.57     596.00
 63.67     531.37
 63.77     639.02
 63.87     606.77
 63.97     649.00
 64.07     754.00
 64.17     771.43
 64.27     843.00
 64.37     967.90
 64.47    1006.00
 64.57     964.34
 64.67    1034.00
 64.77    1045.00
 64.87    1019.00
 64.97     874.00
 65.07     875.59
 65.17     805.63
 65.27     717.00
 65.37     669.00
 65.47     644.38
 65.57     645.12
 65.67     610.00
 65.77     595.00
 65.87     594.58
 65.97     579.33
 66.07     542.00
 66.17     562.00
 66.27     543.34
 66.37     557.00
 66.47     587.00
 66.57     589.68
 66.67     526.00
 66.77     606.00
 66.87     580.00
 66.97     591.00
 67.07     642.00
 67.17     688.69
 67.27     786.55
 67.37     918.00
 67.47    1110.41
 67.57    1308.00
 67.67    1561.00
 67.77    1809.00
 67.87    2152.72
 67.97    2321.00
 68.07    2448.00
 68.17    2454.36
 68.27    2270.00
 68.37    2050.00
 68.47    1808.00
 68.57    1590.86
 68.67    1239.00
 68.77    1003.00
 68.87     857.84
 68.97     762.00
 69.07     679.28
 69.17     674.00
 69.27     575.37
 69.37     629.00
 69.47     566.33
 69.57     568.00
 69.67     586.00
 69.77     607.53
 69.87     568.00
 69.97     560.00
 70.07     613.74
 70.17     614.00
 70.27     577.14
 70.37     567.00
 70.47     546.00
 70.57     564.92
 70.67     629.44
 70.77     622.00
 70.87     635.00
 70.97     656.12
 71.07     737.87
 71.17     800.95
 71.27     879.00
 71.37    1013.00
 71.47    1120.10
 71.57    1304.00
 71.67    1503.00
 71.77    1577.29
 71.87    1800.00
 71.97    1880.00
 72.07    1916.00
 72.17    1943.07
 72.27    1821.00
 72.37    1650.00
 72.47    1506.00
 72.57    1360.00
 72.67    1154.00
 72.77     965.00
 72.87     988.86
 72.97     795.00
 73.07     774.05
 73.17     749.43
 73.27     732.36
 73.37     630.23
 73.47     629.00
 73.57     619.00
 73.67     662.26
 73.77     554.00
 73.87     566.00
 73.97     591.00
 74.07     530.39
 74.17     559.00
 74.27     572.15
 74.37     529.83
 74.47     626.00
 74.57     613.23
 74.67     578.86
 74.77     645.00
 74.87     612.00
 74.97     562.22
 75.07     516.35
 75.17     616.00
 75.27     571.00
 75.37     529.00
 75.47     552.00
 75.57     522.76
 75.67     547.00
 75.77     554.00
 75.87     563.00
 75.97     663.00
 76.07     582.10
 76.17     694.63
 76.27     657.93
 76.37     671.00
 76.47     689.33
 76.57     732.68
 76.67     683.00
 76.77     691.00
 76.87     726.60
 76.97     670.03
 77.07     622.00
 77.17     608.00
 77.27     624.88
 77.37     619.40
 77.47     543.00
 77.57     510.19
 77.67     536.53
 77.77     502.00
 77.87     510.86
 77.97     523.13
 78.07     522.00
 78.17     524.00
 78.27     468.00
 78.37     508.22
 78.47     530.00
 78.57     476.00
 78.67     494.00
 78.77     524.00
 78.87     575.22
 78.97     558.00
 79.07     535.00
 79.17     569.52
 79.27     521.00
 79.37     531.00
 79.47     513.20
 79.57     552.00
 79.67     498.00
 79.77     541.00
 79.87     573.03
 79.97     606.00
 80.07     556.80
 80.17     589.00
 80.27     581.00
 80.37     537.40
 80.47     571.00
 80.57     594.00
 80.67     591.00
 80.77     643.00
 80.87     720.83
 80.97     675.00
 81.07     733.00
 81.17     755.00
 81.27     752.00
 81.37     790.00
 81.47     689.00
 81.57     732.00
 81.67     762.00
 81.77     728.00
 81.87     740.00
 81.97     659.00
 82.07     674.00
 82.17     696.00
 82.27     603.54
 82.37     556.00
 82.47     635.94
 82.57     608.72
 82.67     554.21
 82.77     599.00
 82.87     580.00
 82.97     512.01
 83.07     516.28
 83.17     550.00
 83.27     537.00
 83.37     556.94
 83.47     585.00
 83.57     511.17
 83.67     561.00
 83.77     583.00
 83.87     562.00
 83.97     605.00
 84.07     572.00
 84.17     594.00
 84.27     574.00
 84.37     555.00
 84.47     602.08
 84.57     541.00
 84.67     565.42
 84.77     543.00
 84.87     491.58
 84.97     516.00
 85.07     494.01
 85.17     556.00
 85.27     560.00
 85.37     603.00
 85.47     536.00
 85.57     545.99
 85.67     508.00
 85.77     488.07
 85.87     509.00
 85.97     532.48
 86.07     560.08
 86.17     514.00
 86.27     552.00
 86.37     537.00
 86.47     531.00
 86.57     518.69
 86.67     572.00
 86.77     578.00
 86.87     617.65
 86.97     596.00
 87.07     633.00
 87.17     642.00
 87.27     629.00
 87.37     649.92
 87.47     675.00
 87.57     646.00
 87.67     613.00
 87.77     628.00
 87.87     628.00
 87.97     627.39
 88.07     620.99
 88.17     570.00
 88.27     527.78
 88.37     564.00
 88.47     549.00
 88.57     560.15
 88.67     582.00
 88.77     606.00
 88.87     574.84
 88.97     592.79
 89.07     611.05
 89.17     624.00
 89.27     575.32
 89.37     599.00
 89.47     594.00
 89.57     620.00
 89.67     608.00
 89.77     545.00
 89.87     570.00
 89.97     556.20
 90.07     513.00
 90.17     529.83
 90.27     560.00
 90.37     524.73
 90.47     582.55
 90.57     548.98
 90.67     518.00
 90.77     528.00
 90.87     532.00
 90.97     520.00
 91.07     507.00
 91.17     527.00
 91.27     553.00
 91.37     588.00
 91.47     543.00
 91.57     539.00
 91.67     586.38
 91.77     510.00
 91.87     504.00
 91.97     515.00
 92.07     540.00
 92.17     583.00
 92.27     623.00
 92.37     618.00
 92.47     599.89
 92.57     641.00
 92.67     644.07
 92.77     652.74
 92.87     735.00
 92.97     703.00
 93.07     761.00
 93.17     768.00
 93.27     757.02
 93.37     746.00
 93.47     797.00
 93.57     779.00
 93.67     782.17
 93.77     817.18
 93.87     845.00
 93.97     866.00
 94.07     843.11
 94.17     909.00
 94.27     887.00
 94.37     872.00
 94.47     838.00
 94.57     902.19
 94.67     920.00
 94.77     914.00
 94.87     873.02
 94.97     900.00
 95.07     895.93
 95.17     894.00
 95.27     831.00
 95.37     750.00
 95.47     781.00
 95.57     755.00
 95.67     699.00
 95.77     740.00
 95.87     719.00
 95.97     755.00
 96.07     696.44
 96.17     729.73
 96.27     724.00
 96.37     812.00
 96.47     766.75
 96.57     854.59
 96.67     942.00
 96.77    1015.00
 96.87    1026.78
 96.97    1130.00
 97.07    1271.00
 97.17    1238.04
 97.27    1366.34
 97.37    1392.00
 97.47    1418.00
 97.57    1439.00
 97.67    1456.00
 97.77    1387.00
 97.87    1335.00
 97.97    1260.00
 98.07    1158.00
 98.17    1142.00
 98.27    1129.00
 98.37    1066.00
 98.47     907.00
 98.57     963.16
 98.67     836.00
 98.77     796.79
 98.87     799.00
 98.97     794.00
 99.07     798.00
 99.17     878.00
 99.27     908.00
 99.37     987.45
 99.47    1102.00
 99.57    1161.80
 99.67    1148.00
 99.77    1357.82
 99.87    1506.00
 99.97    1530.00
100.07    1736.00
100.17    1733.27
100.27    1910.00
100.37    1931.00
100.47    1952.00
100.57    1997.00
100.67    2021.00
100.77    2054.00
100.87    2000.00
100.97    1996.00
101.07    1927.00
101.17    1912.00
101.27    1739.00
101.37    1654.00
101.47    1597.10
101.57    1475.00
101.67    1387.00
101.77    1347.00
101.87    1264.32
101.97    1288.13
102.07    1159.00
102.17    1139.65
102.27    1183.16
102.37    1121.00
102.47    1168.24
102.57    1117.00
102.67    1009.00
102.77    1099.40
102.87     978.27
102.97     924.00
103.07     995.74
103.17     904.30
103.27     841.00
103.37     865.00
103.47     796.00
103.57     747.00
103.67     662.02
103.77     626.61
103.87     677.00
103.97     598.00
104.07     638.00
104.17     569.24
104.27     580.00
104.37     522.73
104.47     578.00
104.57     528.70
104.67     541.00
104.77     549.77
104.87     568.00
104.97     567.78
105.07     538.00
105.17     561.63
105.27     563.31
105.37     563.00
105.47     586.62
105.57     558.24
105.67     550.00
105.77     602.90
105.87     559.00
105.97     597.00
106.07     606.00
106.17     572.57
106.27     573.23
106.37     625.00
106.47     570.97
106.57     622.00
106.67     605.79
106.77     645.00
106.87     633.00
106.97     659.00
107.07     678.00
107.17     719.46
107.27     738.00
107.37     696.00
107.47     656.08
107.57     737.67
107.67     723.00
107.77     723.00
107.87     683.70
107.97     748.25
108.07     715.00
108.17     752.00
108.27     647.00
108.37     737.00
108.47     717.00
108.57     728.97
108.67     730.65
108.77     700.00
108.87     691.00
108.97     695.68
109.07     669.00
109.17     723.00
109.27     630.62
109.37     706.00
109.47     698.70
109.57     674.10
109.67     616.00
109.77     642.72
109.87     607.92
109.97     596.00
110.07     595.14
110.17     485.00
110.27     570.00
110.37     587.00
110.47     565.00
110.57     528.23
110.67     569.00
110.77     592.74
110.87     507.74
110.97     556.00
111.07     557.00
111.17     499.00
111.27     541.00
111.37     526.00
111.47     541.00
111.57     575.62
111.67     590.00
111.77     565.00
111.87     542.00
111.97     533.00
112.07     620.00
112.17     605.00
112.27     522.00
112.37     563.00
112.47     584.00
112.57     556.00
112.67     632.00
112.77     597.54
112.87     653.00
112.97     635.00
113.07     585.00
113.17     630.83
113.27     745.98
113.37     751.20
113.47     728.07
113.57     729.00
113.67     802.09
113.77     817.00
113.87     849.00
113.97     922.00
114.07     932.87
114.17     979.00
114.27    1029.00
114.37    1141.00
114.47    1210.15
114.57    1420.00
114.67    1554.00
114.77    1625.89
114.87    1781.29
114.97    2179.00
115.07    2281.00
115.17    2435.82
115.27    2896.00
115.37    3260.00
115.47    3605.00
115.57    3876.00
115.67    4053.00
115.77    4395.11
115.87    4925.00
115.97    5220.00
116.07    5725.00
116.17    6102.00
116.27    6308.00
116.37    6559.00
116.47    6619.00
116.57    6792.69
116.67    6776.94
116.77    6805.00
116.87    6555.00
116.97    6450.00
117.07    6165.00
117.17    5948.79
117.27    5339.00
117.37    5419.31
117.47    4837.00
117.57    4510.34
117.67    4311.17
117.77    3916.00
117.87    3536.09
117.97    3242.24
118.07    2845.90
118.17    2607.66
118.27    2333.15
118.37    1923.00
118.47    1718.00
118.57    1543.00
118.67    1421.00
118.77    1257.00
118.87    1158.83
118.97    1054.00
119.07    1016.28
119.17     907.51
119.27     827.00
119.37     754.38
119.47     762.21
119.57     753.00
119.67     643.63
119.77     647.31
119.87     661.71
119.97     598.64
120.07     613.00
120.17     656.29
120.27     622.00
120.37     609.69
120.47     598.00
120.57     558.00
120.67     556.00
120.77     611.00
120.87     553.00
120.97     590.00
121.07     595.00
121.17     551.00
121.27     575.36
121.37     600.00
121.47     607.00
121.57     580.00
121.67     624.00
121.77     608.00
121.87     589.00
121.97     630.38
122.07     596.90
122.17     659.00
122.27     659.09
122.37     612.00
122.47     666.42
122.57     633.00
122.67     676.00
122.77     641.00
122.87     626.00
122.97     606.00
123.07     659.30
123.17     620.08
123.27     639.83
123.37     668.00
123.47     659.13
123.57     656.00
123.67     601.48
123.77     619.00
123.87     630.00
123.97     587.81
124.07     629.00
124.17     623.00
124.27     622.00
124.37     588.00
124.47     614.00
124.57     566.00
124.67     562.00
124.77     642.23
124.87     583.00
124.97     576.50
