  9.97     740.00
 10.07     734.00
 10.17     661.00
 10.27     701.00
 10.37     706.10
 10.47     712.00
 10.57     685.41
 10.67     675.00
 10.77     619.50
 10.87     650.12
 10.97     656.00
 11.07     626.86
 11.17     718.00
 11.27     701.00
 11.37     715.30
 11.47     703.00
 11.57     685.00
 11.67     715.00
 11.77     749.00
 11.87     682.95
 11.97     734.36
 12.07     706.72
 12.17     758.64
 12.27     845.00
 12.37     865.00
 12.47     809.00
 12.57     719.54
 12.67     717.00
 12.77     686.11
 12.87     648.00
 12.97     654.00
 13.07     610.55
 13.17     614.00
 13.27     652.00
 13.37     633.18
 13.47     623.00
 13.57     618.00
 13.67     611.00
 13.77     592.00
 13.87     616.00
 13.97     696.00
 14.07     690.55
 14.17     649.48
 14.27     644.00
 14.37     687.00
 14.47     639.00
 14.57     629.00
 14.67     677.00
 14.77     640.00
 14.87     596.57
 14.97     592.83
 15.07     668.07
 15.17     580.00
 15.27     593.98
 15.37     602.97
 15.47     642.35
 15.57     586.00
 15.67     627.18
 15.77     620.00
 15.87     532.00
 15.97     633.00
 16.07     624.00
 16.17     642.00
 16.27     665.00
 16.37     612.15
 16.47     612.31
 16.57     647.46
 16.67     631.00
 16.77     650.76
 16.87     631.89
 16.97     658.00
 17.07     639.00
 17.17     615.00
 17.27     619.00
 17.37     611.97
 17.47     659.19
 17.57     623.98
 17.67     623.00
 17.77     572.00
 17.87     608.00
 17.97     590.90
 18.07     623.00
 18.17     590.00
 18.27     590.00
 18.37     611.00
 18.47     571.00
 18.57     574.00
 18.67     643.21
 18.77     609.76
 18.87     634.00
 18.97     610.64
 19.07     655.00
 19.17     595.00
 19.27     635.46
 19.37     570.00
 19.47     662.00
 19.57     614.00
 19.67     587.00
 19.77     597.00
 19.87     603.00
 19.97     566.00
 20.07     618.13
 20.17     590.00
 20.27     590.00
 20.37     574.00
 20.47     582.00
 20.57     643.04
 20.67     641.53
 20.77     613.00
 20.87     587.77
 20.97     578.15
 21.07     623.00
 21.17     659.37
 21.27     637.71
 21.37     637.00
 21.47     612.06
 21.57     558.92
 21.67     587.00
 21.77     593.00
 21.87     578.00
 21.97     640.00
 22.07     610.12
 22.17     580.63
 22.27     567.00
 22.37     594.00
 22.47     570.23
 22.57     612.00
 22.67     598.00
 22.77     587.55
 22.87     556.43
 22.97     650.77
 23.07     581.00
 23.17     622.00
 23.27     626.69
 23.37     575.04
 23.47     570.75
 23.57     634.24
 23.67     629.48
 23.77     622.37
 23.87     577.00
 23.97     631.00
 24.07     593.00
 24.17     606.91
 24.27     635.00
 24.37     639.58
 24.47     618.00
 24.57     671.00
 24.67     649.59
 24.77     711.00
 24.87     697.00
 24.97     712.00
 25.07     736.28
 25.17     678.31
 25.27     664.00
 25.37     605.32
 25.47     643.00
 25.57     592.35
 25.67     600.00
 25.77     659.00
 25.87     578.69
 25.97     677.00
 26.07     636.00
 26.17     639.00
 26.27     646.00
 26.37     578.52
 26.47     662.58
 26.57     650.00
 26.67     616.27
 26.77     673.00
 26.87     610.64
 26.97     666.00
 27.07     666.00
 27.17     690.58
 27.27     669.95
 27.37     711.61
 27.47     694.72
 27.57     730.00
 27.67     790.68
 27.77     794.00
 27.87     924.00
 27.97    1253.00
 28.07    1922.48
 28.17    2903.67
 28.27    3996.00
 28.37    4821.00
 28.47    5131.00
 28.57    4067.90
 28.67    3265.82
 28.77    2452.68
 28.87    2360.00
 28.97    2629.89
 29.07    3032.00
 29.17    2909.87
 29.27    2446.69
 29.37    1889.98
 29.47    1357.17
 29.57    1037.00
 29.67     956.00
 29.77     867.00
 29.87     669.14
 29.97     716.00
 30.07     678.34
 30.17     677.00
 30.27     673.32
 30.37     659.00
 30.47     663.00
 30.57     637.16
 30.67     697.00
 30.77     687.00
 30.87     635.82
 30.97     735.08
 31.07     764.42
 31.17     732.00
 31.27     752.73
 31.37     632.13
 31.47     600.57
 31.57     634.00
 31.67     658.45
 31.77     627.05
 31.87     600.00
 31.97     627.00
 32.07     618.00
 32.17     569.70
 32.27     634.00
 32.37     552.91
 32.47     629.63
 32.57     601.00
 32.67     561.67
 32.77     582.00
 32.87     639.00
 32.97     612.64
 33.07     632.57
 33.17     618.00
 33.27     611.92
 33.37     633.27
 33.47     656.21
 33.57     570.00
 33.67     683.00
 33.77     717.00
 33.87     770.35
 33.97     862.00
 34.07     906.00
 34.17    1102.00
 34.27    1192.90
 34.37    1142.00
 34.47     971.00
 34.57     865.34
 34.67     774.00
 34.77     659.00
 34.87     599.96
 34.97     628.71
 35.07     599.27
 35.17     627.00
 35.27     618.00
 35.37     563.00
 35.47     605.00
 35.57     539.41
 35.67     595.00
 35.77     598.88
 35.87     548.09
 35.97     557.00
 36.07     541.00
 36.17     589.00
 36.27     573.00
 36.37     556.85
 36.47     598.00
 36.57     615.71
 36.67     534.00
 36.77     543.86
 36.87     570.00
 36.97     592.00
 37.07     598.10
 37.17     547.00
 37.27     585.00
 37.37     561.00
 37.47     565.00
 37.57     575.00
 37.67     609.09
 37.77     653.00
 37.87     601.00
 37.97     605.00
 38.07     649.00
 38.17     693.41
 38.27     683.00
 38.37     688.64
 38.47     670.00
 38.57     681.26
 38.67     637.00
 38.77     567.74
 38.87     570.82
 38.97     531.53
 39.07     589.08
 39.17     569.00
 39.27     565.09
 39.37     553.92
 39.47     526.09
 39.57     548.00
 39.67     546.57
 39.77     518.74
 39.87     546.00
 39.97     561.55
 40.07     517.33
 40.17     553.00
 40.27     534.00
 40.37     593.70
 40.47     522.00
 40.57     547.00
 40.67     529.00
 40.77     537.00
 40.87     531.00
 40.97     512.00
 41.07     569.61
 41.17     553.00
 41.27     585.28
 41.37     576.00
 41.47     589.91
 41.57     580.00
 41.67     567.00
 41.77     592.62
 41.87     602.62
 41.97     539.00
 42.07     609.94
 42.17     540.00
 42.27     555.22
 42.37     620.16
 42.47     568.00
 42.57     610.00
 42.67     544.00
 42.77     615.36
 42.87     698.91
 42.97     707.42
 43.07     645.28
 43.17     642.00
 43.27     579.00
 43.37     623.00
 43.47     567.80
 43.57     593.44
 43.67     563.31
 43.77     571.00
 43.87     518.00
 43.97     556.31
 44.07     521.52
 44.17     557.00
 44.27     571.00
 44.37     640.00
 44.47     572.00
 44.57     589.00
 44.67     605.74
 44.77     613.00
 44.87     524.49
 44.97     568.94
 45.07     586.28
 45.17     556.00
 45.27     589.96
 45.37     573.00
 45.47     580.00
 45.57     529.68
 45.67     547.00
 45.77     544.00
 45.87     531.63
 45.97     573.00
 46.07     532.02
 46.17     524.27
 46.27     558.00
 46.37     590.00
 46.47     594.00
 46.57     602.79
 46.67     523.13
 46.77     566.00
 46.87     568.00
 46.97     585.00
 47.07     516.00
 47.17     573.00
 47.27     579.00
 47.37     588.00
 47.47     597.00
 47.57     542.94
 47.67     657.00
 47.77     594.96
 47.87     571.23
 47.97     668.00
 48.07     673.00
 48.17     586.00
 48.27     645.00
 48.37     680.51
 48.47     602.00
 48.57     593.00
 48.67     603.00
 48.77     611.17
 48.87     588.40
 48.97     649.00
 49.07     610.13
 49.17     610.00
 49.27     623.55
 49.37     638.47
 49.47     630.51
 49.57     659.00
 49.67     712.00
 49.77     744.00
 49.87     859.00
 49.97     982.00
 50.07    1354.00
 50.17    1721.00
 50.27    2247.28
 50.37    2522.00
 50.47    2804.00
 50.57    2697.00
 50.67    2536.00
 50.77    2086.00
 50.87    1675.00
 50.97    1298.00
 51.07     946.00
 51.17     885.00
 51.27     727.31
 51.37     726.00
 51.47     751.38
 51.57     754.00
 51.67     666.00
 51.77     685.00
 51.87     645.11
 51.97     671.00
 52.07     653.00
 52.17     581.43
 52.27     614.96
 52.37     638.00
 52.47     604.00
 52.57     605.00
 52.67     611.00
 52.77     644.52
 52.87     650.00
 52.97     683.00
 53.07     644.52
 53.17     698.00
 53.27     804.00
 53.37     843.00
 53.47     887.00
 53.57    1019.71
 53.67    1152.71
 53.77    1231.00
 53.87    1202.00
 53.97    1256.97
 54.07    1189.00
 54.17    1035.15
 54.27     943.00
 54.37     813.00
 54.47     761.00
 54.57     689.59
 54.67     660.48
 54.77     676.00
 54.87     629.00
 54.97     640.00
 55.07     640.00
 55.17     606.00
 55.27     660.00
 55.37     647.37
 55.47     682.41
 55.57     623.00
 55.67     664.79
 55.77     591.00
 55.87     659.14
 55.97     656.00
 56.07     668.22
 56.17     744.14
 56.27     707.00
 56.37     826.00
 56.47     855.00
 56.57    1032.00
 56.67    1221.40
 56.77    1410.00
 56.87    1749.00
 56.97    2212.00
 57.07    2498.00
 57.17    2630.00
 57.27    2520.97
 57.37    2512.00
 57.47    2208.00
 57.57    1936.00
 57.67    1569.00
 57.77    1242.00
 57.87    1061.19
 57.97     986.00
 58.07     836.00
 58.17     819.00
 58.27     803.00
 58.37     747.00
 58.47     791.00
 58.57     828.00
 58.67     852.66
 58.77     938.00
 58.87     999.25
 58.97    1112.00
 59.07    1160.36
 59.17    1261.00
 59.27    1322.12
 59.37    1326.39
 59.47    1313.00
 59.57    1321.35
 59.67    1240.00
 59.77    1172.32
 59.87    1199.39
 59.97    1172.00
 60.07    1233.00
 60.17    1234.43
 60.27    1269.09
 60.37    1502.00
 60.47    1519.00
 60.57    1605.52
 60.67    1572.26
 60.77    1550.29
 60.87    1410.00
 60.97    1220.37
 61.07    1116.00
 61.17     934.00
 61.27     877.00
 61.37     836.00
 61.47     743.70
 61.57     801.48
 61.67     745.00
 61.77     789.00
 61.87     889.00
 61.97     988.00
 62.07    1094.00
 62.17    1171.00
 62.27    1356.41
 62.37    1492.10
 62.47    1617.64
 62.57    1558.00
 62.67    1570.00
 62.77    1385.65
 62.87    1261.00
 62.97    1141.00
 63.07    1035.00
 63.17     885.00
 63.27     811.00
 63.37     732.25
 63.47     773.66
 63.57     733.00
 63.67     704.36
 63.77     628.64
 63.87     659.00
 63.97     700.00
 64.07     739.00
 64.17     701.00
 64.27     800.00
 64.37     762.29
 64.47     919.00
 64.57     979.00
 64.67    1057.85
 64.77    1092.33
 64.87    1189.01
 64.97    1253.82
 65.07    1332.81
 65.17    1362.00
 65.27    1286.00
 65.37    1254.00
 65.47    1159.00
 65.57    1034.00
 65.67     974.00
 65.77     887.00
 65.87     853.95
 65.97     837.69
 66.07     713.00
 66.17     727.00
 66.27     729.22
 66.37     612.00
 66.47     712.49
 66.57     611.80
 66.67     635.00
 66.77     601.00
 66.87     615.00
 66.97     658.00
 67.07     642.00
 67.17     664.00
 67.27     679.00
 67.37     679.00
 67.47     765.00
 67.57     816.00
 67.67     890.00
 67.77    1085.33
 67.87    1138.96
 67.97    1364.88
 68.07    1598.00
 68.17    1843.00
 68.27    2086.00
 68.37    2319.00
 68.47    2316.70
 68.57    2415.00
 68.67    2415.00
 68.77    2260.00
 68.87    2088.00
 68.97    1760.00
 69.07    1583.00
 69.17    1257.00
 69.27    1151.00
 69.37     951.00
 69.47     915.00
 69.57     843.00
 69.67     768.00
 69.77     746.00
 69.87     704.00
 69.97     693.64
 70.07     690.00
 70.17     645.64
 70.27     595.86
 70.37     645.00
 70.47     663.00
 70.57     672.00
 70.67     655.00
 70.77     644.00
 70.87     651.44
 70.97     673.00
 71.07     670.00
 71.17     707.72
 71.27     679.87
 71.37     709.80
 71.47     747.00
 71.57     864.32
 71.67     898.00
 71.77     982.00
 71.87    1049.66
 71.97    1324.34
 72.07    1390.00
 72.17    1643.82
 72.27    1656.00
 72.37    1904.00
 72.47    1952.90
 72.57    1941.00
 72.67    1879.97
 72.77    1790.00
 72.87    1668.59
 72.97    1476.00
 73.07    1242.00
 73.17    1119.00
 73.27     978.00
 73.37     872.00
 73.47     802.00
 73.57     792.54
 73.67     695.00
 73.77     693.00
 73.87     694.00
 73.97     660.00
 74.07     678.00
 74.17     666.00
 74.27     628.00
 74.37     658.00
 74.47     658.00
 74.57     631.00
 74.67     622.17
 74.77     670.75
 74.87     651.00
 74.97     725.00
 75.07     678.00
 75.17     656.00
 75.27     720.00
 75.37     680.00
 75.47     683.70
 75.57     659.00
 75.67     663.00
 75.77     679.00
 75.87     623.00
 75.97     626.00
 76.07     604.72
 76.17     592.00
 76.27     667.00
 76.37     733.71
 76.47     691.48
 76.57     799.00
 76.67     790.00
 76.77     788.00
 76.87     845.00
 76.97     880.00
 77.07     837.30
 77.17     841.50
 77.27     881.00
 77.37     801.00
 77.47     798.00
 77.57     699.00
 77.67     708.10
 77.77     705.21
 77.87     634.00
 77.97     644.00
 78.07     639.00
 78.17     613.00
 78.27     619.00
 78.37     561.00
 78.47     614.00
 78.57     659.00
 78.67     577.00
 78.77     570.00
 78.87     558.00
 78.97     564.00
 79.07     572.00
 79.17     571.00
 79.27     606.95
 79.37     548.10
 79.47     570.00
 79.57     609.97
 79.67     547.72
 79.77     574.00
 79.87     573.00
 79.97     645.93
 80.07     615.00
 80.17     637.81
 80.27     631.41
 80.37     595.00
 80.47     658.82
 80.57     653.85
 80.67     719.63
 80.77     681.56
 80.87     746.00
 80.97     851.82
 81.07     856.00
 81.17     954.50
 81.27     931.82
 81.37    1011.00
 81.47    1043.29
 81.57    1166.00
 81.67    1170.03
 81.77    1139.00
 81.87    1075.00
 81.97    1110.00
 82.07    1086.00
 82.17    1008.15
 82.27     999.84
 82.37     960.00
 82.47     847.00
 82.57     803.37
 82.67     781.00
 82.77     756.00
 82.87     778.00
 82.97     691.00
 83.07     687.00
 83.17     689.60
 83.27     619.00
 83.37     681.49
 83.47     638.00
 83.57     569.00
 83.67     631.44
 83.77     559.00
 83.87     585.05
 83.97     610.00
 84.07     600.00
 84.17     611.00
 84.27     604.00
 84.37     648.24
 84.47     595.00
 84.57     619.00
 84.67     591.00
 84.77     592.00
 84.87     598.16
 84.97     632.00
 85.07     649.14
 85.17     587.00
 85.27     650.28
 85.37     578.15
 85.47     580.00
 85.57     559.40
 85.67     570.00
 85.77     569.00
 85.87     564.82
 85.97     556.42
 86.07     530.34
 86.17     611.00
 86.27     602.13
 86.37     539.68
 86.47     568.89
 86.57     570.00
 86.67     597.00
 86.77     639.00
 86.87     612.00
 86.97     591.49
 87.07     652.49
 87.17     627.00
 87.27     603.72
 87.37     602.19
 87.47     682.00
 87.57     710.00
 87.67     668.00
 87.77     648.00
 87.87     675.00
 87.97     708.00
 88.07     662.00
 88.17     683.00
 88.27     662.00
 88.37     694.00
 88.47     653.50
 88.57     650.00
 88.67     691.00
 88.77     643.92
 88.87     644.00
 88.97     581.23
 89.07     620.04
 89.17     621.00
 89.27     632.00
 89.37     616.00
 89.47     606.00
 89.57     612.00
 89.67     655.00
 89.77     610.00
 89.87     643.00
 89.97     629.00
 90.07     637.00
 90.17     638.00
 90.27     676.13
 90.37     668.44
 90.47     658.57
 90.57     643.06
 90.67     595.00
 90.77     585.80
 90.87     605.00
 90.97     577.00
 91.07     531.77
 91.17     604.00
 91.27     588.98
 91.37     611.24
 91.47     603.10
 91.57     580.94
 91.67     584.57
 91.77     612.79
 91.87     577.00
 91.97     577.00
 92.07     567.82
 92.17     530.00
 92.27     574.54
 92.37     585.00
 92.47     577.00
 92.57     612.39
 92.67     548.14
 92.77     577.29
 92.87     625.00
 92.97     648.00
 93.07     631.00
 93.17     639.66
 93.27     682.00
 93.37     694.00
 93.47     717.00
 93.57     767.00
 93.67     715.88
 93.77     720.20
 93.87     748.00
 93.97     820.00
 94.07     877.00
 94.17     838.11
 94.27     852.00
 94.37     794.00
 94.47     900.00
 94.57     849.65
 94.67     851.37
 94.77     965.00
 94.87     910.00
 94.97     930.00
 95.07     949.00
 95.17     995.00
 95.27     985.51
 95.37     993.00
 95.47     971.00
 95.57     924.16
 95.67     929.00
 95.77     966.00
 95.87     953.00
 95.97     927.00
 96.07     875.00
 96.17     824.00
 96.27     777.13
 96.37     799.00
 96.47     840.00
 96.57     729.14
 96.67     764.00
 96.77     844.00
 96.87     783.00
 96.97     811.00
 97.07     873.36
 97.17     908.00
 97.27     894.50
 97.37    1065.31
 97.47    1131.00
 97.57    1177.00
 97.67    1315.00
 97.77    1302.00
 97.87    1372.67
 97.97    1460.00
 98.07    1523.00
 98.17    1497.00
 98.27    1573.00
 98.37    1540.47
 98.47    1458.00
 98.57    1416.09
 98.67    1468.79
 98.77    1343.00
 98.87    1257.00
 98.97    1282.00
 99.07    1157.85
 99.17    1139.00
 99.27    1129.10
 99.37     991.00
 99.47     931.00
 99.57     928.00
 99.67     994.00
 99.77     991.34
 99.87     989.00
 99.97     976.97
100.07    1098.00
100.17    1139.22
100.27    1206.39
100.37    1186.87
100.47    1307.33
100.57    1476.00
100.67    1555.00
100.77    1628.00
100.87    1762.00
100.97    1842.00
101.07    1976.00
101.17    1978.91
101.27    1999.00
101.37    1987.00
101.47    2032.13
101.57    2002.59
101.67    2118.00
101.77    1993.80
101.87    1985.00
101.97    1996.00
102.07    1905.00
102.17    1850.13
102.27    1810.38
102.37    1679.00
102.47    1646.00
102.57    1523.00
102.67    1378.00
102.77    1356.67
102.87    1228.00
102.97    1305.00
103.07    1319.04
103.17    1124.00
103.27    1160.00
103.37    1196.00
103.47    1165.00
103.57    1171.89
103.67    1145.00
103.77    1046.59
103.87    1107.72
103.97     967.65
104.07     902.00
104.17     882.12
104.27     919.72
104.37     896.00
104.47     786.00
104.57     799.00
104.67     704.00
104.77     653.10
104.87     752.00
104.97     689.00
105.07     658.00
105.17     649.21
105.27     644.00
105.37     674.00
105.47     583.00
105.57     593.27
105.67     625.00
105.77     590.46
105.87     564.45
105.97     546.00
106.07     536.61
106.17     545.25
106.27     601.54
106.37     592.00
106.47     620.00
106.57     626.00
106.67     611.00
106.77     617.00
106.87     666.00
106.97     576.84
107.07     656.60
107.17     627.00
107.27     627.15
107.37     695.00
107.47     656.00
107.57     718.00
107.67     676.29
107.77     718.00
107.87     744.00
107.97     785.04
108.07     727.00
108.17     732.00
108.27     747.99
108.37     751.45
108.47     730.48
108.57     730.55
108.67     759.00
108.77     729.00
108.87     689.00
108.97     760.13
109.07     703.18
109.17     736.00
109.27     695.00
109.37     726.00
109.47     798.00
109.57     721.48
109.67     787.00
109.77     762.00
109.87     761.00
109.97     752.74
110.07     749.00
110.17     690.00
110.27     683.22
110.37     744.00
110.47     664.00
110.57     664.46
110.67     668.54
110.77     707.00
110.87     666.91
110.97     660.00
111.07     600.00
111.17     618.44
111.27     618.00
111.37     620.00
111.47     592.28
111.57     557.68
111.67     596.00
111.77     604.00
111.87     555.97
111.97     598.00
112.07     579.00
112.17     602.69
112.27     589.00
112.37     574.00
112.47     601.00
112.57     557.00
112.67     551.00
112.77     572.00
112.87     566.00
112.97     553.00
113.07     619.47
113.17     561.00
113.27     582.00
113.37     576.00
113.47     651.00
113.57     591.00
113.67     639.47
113.77     655.87
113.87     615.00
113.97     635.00
114.07     618.00
114.17     638.00
114.27     622.00
114.37     642.91
114.47     695.00
114.57     642.00
114.67     739.00
114.77     817.00
114.87     793.33
114.97     849.00
115.07     945.31
115.17     976.00
115.27    1057.66
115.37    1172.85
115.47    1300.00
115.57    1545.00
115.67    1695.23
115.77    1857.00
115.87    2108.89
115.97    2323.00
116.07    2650.00
116.17    2877.00
116.27    3268.00
116.37    3621.00
116.47    4031.62
116.57    4261.00
116.67    4689.00
116.77    4956.00
116.87    5393.00
116.97    5824.00
117.07    6178.00
117.17    6675.03
117.27    6909.00
117.37    7243.00
117.47    7226.00
117.57    7248.00
117.67    7394.00
117.77    7250.00
117.87    7277.00
117.97    7114.24
118.07    6870.84
118.17    6407.00
118.27    6034.00
118.37    5956.89
118.47    5378.00
118.57    5099.61
118.67    4675.48
118.77    4324.17
118.87    3840.47
118.97    3737.00
119.07    3259.00
119.17    3030.00
119.27    2679.00
119.37    2469.00
119.47    2276.00
119.57    2009.00
119.67    1839.97
119.77    1725.00
119.87    1546.00
119.97    1374.02
120.07    1280.00
120.17    1088.00
120.27    1093.00
120.37     973.73
120.47     923.00
120.57     832.70
120.67     895.00
120.77     779.00
120.87     855.00
120.97     806.00
121.07     804.04
121.17     691.00
121.27     696.00
121.37     702.55
121.47     639.00
121.57     630.00
121.67     687.00
121.77     671.00
121.87     668.00
121.97     679.00
122.07     622.39
122.17     645.00
122.27     647.00
122.37     659.00
122.47     636.00
122.57     670.00
122.67     682.82
122.77     644.00
122.87     720.10
122.97     660.34
123.07     664.00
123.17     674.19
123.27     709.00
123.37     717.00
123.47     694.89
123.57     698.00
123.67     724.00
123.77     763.00
123.87     728.26
123.97     702.00
124.07     706.00
124.17     761.00
124.27     749.00
124.37     715.00
124.47     685.69
124.57     675.51
124.67     764.64
124.77     700.00
124.87     692.00
124.97     733.00
