  9.97     601.00
 10.07     578.00
 10.17     536.24
 10.27     544.64
 10.37     567.00
 10.47     547.20
 10.57     532.39
 10.67     556.00
 10.77     558.22
 10.87     548.00
 10.97     615.11
 11.07     569.09
 11.17     642.00
 11.27     551.00
 11.37     582.13
 11.47     630.00
 11.57     580.00
 11.67     647.00
 11.77     554.04
 11.87     683.00
 11.97     636.00
 12.07     703.21
 12.17     661.59
 12.27     694.00
 12.37     664.00
 12.47     624.00
 12.57     611.00
 12.67     566.00
 12.77     572.00
 12.87     614.00
 12.97     579.00
 13.07     553.00
 13.17     560.00
 13.27     585.00
 13.37     599.00
 13.47     564.00
 13.57     561.00
 13.67     574.00
 13.77     574.46
 13.87     558.00
 13.97     521.00
 14.07     613.36
 14.17     557.00
 14.27     565.71
 14.37     609.96
 14.47     565.47
 14.57     590.00
 14.67     526.52
 14.77     551.00
 14.87     560.03
 14.97     568.00
 15.07     544.00
 15.17     593.00
 15.27     549.00
 15.37     560.00
 15.47     570.00
 15.57     545.98
 15.67     585.00
 15.77     545.63
 15.87     585.50
 15.97     589.00
 16.07     540.68
 16.17     613.77
 16.27     562.00
 16.37     559.00
 16.47     524.00
 16.57     564.00
 16.67     523.60
 16.77     569.00
 16.87     569.64
 16.97     595.11
 17.07     578.00
 17.17     567.00
 17.27     567.00
 17.37     569.00
 17.47     586.01
 17.57     538.00
 17.67     520.56
 17.77     598.00
 17.87     603.00
 17.97     607.68
 18.07     555.08
 18.17     570.12
 18.27     603.00
 18.37     598.89
 18.47     538.38
 18.57     582.00
 18.67     580.00
 18.77     530.00
 18.87     542.00
 18.97     521.08
 19.07     561.00
 19.17     577.00
 19.27     555.00
 19.37     528.77
 19.47     596.17
 19.57     531.00
 19.67     528.90
 19.77     534.00
 19.87     556.00
 19.97     537.24
 20.07     586.89
 20.17     591.00
 20.27     551.00
 20.37     523.19
 20.47     525.00
 20.57     541.00
 20.67     553.00
 20.77     560.50
 20.87     553.54
 20.97     530.00
 21.07     595.82
 21.17     551.00
 21.27     583.32
 21.37     570.00
 21.47     519.00
 21.57     533.00
 21.67     563.00
 21.77     547.00
 21.87     550.00
 21.97     598.58
 22.07     598.57
 22.17     521.00
 22.27     567.00
 22.37     567.00
 22.47     562.00
 22.57     503.00
 22.67     512.81
 22.77     599.00
 22.87     531.31
 22.97     562.00
 23.07     586.99
 23.17     569.00
 23.27     553.00
 23.37     562.00
 23.47     595.00
 23.57     595.32
 23.67     546.27
 23.77     566.00
 23.87     550.00
 23.97     549.00
 24.07     560.00
 24.17     534.00
 24.27     598.90
 24.37     552.00
 24.47     583.00
 24.57     607.00
 24.67     634.00
 24.77     632.00
 24.87     617.70
 24.97     597.44
 25.07     546.66
 25.17     525.40
 25.27     552.00
 25.37     566.00
 25.47     531.00
 25.57     537.00
 25.67     610.00
 25.77     618.00
 25.87     579.46
 25.97     579.00
 26.07     621.00
 26.17     545.00
 26.27     549.00
 26.37     541.00
 26.47     562.00
 26.57     524.00
 26.67     563.00
 26.77     600.00
 26.87     522.00
 26.97     528.21
 27.07     553.00
 27.17     521.13
 27.27     537.00
 27.37     579.00
 27.47     569.00
 27.57     538.00
 27.67     492.00
 27.77     599.00
 27.87     623.00
 27.97     698.00
 28.07     785.17
 28.17     931.00
 28.27     945.91
 28.37     869.00
 28.47     839.00
 28.57     739.51
 28.67     685.59
 28.77     745.00
 28.87     829.04
 28.97     787.00
 29.07     770.68
 29.17     706.59
 29.27     626.00
 29.37     604.00
 29.47     580.00
 29.57     593.88
 29.67     587.00
 29.77     591.00
 29.87     610.00
 29.97     552.00
 30.07     515.21
 30.17     533.11
 30.27     554.00
 30.37     539.40
 30.47     580.64
 30.57     507.36
 30.67     573.53
 30.77     583.00
 30.87     605.00
 30.97     629.00
 31.07     577.00
 31.17     615.89
 31.27     514.00
 31.37     535.00
 31.47     491.39
 31.57     519.00
 31.67     503.31
 31.77     533.99
 31.87     509.40
 31.97     498.00
 32.07     568.00
 32.17     513.96
 32.27     544.35
 32.37     539.00
 32.47     543.95
 32.57     567.00
 32.67     515.00
 32.77     526.76
 32.87     542.00
 32.97     541.23
 33.07     552.00
 33.17     591.00
 33.27     510.00
 33.37     540.14
 33.47     530.00
 33.57     557.82
 33.67     612.93
 33.77     748.00
 33.87     922.46
 33.97     988.00
 34.07    1099.00
 34.17    1007.00
 34.27     941.38
 34.37     801.08
 34.47     640.00
 34.57     570.00
 34.67     513.26
 34.77     569.19
 34.87     562.20
 34.97     519.00
 35.07     516.00
 35.17     474.00
 35.27     482.69
 35.37     483.00
 35.47     504.00
 35.57     540.00
 35.67     554.79
 35.77     537.60
 35.87     517.23
 35.97     540.00
 36.07     518.00
 36.17     482.61
 36.27     509.73
 36.37     513.29
 36.47     512.90
 36.57     548.71
 36.67     531.00
 36.77     467.00
 36.87     543.00
 36.97     514.00
 37.07     527.00
 37.17     551.43
 37.27     515.00
 37.37     520.00
 37.47     554.00
 37.57     506.00
 37.67     556.00
 37.77     501.00
 37.87     554.00
 37.97     557.38
 38.07     546.60
 38.17     517.00
 38.27     534.55
 38.37     513.00
 38.47     516.00
 38.57     493.00
 38.67     504.00
 38.77     483.26
 38.87     479.00
 38.97     507.00
 39.07     521.37
 39.17     531.00
 39.27     544.68
 39.37     528.98
 39.47     511.33
 39.57     515.00
 39.67     487.00
 39.77     469.00
 39.87     518.00
 39.97     517.00
 40.07     467.92
 40.17     460.00
 40.27     477.00
 40.37     470.00
 40.47     530.00
 40.57     491.28
 40.67     501.09
 40.77     476.30
 40.87     489.82
 40.97     501.00
 41.07     475.48
 41.17     515.32
 41.27     488.00
 41.37     500.00
 41.47     529.43
 41.57     483.00
 41.67     451.00
 41.77     440.00
 41.87     534.85
 41.97     509.00
 42.07     513.00
 42.17     487.00
 42.27     564.76
 42.37     553.51
 42.47     570.00
 42.57     582.00
 42.67     603.54
 42.77     588.28
 42.87     630.00
 42.97     557.18
 43.07     575.75
 43.17     537.00
 43.27     478.00
 43.37     492.00
 43.47     498.00
 43.57     540.00
 43.67     481.00
 43.77     480.00
 43.87     504.00
 43.97     512.00
 44.07     468.00
 44.17     518.88
 44.27     502.44
 44.37     522.00
 44.47     522.00
 44.57     511.00
 44.67     524.02
 44.77     468.00
 44.87     500.00
 44.97     491.34
 45.07     476.00
 45.17     486.33
 45.27     537.80
 45.37     468.64
 45.47     517.00
 45.57     535.00
 45.67     471.03
 45.77     483.03
 45.87     476.00
 45.97     516.00
 46.07     482.00
 46.17     523.00
 46.27     487.00
 46.37     525.00
 46.47     505.00
 46.57     505.00
 46.67     520.07
 46.77     502.00
 46.87     535.00
 46.97     547.00
 47.07     510.00
 47.17     496.00
 47.27     544.40
 47.37     547.00
 47.47     515.00
 47.57     561.00
 47.67     524.97
 47.77     620.00
 47.87     573.59
 47.97     611.00
 48.07     563.00
 48.17     549.00
 48.27     582.50
 48.37     540.37
 48.47     529.00
 48.57     495.90
 48.67     528.00
 48.77     515.00
 48.87     536.00
 48.97     534.21
 49.07     551.00
 49.17     599.00
 49.27     625.00
 49.37     651.35
 49.47     728.00
 49.57     794.23
 49.67     886.00
 49.77    1102.83
 49.87    1456.00
 49.97    1896.00
 50.07    2157.00
 50.17    2511.64
 50.27    2518.00
 50.37    2267.00
 50.47    1845.00
 50.57    1399.00
 50.67    1113.70
 50.77     881.73
 50.87     683.68
 50.97     650.00
 51.07     683.00
 51.17     611.00
 51.27     614.05
 51.37     605.00
 51.47     545.24
 51.57     552.14
 51.67     543.70
 51.77     536.00
 51.87     548.00
 51.97     536.13
 52.07     555.00
 52.17     576.00
 52.27     512.90
 52.37     530.85
 52.47     569.00
 52.57     536.00
 52.67     591.00
 52.77     581.00
 52.87     643.00
 52.97     775.00
 53.07     819.00
 53.17     928.00
 53.27    1034.56
 53.37    1120.96
 53.47    1218.00
 53.57    1197.00
 53.67    1031.00
 53.77    1003.00
 53.87     905.84
 53.97     765.00
 54.07     677.00
 54.17     579.41
 54.27     594.36
 54.37     580.00
 54.47     602.00
 54.57     516.00
 54.67     513.26
 54.77     527.00
 54.87     557.00
 54.97     538.00
 55.07     583.58
 55.17     570.97
 55.27     552.62
 55.37     542.00
 55.47     534.70
 55.57     595.52
 55.67     585.00
 55.77     584.00
 55.87     579.00
 55.97     636.00
 56.07     691.00
 56.17     729.04
 56.27     909.95
 56.37    1150.37
 56.47    1409.00
 56.57    1872.24
 56.67    2148.00
 56.77    2436.00
 56.87    2624.82
 56.97    2568.00
 57.07    2370.30
 57.17    2085.15
 57.27    1747.00
 57.37    1226.59
 57.47    1034.00
 57.57     814.00
 57.67     717.53
 57.77     737.88
 57.87     683.00
 57.97     703.29
 58.07     697.00
 58.17     735.00
 58.27     765.00
 58.37     848.00
 58.47     972.00
 58.57    1029.00
 58.67    1182.00
 58.77    1342.00
 58.87    1430.00
 58.97    1559.04
 59.07    1577.00
 59.17    1504.16
 59.27    1338.34
 59.37    1359.00
 59.47    1265.80
 59.57    1224.69
 59.67    1172.00
 59.77    1192.33
 59.87    1164.28
 59.97    1286.00
 60.07    1389.12
 60.17    1534.00
 60.27    1643.00
 60.37    1534.00
 60.47    1446.00
 60.57    1329.00
 60.67    1028.00
 60.77     853.07
 60.87     795.00
 60.97     680.01
 61.07     662.00
 61.17     628.00
 61.27     596.00
 61.37     641.00
 61.47     671.00
 61.57     727.00
 61.67     838.00
 61.77     978.00
 61.87    1049.00
 61.97    1251.00
 62.07    1382.00
 62.17    1345.00
 62.27    1334.00
 62.37    1299.00
 62.47    1145.00
 62.57    1077.00
 62.67     956.00
 62.77     801.00
 62.87     655.00
 62.97     570.00
 63.07     582.17
 63.17     596.00
 63.27     530.36
 63.37     539.00
 63.47     538.99
 63.57     567.00
 63.67     566.56
 63.77     585.37
 63.87     604.04
 63.97     684.00
 64.07     739.00
 64.17     790.00
 64.27     776.49
 64.37     907.00
 64.47     981.00
 64.57     940.00
 64.67     965.79
 64.77     994.00
 64.87     944.00
 64.97     862.00
 65.07     798.00
 65.17     741.00
 65.27     767.00
 65.37     656.66
 65.47     693.81
 65.57     658.00
 65.67     569.52
 65.77     624.00
 65.87     583.00
 65.97     554.00
 66.07     540.00
 66.17     546.64
 66.27     541.00
 66.37     531.00
 66.47     545.57
 66.57     550.32
 66.67     589.80
 66.77     559.03
 66.87     581.39
 66.97     577.03
 67.07     619.46
 67.17     731.00
 67.27     754.00
 67.37     887.43
 67.47    1045.00
 67.57    1285.00
 67.67    1514.67
 67.77    1827.28
 67.87    2018.76
 67.97    2235.94
 68.07    2450.78
 68.17    2485.21
 68.27    2266.00
 68.37    2105.00
 68.47    1714.89
 68.57    1563.00
 68.67    1221.67
 68.77    1046.00
 68.87     832.00
 68.97     795.77
 69.07     736.01
 69.17     652.21
 69.27     638.08
 69.37     563.00
 69.47     601.00
 69.57     550.00
 69.67     551.00
 69.77     564.47
 69.87     590.00
 69.97     601.61
 70.07     576.00
 70.17     546.26
 70.27     565.00
 70.37     575.00
 70.47     574.00
 70.57     611.00
 70.67     547.94
 70.77     551.87
 70.87     617.00
 70.97     612.97
 71.07     671.05
 71.17     715.00
 71.27     793.00
 71.37     919.00
 71.47    1143.84
 71.57    1212.00
 71.67    1430.75
 71.77    1579.00
 71.87    1727.76
 71.97    1844.00
 72.07    1910.00
 72.17    1897.00
 72.27    1748.50
 72.37    1664.00
 72.47    1560.00
 72.57    1355.00
 72.67    1127.02
 72.77    1097.60
 72.87     974.52
 72.97     828.00
 73.07     775.00
 73.17     743.00
 73.27     713.00
 73.37     661.00
 73.47     704.54
 73.57     601.00
 73.67     550.00
 73.77     576.00
 73.87     612.51
 73.97     575.18
 74.07     574.00
 74.17     556.00
 74.27     549.33
 74.37     631.00
 74.47     615.00
 74.57     636.00
 74.67     569.72
 74.77     641.00
 74.87     670.00
 74.97     534.55
 75.07     568.01
 75.17     602.00
 75.27     524.00
 75.37     527.00
 75.47     546.00
 75.57     536.56
 75.67     541.00
 75.77     542.25
 75.87     597.21
 75.97     576.00
 76.07     622.00
 76.17     659.00
 76.27     643.00
 76.37     725.13
 76.47     693.00
 76.57     719.00
 76.67     721.00
 76.77     737.31
 76.87     689.00
 76.97     641.00
 77.07     649.00
 77.17     600.41
 77.27     543.00
 77.37     599.93
 77.47     533.00
 77.57     567.12
 77.67     544.97
 77.77     499.28
 77.87     539.00
 77.97     511.00
 78.07     492.00
 78.17     486.62
 78.27     518.91
 78.37     483.00
 78.47     560.00
 78.57     509.00
 78.67     493.00
 78.77     567.00
 78.87     539.06
 78.97     520.00
 79.07     549.00
 79.17     519.00
 79.27     550.00
 79.37     532.00
 79.47     543.67
 79.57     528.00
 79.67     502.00
 79.77     548.66
 79.87     525.76
 79.97     530.00
 80.07     524.00
 80.17     524.80
 80.27     589.00
 80.37     557.85
 80.47     552.00
 80.57     570.00
 80.67     616.42
 80.77     672.48
 80.87     667.36
 80.97     697.63
 81.07     698.15
 81.17     777.15
 81.27     775.99
 81.37     698.00
 81.47     766.00
 81.57     742.00
 81.67     760.00
 81.77     706.00
 81.87     735.00
 81.97     739.44
 82.07     693.78
 82.17     653.39
 82.27     611.01
 82.37     632.00
 82.47     627.05
 82.57     613.00
 82.67     575.00
 82.77     549.00
 82.87     604.98
 82.97     597.17
 83.07     535.00
 83.17     533.00
 83.27     569.00
 83.37     536.34
 83.47     548.00
 83.57     534.71
 83.67     538.26
 83.77     582.00
 83.87     600.79
 83.97     553.66
 84.07     529.00
 84.17     612.08
 84.27     541.00
 84.37     591.00
 84.47     591.98
 84.57     575.76
 84.67     546.00
 84.77     547.00
 84.87     581.30
 84.97     545.00
 85.07     570.00
 85.17     537.00
 85.27     511.00
 85.37     557.10
 85.47     558.00
 85.57     520.00
 85.67     515.00
 85.77     508.06
 85.87     544.00
 85.97     519.00
 86.07     568.53
 86.17     505.95
 86.27     580.00
 86.37     535.00
 86.47     524.00
 86.57     559.97
 86.67     578.12
 86.77     576.25
 86.87     618.66
 86.97     582.63
 87.07     603.00
 87.17     609.00
 87.27     666.08
 87.37     645.28
 87.47     590.34
 87.57     677.03
 87.67     665.85
 87.77     569.47
 87.87     651.00
 87.97     631.18
 88.07     614.81
 88.17     565.00
 88.27     605.78
 88.37     550.00
 88.47     604.00
 88.57     556.00
 88.67     557.00
 88.77     603.30
 88.87     602.00
 88.97     546.22
 89.07     546.11
 89.17     613.89
 89.27     650.00
 89.37     586.00
 89.47     561.07
 89.57     666.00
 89.67     567.00
 89.77     598.00
 89.87     567.15
 89.97     562.00
 90.07     549.00
 90.17     596.07
 90.27     546.00
 90.37     554.99
 90.47     566.02
 90.57     538.00
 90.67     509.00
 90.77     492.51
 90.87     572.35
 90.97     540.47
 91.07     496.88
 91.17     520.68
 91.27     497.99
 91.37     517.00
 91.47     526.00
 91.57     523.00
 91.67     583.00
 91.77     569.36
 91.87     530.27
 91.97     563.00
 92.07     528.00
 92.17     535.20
 92.27     536.00
 92.37     633.00
 92.47     623.00
 92.57     663.78
 92.67     631.61
 92.77     693.00
 92.87     748.13
 92.97     783.00
 93.07     748.00
 93.17     795.00
 93.27     781.00
 93.37     853.00
 93.47     814.73
 93.57     808.02
 93.67     867.30
 93.77     819.68
 93.87     844.00
 93.97     784.39
 94.07     897.00
 94.17     865.00
 94.27     825.00
 94.37     891.77
 94.47     859.74
 94.57     891.89
 94.67     952.00
 94.77     920.00
 94.87     932.00
 94.97     842.84
 95.07     915.00
 95.17     897.00
 95.27     830.26
 95.37     746.00
 95.47     727.00
 95.57     710.00
 95.67     740.00
 95.77     665.18
 95.87     695.00
 95.97     669.00
 96.07     654.68
 96.17     716.00
 96.27     703.12
 96.37     760.00
 96.47     885.00
 96.57     814.16
 96.67     866.00
 96.77    1000.00
 96.87    1021.56
 96.97    1106.80
 97.07    1229.00
 97.17    1350.00
 97.27    1321.00
 97.37    1419.00
 97.47    1379.00
 97.57    1438.00
 97.67    1406.00
 97.77    1358.38
 97.87    1406.73
 97.97    1242.00
 98.07    1218.00
 98.17    1191.84
 98.27    1105.00
 98.37     972.41
 98.47     934.25
 98.57     910.00
 98.67     848.00
 98.77     866.35
 98.87     762.13
 98.97     815.00
 99.07     769.72
 99.17     847.00
 99.27     889.00
 99.37     940.00
 99.47    1013.00
 99.57    1101.61
 99.67    1200.00
 99.77    1250.00
 99.87    1479.00
 99.97    1481.00
100.07    1724.00
100.17    1747.00
100.27    1822.00
100.37    1980.00
100.47    1989.00
100.57    2128.00
100.67    1983.00
100.77    2096.00
100.87    2150.44
100.97    1950.91
101.07    2047.00
101.17    1929.59
101.27    1777.00
101.37    1746.00
101.47    1564.00
101.57    1566.00
101.67    1462.28
101.77    1354.15
101.87    1377.15
101.97    1252.00
102.07    1205.00
102.17    1213.69
102.27    1117.90
102.37    1180.24
102.47    1122.00
102.57    1085.21
102.67    1057.00
102.77    1082.50
102.87    1011.00
102.97     964.00
103.07     937.00
103.17     859.00
103.27     869.00
103.37     821.00
103.47     742.98
103.57     744.00
103.67     702.00
103.77     716.00
103.87     616.00
103.97     596.16
104.07     622.00
104.17     592.00
104.27     582.00
104.37     520.02
104.47     602.00
104.57     546.00
104.67     536.47
104.77     529.00
104.87     554.00
104.97     502.99
105.07     540.00
105.17     492.84
105.27     538.00
105.37     509.91
105.47     545.00
105.57     519.00
105.67     538.00
105.77     539.95
105.87     538.00
105.97     604.50
106.07     558.51
106.17     593.00
106.27     579.03
106.37     596.00
106.47     585.88
106.57     581.00
106.67     650.00
106.77     647.00
106.87     620.89
106.97     635.52
107.07     681.00
107.17     695.00
107.27     677.00
107.37     696.00
107.47     706.00
107.57     744.00
107.67     694.00
107.77     644.00
107.87     686.25
107.97     656.00
108.07     685.00
108.17     698.00
108.27     677.00
108.37     658.57
108.47     658.00
108.57     667.00
108.67     673.00
108.77     709.00
108.87     701.00
108.97     655.00
109.07     691.00
109.17     705.44
109.27     652.00
109.37     631.54
109.47     670.00
109.57     660.05
109.67     603.23
109.77     598.64
109.87     662.00
109.97     557.39
110.07     568.46
110.17     551.07
110.27     617.00
110.37     588.72
110.47     561.00
110.57     564.00
110.67     518.00
110.77     501.65
110.87     571.00
110.97     539.38
111.07     564.65
111.17     565.00
111.27     522.00
111.37     531.00
111.47     540.00
111.57     565.65
111.67     533.67
111.77     573.14
111.87     571.00
111.97     530.00
112.07     612.57
112.17     583.00
112.27     580.00
112.37     563.12
112.47     618.00
112.57     638.90
112.67     632.00
112.77     594.18
112.87     665.64
112.97     597.00
113.07     709.00
113.17     717.00
113.27     726.00
113.37     708.87
113.47     748.00
113.57     802.00
113.67     819.00
113.77     884.00
113.87     929.00
113.97     972.00
114.07    1033.42
114.17    1071.00
114.27    1082.72
114.37    1228.00
114.47    1281.00
114.57    1428.00
114.67    1548.00
114.77    1693.00
114.87    1881.00
114.97    2107.00
115.07    2302.17
115.17    2636.00
115.27    2767.00
115.37    3101.72
115.47    3363.00
115.57    3816.00
115.67    4291.80
115.77    4508.00
115.87    4787.00
115.97    5340.00
116.07    5812.26
116.17    6042.00
116.27    6355.00
116.37    6591.00
116.47    6600.86
116.57    6841.41
116.67    6916.00
116.77    6996.86
116.87    6785.00
116.97    6711.00
117.07    6274.00
117.17    6225.00
117.27    5559.00
117.37    5547.53
117.47    5050.00
117.57    4655.00
117.67    4289.00
117.77    3923.00
117.87    3639.00
117.97    3313.00
118.07    2954.00
118.17    2540.00
118.27    2182.00
118.37    2008.00
118.47    1746.00
118.57    1549.00
118.67    1341.00
118.77    1217.00
118.87    1110.00
118.97    1094.14
119.07     986.35
119.17     912.00
119.27     840.00
119.37     749.00
119.47     735.21
119.57     715.53
119.67     627.00
119.77     659.00
119.87     628.53
119.97     627.00
120.07     608.00
120.17     600.00
120.27     559.14
120.37     621.98
120.47     560.00
120.57     583.00
120.67     612.48
120.77     553.00
120.87     560.00
120.97     571.00
121.07     554.00
121.17     539.00
121.27     565.69
121.37     595.00
121.47     606.00
121.57     602.00
121.67     617.38
121.77     622.17
121.87     575.12
121.97     603.00
122.07     631.00
122.17     650.00
122.27     632.00
122.37     648.00
122.47     579.00
122.57     628.00
122.67     653.00
122.77     629.00
122.87     626.00
122.97     623.83
123.07     645.00
123.17     678.00
123.27     659.08
123.37     668.00
123.47     714.00
123.57     627.00
123.67     630.00
123.77     586.00
123.87     641.00
123.97     633.41
124.07     655.00
124.17     594.00
124.27     610.00
124.37     615.76
124.47     566.00
124.57     560.58
124.67     564.03
124.77     588.00
124.87     608.79
124.97     590.00
