  9.97     595.00
 10.07     587.00
 10.17     566.00
 10.27     584.00
 10.37     556.23
 10.47     539.00
 10.57     624.00
 10.67     586.00
 10.77     608.00
 10.87     560.70
 10.97     560.00
 11.07     544.00
 11.17     543.00
 11.27     552.00
 11.37     538.40
 11.47     562.62
 11.57     581.01
 11.67     526.81
 11.77     635.00
 11.87     658.00
 11.97     599.00
 12.07     617.89
 12.17     706.00
 12.27     647.72
 12.37     649.00
 12.47     645.00
 12.57     624.16
 12.67     553.61
 12.77     586.71
 12.87     559.00
 12.97     557.00
 13.07     580.68
 13.17     551.00
 13.27     579.00
 13.37     554.00
 13.47     527.00
 13.57     536.19
 13.67     546.10
 13.77     497.00
 13.87     540.00
 13.97     556.00
 14.07     514.00
 14.17     490.00
 14.27     547.05
 14.37     536.00
 14.47     591.84
 14.57     540.69
 14.67     574.00
 14.77     602.89
 14.87     571.11
 14.97     524.00
 15.07     532.41
 15.17     570.20
 15.27     511.00
 15.37     564.00
 15.47     521.45
 15.57     549.00
 15.67     561.16
 15.77     561.00
 15.87     516.83
 15.97     558.00
 16.07     514.59
 16.17     599.55
 16.27     545.65
 16.37     577.00
 16.47     556.00
 16.57     552.36
 16.67     534.40
 16.77     564.00
 16.87     528.00
 16.97     536.00
 17.07     583.00
 17.17     583.43
 17.27     556.00
 17.37     558.47
 17.47     555.00
 17.57     520.19
 17.67     577.00
 17.77     572.00
 17.87     547.00
 17.97     532.00
 18.07     519.00
 18.17     595.19
 18.27     592.22
 18.37     588.00
 18.47     577.45
 18.57     561.00
 18.67     579.15
 18.77     549.00
 18.87     569.00
 18.97     519.30
 19.07     523.00
 19.17     545.00
 19.27     556.00
 19.37     559.00
 19.47     532.00
 19.57     580.00
 19.67     557.00
 19.77     567.79
 19.87     561.98
 19.97     534.60
 20.07     524.00
 20.17     546.00
 20.27     553.00
 20.37     566.00
 20.47     589.49
 20.57     546.00
 20.67     558.00
 20.77     529.00
 20.87     569.00
 20.97     558.00
 21.07     557.69
 21.17     529.19
 21.27     592.35
 21.37     579.00
 21.47     520.00
 21.57     591.01
 21.67     516.27
 21.77     541.00
 21.87     551.00
 21.97     547.00
 22.07     582.44
 22.17     553.00
 22.27     579.95
 22.37     513.30
 22.47     527.00
 22.57     568.00
 22.67     523.67
 22.77     584.89
 22.87     550.00
 22.97     568.00
 23.07     580.65
 23.17     538.00
 23.27     512.00
 23.37     559.42
 23.47     574.00
 23.57     521.61
 23.67     582.00
 23.77     575.00
 23.87     542.77
 23.97     554.00
 24.07     514.13
 24.17     599.00
 24.27     559.00
 24.37     614.00
 24.47     561.40
 24.57     547.96
 24.67     646.00
 24.77     608.00
 24.87     647.97
 24.97     645.00
 25.07     584.51
 25.17     549.00
 25.27     528.52
 25.37     583.74
 25.47     605.00
 25.57     569.00
 25.67     582.00
 25.77     567.18
 25.87     540.00
 25.97     584.00
 26.07     548.00
 26.17     568.27
 26.27     522.00
 26.37     585.00
 26.47     543.00
 26.57     572.00
 26.67     511.56
 26.77     587.00
 26.87     560.00
 26.97     545.00
 27.07     525.17
 27.17     554.58
 27.27     529.00
 27.37     590.00
 27.47     586.00
 27.57     553.00
 27.67     617.00
 27.77     563.00
 27.87     653.00
 27.97     644.00
 28.07     774.31
 28.17     840.00
 28.27     942.00
 28.37     885.00
 28.47     769.68
 28.57     755.58
 28.67     725.90
 28.77     738.00
 28.87     838.78
 28.97     761.00
 29.07     782.78
 29.17     688.00
 29.27     655.00
 29.37     578.00
 29.47     535.31
 29.57     554.56
 29.67     565.98
 29.77     572.00
 29.87     556.00
 29.97     557.00
 30.07     538.00
 30.17     544.52
 30.27     597.00
 30.37     560.00
 30.47     557.08
 30.57     553.53
 30.67     581.00
 30.77     603.00
 30.87     642.00
 30.97     635.95
 31.07     592.00
 31.17     597.00
 31.27     551.48
 31.37     541.24
 31.47     504.11
 31.57     540.00
 31.67     559.00
 31.77     515.00
 31.87     523.34
 31.97     531.30
 32.07     556.00
 32.17     518.00
 32.27     545.47
 32.37     555.00
 32.47     540.12
 32.57     571.61
 32.67     555.00
 32.77     486.00
 32.87     527.00
 32.97     503.84
 33.07     503.00
 33.17     512.54
 33.27     576.37
 33.37     518.56
 33.47     595.00
 33.57     594.00
 33.67     637.00
 33.77     681.41
 33.87     814.00
 33.97     952.00
 34.07    1070.80
 34.17    1085.00
 34.27     892.82
 34.37     779.00
 34.47     756.09
 34.57     673.00
 34.67     587.00
 34.77     566.44
 34.87     529.00
 34.97     533.00
 35.07     556.58
 35.17     504.00
 35.27     556.23
 35.37     535.00
 35.47     497.00
 35.57     533.00
 35.67     512.00
 35.77     489.52
 35.87     522.00
 35.97     472.00
 36.07     490.00
 36.17     501.49
 36.27     492.00
 36.37     517.00
 36.47     523.00
 36.57     485.00
 36.67     523.17
 36.77     524.00
 36.87     510.43
 36.97     496.43
 37.07     481.00
 37.17     518.83
 37.27     539.86
 37.37     527.00
 37.47     489.71
 37.57     540.00
 37.67     497.78
 37.77     564.02
 37.87     520.00
 37.97     481.54
 38.07     507.00
 38.17     524.00
 38.27     496.00
 38.37     527.95
 38.47     534.00
 38.57     477.00
 38.67     514.00
 38.77     523.00
 38.87     484.00
 38.97     454.00
 39.07     503.00
 39.17     480.00
 39.27     468.00
 39.37     534.00
 39.47     487.00
 39.57     541.56
 39.67     515.56
 39.77     527.00
 39.87     494.00
 39.97     508.35
 40.07     461.14
 40.17     491.00
 40.27     494.00
 40.37     496.28
 40.47     513.00
 40.57     509.00
 40.67     475.00
 40.77     490.00
 40.87     517.61
 40.97     521.00
 41.07     514.00
 41.17     469.00
 41.27     471.00
 41.37     477.00
 41.47     506.00
 41.57     487.00
 41.67     466.00
 41.77     530.02
 41.87     507.00
 41.97     480.00
 42.07     521.05
 42.17     541.17
 42.27     495.47
 42.37     484.00
 42.47     546.00
 42.57     609.00
 42.67     575.00
 42.77     596.00
 42.87     552.00
 42.97     608.00
 43.07     532.06
 43.17     502.14
 43.27     502.92
 43.37     552.49
 43.47     569.00
 43.57     465.00
 43.67     513.00
 43.77     500.00
 43.87     497.00
 43.97     513.23
 44.07     477.00
 44.17     452.25
 44.27     507.00
 44.37     470.00
 44.47     492.00
 44.57     511.00
 44.67     475.00
 44.77     502.00
 44.87     496.00
 44.97     496.00
 45.07     502.64
 45.17     468.00
 45.27     455.07
 45.37     518.00
 45.47     535.02
 45.57     496.00
 45.67     452.00
 45.77     509.00
 45.87     475.00
 45.97     497.06
 46.07     448.00
 46.17     457.41
 46.27     497.16
 46.37     460.00
 46.47     534.50
 46.57     504.48
 46.67     463.00
 46.77     468.00
 46.87     500.31
 46.97     482.00
 47.07     504.00
 47.17     536.49
 47.27     533.00
 47.37     564.00
 47.47     554.79
 47.57     510.68
 47.67     519.00
 47.77     600.98
 47.87     553.33
 47.97     576.00
 48.07     583.00
 48.17     574.00
 48.27     545.00
 48.37     530.43
 48.47     525.00
 48.57     572.00
 48.67     528.00
 48.77     546.92
 48.87     538.00
 48.97     505.00
 49.07     586.00
 49.17     529.09
 49.27     582.05
 49.37     606.82
 49.47     590.00
 49.57     716.33
 49.67     824.37
 49.77    1003.43
 49.87    1202.20
 49.97    1579.41
 50.07    1926.54
 50.17    2313.56
 50.27    2426.65
 50.37    2293.00
 50.47    2011.28
 50.57    1620.00
 50.67    1217.14
 50.77     989.00
 50.87     782.19
 50.97     734.00
 51.07     693.18
 51.17     643.00
 51.27     646.00
 51.37     598.00
 51.47     578.73
 51.57     541.00
 51.67     547.00
 51.77     569.00
 51.87     527.00
 51.97     534.00
 52.07     558.00
 52.17     503.00
 52.27     507.86
 52.37     497.68
 52.47     574.00
 52.57     559.00
 52.67     531.77
 52.77     573.79
 52.87     583.76
 52.97     679.00
 53.07     798.00
 53.17     817.00
 53.27     892.14
 53.37    1085.00
 53.47    1165.00
 53.57    1157.00
 53.67    1211.00
 53.77    1084.00
 53.87     987.00
 53.97     844.00
 54.07     773.00
 54.17     707.25
 54.27     605.00
 54.37     587.00
 54.47     611.59
 54.57     585.65
 54.67     529.95
 54.77     592.00
 54.87     562.00
 54.97     562.00
 55.07     570.00
 55.17     578.28
 55.27     596.00
 55.37     537.00
 55.47     584.00
 55.57     546.00
 55.67     607.00
 55.77     659.00
 55.87     606.86
 55.97     603.00
 56.07     738.20
 56.17     757.00
 56.27     875.16
 56.37    1056.00
 56.47    1311.00
 56.57    1574.00
 56.67    1914.00
 56.77    2223.00
 56.87    2563.00
 56.97    2515.00
 57.07    2379.83
 57.17    2117.28
 57.27    1817.61
 57.37    1517.00
 57.47    1274.00
 57.57     999.00
 57.67     886.00
 57.77     785.32
 57.87     758.00
 57.97     703.00
 58.07     743.00
 58.17     688.00
 58.27     725.00
 58.37     730.00
 58.47     785.00
 58.57     882.00
 58.67     925.00
 58.77    1149.00
 58.87    1164.00
 58.97    1287.00
 59.07    1241.89
 59.17    1352.45
 59.27    1270.00
 59.37    1327.00
 59.47    1230.00
 59.57    1107.22
 59.67    1130.00
 59.77    1193.00
 59.87    1233.00
 59.97    1243.38
 60.07    1354.41
 60.17    1496.00
 60.27    1469.74
 60.37    1594.00
 60.47    1489.00
 60.57    1275.28
 60.67    1182.87
 60.77    1016.47
 60.87     867.00
 60.97     760.00
 61.07     704.00
 61.17     706.00
 61.27     630.00
 61.37     616.83
 61.47     714.00
 61.57     751.69
 61.67     759.28
 61.77     893.41
 61.87    1072.63
 61.97    1083.00
 62.07    1308.74
 62.17    1367.00
 62.27    1436.53
 62.37    1322.00
 62.47    1239.71
 62.57    1147.82
 62.67    1011.00
 62.77     927.34
 62.87     740.00
 62.97     711.00
 63.07     626.00
 63.17     566.86
 63.27     589.13
 63.37     548.00
 63.47     611.51
 63.57     631.00
 63.67     588.00
 63.77     578.00
 63.87     641.29
 63.97     649.00
 64.07     695.00
 64.17     713.38
 64.27     809.00
 64.37     859.00
 64.47     930.00
 64.57     979.00
 64.67    1018.20
 64.77    1028.00
 64.87     934.00
 64.97     966.00
 65.07     883.00
 65.17     840.00
 65.27     768.00
 65.37     751.00
 65.47     665.00
 65.57     657.87
 65.67     594.00
 65.77     607.00
 65.87     549.00
 65.97     569.41
 66.07     564.42
 66.17     590.00
 66.27     512.00
 66.37     545.00
 66.47     573.00
 66.57     579.51
 66.67     562.00
 66.77     549.71
 66.87     597.00
 66.97     591.46
 67.07     643.00
 67.17     684.73
 67.27     744.00
 67.37     851.50
 67.47    1009.33
 67.57    1123.00
 67.67    1406.31
 67.77    1586.00
 67.87    1890.00
 67.97    2143.00
 68.07    2291.00
 68.17    2332.00
 68.27    2207.00
 68.37    2253.00
 68.47    2060.00
 68.57    1827.00
 68.67    1464.00
 68.77    1342.00
 68.87    1118.00
 68.97     890.21
 69.07     756.74
 69.17     732.00
 69.27     688.00
 69.37     638.66
 69.47     648.00
 69.57     602.57
 69.67     577.00
 69.77     570.00
 69.87     572.00
 69.97     570.00
 70.07     587.00
 70.17     564.00
 70.27     598.87
 70.37     571.28
 70.47     601.00
 70.57     572.00
 70.67     611.04
 70.77     619.00
 70.87     610.00
 70.97     684.13
 71.07     652.00
 71.17     721.00
 71.27     746.00
 71.37     921.00
 71.47    1049.86
 71.57    1121.00
 71.67    1285.00
 71.77    1482.28
 71.87    1656.00
 71.97    1749.00
 72.07    1837.00
 72.17    1932.00
 72.27    1778.96
 72.37    1693.00
 72.47    1519.14
 72.57    1499.00
 72.67    1204.00
 72.77    1100.00
 72.87     966.00
 72.97     817.00
 73.07     775.00
 73.17     753.00
 73.27     646.28
 73.37     701.00
 73.47     632.00
 73.57     591.00
 73.67     647.46
 73.77     556.00
 73.87     561.00
 73.97     555.00
 74.07     580.40
 74.17     629.00
 74.27     545.00
 74.37     566.03
 74.47     638.00
 74.57     536.68
 74.67     670.00
 74.77     622.00
 74.87     531.07
 74.97     527.85
 75.07     548.72
 75.17     604.00
 75.27     619.00
 75.37     509.00
 75.47     574.00
 75.57     556.00
 75.67     541.00
 75.77     595.00
 75.87     565.32
 75.97     651.00
 76.07     596.00
 76.17     627.00
 76.27     643.00
 76.37     648.99
 76.47     728.43
 76.57     672.26
 76.67     697.57
 76.77     683.00
 76.87     628.00
 76.97     667.00
 77.07     633.00
 77.17     637.00
 77.27     624.63
 77.37     573.19
 77.47     530.44
 77.57     529.00
 77.67     496.00
 77.77     497.00
 77.87     527.00
 77.97     531.00
 78.07     564.18
 78.17     517.00
 78.27     507.21
 78.37     509.00
 78.47     506.96
 78.57     492.00
 78.67     481.00
 78.77     530.08
 78.87     509.00
 78.97     489.98
 79.07     511.51
 79.17     506.00
 79.27     575.00
 79.37     498.92
 79.47     545.00
 79.57     535.00
 79.67     534.00
 79.77     491.00
 79.87     506.00
 79.97     541.51
 80.07     563.00
 80.17     509.00
 80.27     545.00
 80.37     596.19
 80.47     589.56
 80.57     635.00
 80.67     593.00
 80.77     597.00
 80.87     639.00
 80.97     628.06
 81.07     691.00
 81.17     681.00
 81.27     671.00
 81.37     784.00
 81.47     755.00
 81.57     762.00
 81.67     694.00
 81.77     697.00
 81.87     698.00
 81.97     748.98
 82.07     704.30
 82.17     682.00
 82.27     688.00
 82.37     579.00
 82.47     644.87
 82.57     539.00
 82.67     577.00
 82.77     565.02
 82.87     527.00
 82.97     520.00
 83.07     540.00
 83.17     580.00
 83.27     522.00
 83.37     519.00
 83.47     539.00
 83.57     580.33
 83.67     578.63
 83.77     547.00
 83.87     551.11
 83.97     561.00
 84.07     600.15
 84.17     565.00
 84.27     553.04
 84.37     549.71
 84.47     536.82
 84.57     527.00
 84.67     547.00
 84.77     555.00
 84.87     519.44
 84.97     543.85
 85.07     503.00
 85.17     503.00
 85.27     524.00
 85.37     543.00
 85.47     492.00
 85.57     524.00
 85.67     499.61
 85.77     551.00
 85.87     525.00
 85.97     475.54
 86.07     521.00
 86.17     487.00
 86.27     459.00
 86.37     517.31
 86.47     524.00
 86.57     524.98
 86.67     551.00
 86.77     586.58
 86.87     607.00
 86.97     601.37
 87.07     572.00
 87.17     576.00
 87.27     610.00
 87.37     655.00
 87.47     639.00
 87.57     590.03
 87.67     657.64
 87.77     575.11
 87.87     644.00
 87.97     583.15
 88.07     583.00
 88.17     660.00
 88.27     602.49
 88.37     577.00
 88.47     528.00
 88.57     580.00
 88.67     522.00
 88.77     579.60
 88.87     590.00
 88.97     582.00
 89.07     546.75
 89.17     589.33
 89.27     602.91
 89.37     574.00
 89.47     552.98
 89.57     578.00
 89.67     526.00
 89.77     556.00
 89.87     535.68
 89.97     572.00
 90.07     533.10
 90.17     520.00
 90.27     568.00
 90.37     489.00
 90.47     480.00
 90.57     543.00
 90.67     534.00
 90.77     505.00
 90.87     488.00
 90.97     530.00
 91.07     470.90
 91.17     546.16
 91.27     473.19
 91.37     490.00
 91.47     493.17
 91.57     519.37
 91.67     502.00
 91.77     530.00
 91.87     493.77
 91.97     574.00
 92.07     547.00
 92.17     593.00
 92.27     517.00
 92.37     528.00
 92.47     603.00
 92.57     623.00
 92.67     622.00
 92.77     651.00
 92.87     669.06
 92.97     645.22
 93.07     690.00
 93.17     669.67
 93.27     756.00
 93.37     739.01
 93.47     753.66
 93.57     755.22
 93.67     762.00
 93.77     797.00
 93.87     825.00
 93.97     777.18
 94.07     834.45
 94.17     879.00
 94.27     840.00
 94.37     856.42
 94.47     905.09
 94.57     893.00
 94.67     851.37
 94.77     868.07
 94.87     890.00
 94.97     896.62
 95.07     885.00
 95.17     794.89
 95.27     859.00
 95.37     811.02
 95.47     755.41
 95.57     707.04
 95.67     747.00
 95.77     707.00
 95.87     674.44
 95.97     698.00
 96.07     684.00
 96.17     671.05
 96.27     723.00
 96.37     690.69
 96.47     778.00
 96.57     820.00
 96.67     888.00
 96.77     890.98
 96.87    1019.11
 96.97    1064.00
 97.07    1105.00
 97.17    1151.00
 97.27    1230.00
 97.37    1265.00
 97.47    1401.00
 97.57    1476.00
 97.67    1461.47
 97.77    1432.62
 97.87    1366.00
 97.97    1409.48
 98.07    1251.52
 98.17    1298.16
 98.27    1241.83
 98.37    1159.00
 98.47     995.00
 98.57     964.62
 98.67     962.00
 98.77     954.77
 98.87     915.78
 98.97     815.44
 99.07     878.66
 99.17     860.00
 99.27     879.00
 99.37     951.43
 99.47     995.00
 99.57     976.00
 99.67    1072.00
 99.77    1111.83
 99.87    1249.00
 99.97    1366.00
100.07    1564.00
100.17    1545.00
100.27    1634.22
100.37    1737.79
100.47    1864.00
100.57    1979.77
100.67    2025.00
100.77    2025.42
100.87    1985.11
100.97    1964.00
101.07    1945.43
101.17    1913.00
101.27    1871.00
101.37    1826.00
101.47    1662.17
101.57    1533.00
101.67    1558.00
101.77    1560.00
101.87    1418.00
101.97    1414.06
102.07    1343.15
102.17    1247.00
102.27    1227.48
102.37    1136.00
102.47    1170.00
102.57    1173.42
102.67    1097.00
102.77    1069.23
102.87    1030.00
102.97     979.00
103.07     982.00
103.17     944.43
103.27     903.00
103.37     886.00
103.47     816.21
103.57     838.03
103.67     781.00
103.77     705.50
103.87     743.41
103.97     681.00
104.07     692.00
104.17     633.00
104.27     613.14
104.37     585.63
104.47     514.53
104.57     517.50
104.67     573.00
104.77     561.00
104.87     533.72
104.97     515.00
105.07     538.00
105.17     526.00
105.27     546.00
105.37     564.71
105.47     494.74
105.57     490.67
105.67     541.00
105.77     545.00
105.87     559.95
105.97     505.43
106.07     522.00
106.17     531.66
106.27     566.00
106.37     616.45
106.47     571.00
106.57     646.37
106.67     631.86
106.77     613.00
106.87     639.00
106.97     645.00
107.07     628.00
107.17     638.00
107.27     714.23
107.37     693.00
107.47     619.00
107.57     706.00
107.67     672.69
107.77     691.00
107.87     676.00
107.97     667.00
108.07     731.14
108.17     655.74
108.27     673.85
108.37     700.00
108.47     664.00
108.57     671.00
108.67     724.75
108.77     700.00
108.87     663.00
108.97     711.00
109.07     658.53
109.17     718.00
109.27     650.75
109.37     684.00
109.47     619.00
109.57     692.00
109.67     637.00
109.77     636.85
109.87     653.00
109.97     594.13
110.07     618.82
110.17     582.45
110.27     551.00
110.37     604.00
110.47     573.14
110.57     555.09
110.67     599.00
110.77     533.00
110.87     585.00
110.97     488.91
111.07     563.00
111.17     558.79
111.27     564.48
111.37     561.37
111.47     532.36
111.57     498.43
111.67     542.00
111.77     552.00
111.87     544.00
111.97     504.00
112.07     550.91
112.17     518.78
112.27     561.00
112.37     586.00
112.47     605.58
112.57     516.00
112.67     534.00
112.77     537.00
112.87     612.00
112.97     585.00
113.07     612.00
113.17     595.04
113.27     628.48
113.37     625.00
113.47     670.00
113.57     664.00
113.67     687.00
113.77     698.00
113.87     751.00
113.97     727.00
114.07     829.07
114.17     855.16
114.27     931.00
114.37     943.21
114.47    1031.00
114.57    1063.00
114.67    1225.00
114.77    1376.00
114.87    1544.00
114.97    1704.63
115.07    1913.00
115.17    2053.09
115.27    2317.53
115.37    2544.00
115.47    2899.00
115.57    3326.00
115.67    3518.00
115.77    3840.43
115.87    4203.00
115.97    4692.87
116.07    5000.00
116.17    5323.28
116.27    5638.58
116.37    6180.11
116.47    6274.00
116.57    6619.00
116.67    6772.00
116.77    6802.32
116.87    6739.46
116.97    6752.00
117.07    6597.00
117.17    6516.00
117.27    6180.36
117.37    5999.00
117.47    5725.00
117.57    5098.00
117.67    4862.00
117.77    4538.00
117.87    4223.00
117.97    3858.00
118.07    3590.17
118.17    3263.28
118.27    2953.00
118.37    2582.00
118.47    2233.52
118.57    2111.12
118.67    1843.00
118.77    1650.00
118.87    1444.00
118.97    1365.00
119.07    1252.78
119.17    1122.00
119.27    1036.00
119.37     909.81
119.47     883.00
119.57     827.60
119.67     771.84
119.77     739.00
119.87     720.71
119.97     662.00
120.07     645.00
120.17     633.00
120.27     626.00
120.37     612.88
120.47     654.54
120.57     618.00
120.67     598.00
120.77     595.00
120.87     594.68
120.97     579.00
121.07     604.46
121.17     569.00
121.27     594.00
121.37     560.00
121.47     585.00
121.57     592.00
121.67     573.00
121.77     587.02
121.87     574.00
121.97     596.00
122.07     614.61
122.17     615.00
122.27     605.00
122.37     578.38
122.47     598.61
122.57     602.24
122.67     637.00
122.77     622.00
122.87     598.00
122.97     626.00
123.07     661.00
123.17     608.82
123.27     649.00
123.37     677.61
123.47     616.05
123.57     609.00
123.67     644.07
123.77     620.32
123.87     611.00
123.97     589.39
124.07     618.00
124.17     636.05
124.27     556.00
124.37     575.00
124.47     632.00
124.57     548.53
124.67     590.00
124.77     636.00
124.87     576.00
124.97     606.07
