  9.97     602.00
 10.07     597.00
 10.17     555.01
 10.27     596.39
 10.37     609.00
 10.47     537.69
 10.57     608.63
 10.67     595.00
 10.77     588.00
 10.87     585.00
 10.97     560.00
 11.07     603.00
 11.17     561.00
 11.27     552.00
 11.37     596.00
 11.47     584.00
 11.57     557.00
 11.67     544.69
 11.77     714.00
 11.87     670.00
 11.97     654.00
 12.07     624.60
 12.17     718.00
 12.27     673.00
 12.37     728.43
 12.47     658.00
 12.57     570.71
 12.67     624.30
 12.77     608.12
 12.87     594.00
 12.97     556.00
 13.07     543.23
 13.17     551.00
 13.27     565.00
 13.37     591.00
 13.47     555.00
 13.57     586.27
 13.67     530.00
 13.77     571.00
 13.87     557.92
 13.97     560.00
 14.07     554.90
 14.17     612.73
 14.27     545.00
 14.37     535.00
 14.47     557.00
 14.57     595.00
 14.67     561.00
 14.77     562.00
 14.87     600.00
 14.97     550.00
 15.07     555.00
 15.17     579.00
 15.27     615.50
 15.37     594.03
 15.47     556.00
 15.57     596.07
 15.67     548.00
 15.77     520.00
 15.87     588.54
 15.97     566.00
 16.07     616.01
 16.17     601.00
 16.27     519.00
 16.37     584.00
 16.47     543.00
 16.57     522.00
 16.67     533.00
 16.77     527.21
 16.87     601.00
 16.97     579.00
 17.07     589.00
 17.17     577.00
 17.27     612.67
 17.37     523.00
 17.47     540.00
 17.57     534.38
 17.67     575.00
 17.77     570.00
 17.87     521.19
 17.97     536.80
 18.07     578.00
 18.17     599.00
 18.27     567.00
 18.37     594.39
 18.47     544.00
 18.57     577.00
 18.67     602.64
 18.77     609.00
 18.87     569.00
 18.97     524.09
 19.07     545.00
 19.17     564.00
 19.27     533.49
 19.37     576.00
 19.47     573.00
 19.57     542.00
 19.67     513.00
 19.77     598.64
 19.87     561.00
 19.97     556.00
 20.07     543.00
 20.17     568.88
 20.27     575.00
 20.37     524.14
 20.47     527.84
 20.57     551.44
 20.67     548.00
 20.77     585.73
 20.87     540.00
 20.97     558.00
 21.07     552.00
 21.17     556.00
 21.27     607.00
 21.37     567.73
 21.47     549.00
 21.57     562.86
 21.67     542.00
 21.77     582.00
 21.87     507.69
 21.97     579.00
 22.07     564.00
 22.17     539.00
 22.27     580.00
 22.37     521.00
 22.47     512.39
 22.57     564.00
 22.67     542.71
 22.77     588.00
 22.87     513.04
 22.97     527.24
 23.07     564.00
 23.17     529.83
 23.27     547.00
 23.37     573.66
 23.47     515.53
 23.57     567.00
 23.67     566.00
 23.77     594.59
 23.87     545.77
 23.97     484.00
 24.07     579.58
 24.17     524.51
 24.27     571.07
 24.37     583.00
 24.47     597.00
 24.57     592.00
 24.67     597.35
 24.77     625.00
 24.87     614.72
 24.97     599.00
 25.07     603.00
 25.17     549.79
 25.27     540.00
 25.37     560.00
 25.47     590.00
 25.57     568.00
 25.67     541.00
 25.77     586.00
 25.87     547.00
 25.97     552.00
 26.07     568.70
 26.17     530.00
 26.27     541.37
 26.37     567.30
 26.47     567.00
 26.57     531.00
 26.67     546.00
 26.77     538.00
 26.87     501.26
 26.97     596.00
 27.07     565.00
 27.17     571.00
 27.27     562.00
 27.37     537.64
 27.47     588.00
 27.57     532.49
 27.67     547.00
 27.77     534.00
 27.87     602.70
 27.97     675.00
 28.07     742.00
 28.17     891.00
 28.27     956.51
 28.37     893.00
 28.47     810.00
 28.57     709.00
 28.67     703.00
 28.77     709.98
 28.87     832.86
 28.97     753.00
 29.07     827.93
 29.17     727.00
 29.27     636.00
 29.37     573.64
 29.47     626.57
 29.57     577.00
 29.67     588.00
 29.77     611.00
 29.87     576.00
 29.97     537.81
 30.07     562.00
 30.17     572.00
 30.27     540.00
 30.37     537.00
 30.47     572.99
 30.57     596.80
 30.67     561.00
 30.77     613.00
 30.87     616.00
 30.97     625.00
 31.07     637.00
 31.17     543.00
 31.27     558.00
 31.37     568.09
 31.47     539.53
 31.57     517.65
 31.67     517.05
 31.77     554.00
 31.87     538.00
 31.97     525.61
 32.07     560.00
 32.17     563.00
 32.27     522.00
 32.37     531.00
 32.47     509.08
 32.57     539.00
 32.67     575.00
 32.77     505.86
 32.87     564.00
 32.97     562.00
 33.07     504.63
 33.17     557.31
 33.27     584.00
 33.37     573.00
 33.47     572.00
 33.57     583.00
 33.67     605.69
 33.77     775.13
 33.87     906.06
 33.97    1017.00
 34.07    1032.00
 34.17    1012.97
 34.27     844.00
 34.37     706.56
 34.47     622.00
 34.57     585.00
 34.67     578.00
 34.77     559.00
 34.87     531.00
 34.97     499.00
 35.07     546.63
 35.17     509.11
 35.27     515.00
 35.37     534.00
 35.47     501.00
 35.57     559.00
 35.67     533.18
 35.77     533.00
 35.87     473.02
 35.97     517.00
 36.07     481.22
 36.17     539.00
 36.27     511.00
 36.37     501.00
 36.47     562.00
 36.57     512.00
 36.67     495.00
 36.77     514.00
 36.87     547.84
 36.97     546.00
 37.07     551.95
 37.17     518.00
 37.27     507.00
 37.37     497.00
 37.47     497.00
 37.57     521.74
 37.67     530.00
 37.77     542.00
 37.87     487.00
 37.97     529.00
 38.07     506.00
 38.17     525.00
 38.27     490.16
 38.37     530.33
 38.47     490.62
 38.57     540.14
 38.67     512.00
 38.77     486.00
 38.87     541.62
 38.97     516.16
 39.07     454.00
 39.17     535.58
 39.27     510.00
 39.37     537.00
 39.47     531.26
 39.57     513.26
 39.67     534.16
 39.77     531.02
 39.87     539.09
 39.97     530.15
 40.07     485.00
 40.17     505.00
 40.27     490.00
 40.37     489.00
 40.47     494.00
 40.57     494.00
 40.67     534.43
 40.77     477.00
 40.87     473.90
 40.97     456.00
 41.07     512.00
 41.17     487.00
 41.27     503.00
 41.37     502.00
 41.47     504.00
 41.57     519.39
 41.67     492.09
 41.77     550.11
 41.87     536.75
 41.97     530.02
 42.07     557.46
 42.17     538.00
 42.27     507.00
 42.37     530.00
 42.47     585.00
 42.57     580.00
 42.67     566.00
 42.77     534.00
 42.87     613.64
 42.97     560.01
 43.07     527.00
 43.17     530.00
 43.27     553.00
 43.37     500.00
 43.47     482.79
 43.57     506.00
 43.67     473.24
 43.77     482.62
 43.87     501.31
 43.97     509.87
 44.07     535.00
 44.17     517.99
 44.27     531.00
 44.37     524.00
 44.47     545.62
 44.57     479.00
 44.67     521.00
 44.77     524.00
 44.87     533.00
 44.97     472.24
 45.07     532.00
 45.17     540.00
 45.27     519.00
 45.37     471.49
 45.47     498.00
 45.57     473.00
 45.67     512.00
 45.77     510.00
 45.87     511.00
 45.97     515.00
 46.07     534.60
 46.17     474.84
 46.27     487.00
 46.37     464.00
 46.47     533.00
 46.57     533.78
 46.67     479.00
 46.77     551.13
 46.87     464.95
 46.97     526.29
 47.07     494.15
 47.17     520.00
 47.27     487.06
 47.37     518.00
 47.47     559.57
 47.57     541.16
 47.67     565.00
 47.77     538.00
 47.87     541.71
 47.97     597.98
 48.07     622.00
 48.17     571.00
 48.27     559.00
 48.37     525.00
 48.47     535.00
 48.57     507.00
 48.67     484.40
 48.77     545.34
 48.87     538.00
 48.97     513.81
 49.07     579.00
 49.17     567.75
 49.27     630.00
 49.37     697.48
 49.47     686.23
 49.57     818.00
 49.67     906.00
 49.77    1171.06
 49.87    1362.00
 49.97    1848.00
 50.07    2306.31
 50.17    2452.22
 50.27    2429.89
 50.37    2279.47
 50.47    1893.00
 50.57    1511.68
 50.67    1101.00
 50.77     860.84
 50.87     698.00
 50.97     684.00
 51.07     660.50
 51.17     620.00
 51.27     600.00
 51.37     627.73
 51.47     567.00
 51.57     589.00
 51.67     550.02
 51.77     572.31
 51.87     523.46
 51.97     549.94
 52.07     522.00
 52.17     501.26
 52.27     557.00
 52.37     596.00
 52.47     513.00
 52.57     560.00
 52.67     604.00
 52.77     613.00
 52.87     638.70
 52.97     694.00
 53.07     846.00
 53.17     992.00
 53.27    1034.00
 53.37    1140.00
 53.47    1204.00
 53.57    1185.00
 53.67    1054.00
 53.77    1045.78
 53.87     903.99
 53.97     746.00
 54.07     668.00
 54.17     591.00
 54.27     583.00
 54.37     534.00
 54.47     549.00
 54.57     573.16
 54.67     592.00
 54.77     522.97
 54.87     570.00
 54.97     578.39
 55.07     545.63
 55.17     515.23
 55.27     604.00
 55.37     625.00
 55.47     533.00
 55.57     543.00
 55.67     557.00
 55.77     605.00
 55.87     572.00
 55.97     664.00
 56.07     656.14
 56.17     699.00
 56.27     868.00
 56.37    1133.48
 56.47    1421.00
 56.57    1773.00
 56.67    2121.15
 56.77    2449.00
 56.87    2736.00
 56.97    2637.32
 57.07    2382.00
 57.17    2113.00
 57.27    1632.00
 57.37    1304.00
 57.47    1052.94
 57.57     863.00
 57.67     784.69
 57.77     735.00
 57.87     671.00
 57.97     646.76
 58.07     677.00
 58.17     727.00
 58.27     790.58
 58.37     904.58
 58.47     922.00
 58.57    1071.00
 58.67    1166.00
 58.77    1394.00
 58.87    1436.00
 58.97    1480.14
 59.07    1488.23
 59.17    1577.34
 59.27    1525.00
 59.37    1307.65
 59.47    1178.00
 59.57    1166.39
 59.67    1153.67
 59.77    1119.00
 59.87    1111.65
 59.97    1332.00
 60.07    1428.00
 60.17    1463.92
 60.27    1588.37
 60.37    1576.00
 60.47    1392.00
 60.57    1290.00
 60.67    1052.00
 60.77     932.66
 60.87     790.18
 60.97     715.11
 61.07     679.00
 61.17     592.01
 61.27     656.00
 61.37     627.00
 61.47     682.00
 61.57     709.00
 61.67     817.00
 61.77     927.00
 61.87    1078.00
 61.97    1197.00
 62.07    1310.00
 62.17    1458.00
 62.27    1390.94
 62.37    1310.00
 62.47    1230.00
 62.57    1006.00
 62.67     903.00
 62.77     747.25
 62.87     674.00
 62.97     623.00
 63.07     649.65
 63.17     586.00
 63.27     529.00
 63.37     579.00
 63.47     548.59
 63.57     570.00
 63.67     549.24
 63.77     605.65
 63.87     577.00
 63.97     636.00
 64.07     671.00
 64.17     805.24
 64.27     784.30
 64.37     892.96
 64.47     896.48
 64.57     993.18
 64.67     999.00
 64.77    1037.00
 64.87     996.92
 64.97     977.00
 65.07     870.00
 65.17     766.00
 65.27     722.00
 65.37     674.00
 65.47     664.85
 65.57     583.53
 65.67     641.00
 65.77     556.00
 65.87     553.00
 65.97     592.00
 66.07     527.00
 66.17     528.00
 66.27     541.00
 66.37     550.72
 66.47     542.00
 66.57     593.12
 66.67     548.00
 66.77     613.00
 66.87     544.00
 66.97     618.03
 67.07     662.00
 67.17     702.00
 67.27     807.00
 67.37     861.47
 67.47    1040.00
 67.57    1333.11
 67.67    1499.00
 67.77    1878.56
 67.87    2099.00
 67.97    2261.37
 68.07    2442.00
 68.17    2323.02
 68.27    2275.90
 68.37    2136.40
 68.47    1813.56
 68.57    1446.16
 68.67    1231.00
 68.77    1097.00
 68.87     923.52
 68.97     820.83
 69.07     659.00
 69.17     680.00
 69.27     616.30
 69.37     574.00
 69.47     627.00
 69.57     606.00
 69.67     531.00
 69.77     531.78
 69.87     578.00
 69.97     603.67
 70.07     605.00
 70.17     547.49
 70.27     544.00
 70.37     571.00
 70.47     577.00
 70.57     564.00
 70.67     631.00
 70.77     575.00
 70.87     633.95
 70.97     602.00
 71.07     669.37
 71.17     759.00
 71.27     806.00
 71.37     881.58
 71.47    1133.38
 71.57    1199.00
 71.67    1459.00
 71.77    1596.00
 71.87    1721.48
 71.97    1924.00
 72.07    1830.01
 72.17    1899.61
 72.27    1795.00
 72.37    1559.10
 72.47    1554.94
 72.57    1396.00
 72.67    1195.85
 72.77    1092.24
 72.87    1019.81
 72.97     952.37
 73.07     852.00
 73.17     765.00
 73.27     673.00
 73.37     733.24
 73.47     722.15
 73.57     609.83
 73.67     597.55
 73.77     617.96
 73.87     584.00
 73.97     602.97
 74.07     556.00
 74.17     617.00
 74.27     620.00
 74.37     670.00
 74.47     638.00
 74.57     619.00
 74.67     669.00
 74.77     604.00
 74.87     583.00
 74.97     536.07
 75.07     576.00
 75.17     588.12
 75.27     582.00
 75.37     555.00
 75.47     566.00
 75.57     560.00
 75.67     533.00
 75.77     652.00
 75.87     588.00
 75.97     622.00
 76.07     607.00
 76.17     665.19
 76.27     676.88
 76.37     711.00
 76.47     726.00
 76.57     717.00
 76.67     712.00
 76.77     688.23
 76.87     668.00
 76.97     660.40
 77.07     630.00
 77.17     611.00
 77.27     537.00
 77.37     582.33
 77.47     546.00
 77.57     543.00
 77.67     564.00
 77.77     540.00
 77.87     550.00
 77.97     518.00
 78.07     554.00
 78.17     550.92
 78.27     512.97
 78.37     566.13
 78.47     518.70
 78.57     551.19
 78.67     513.00
 78.77     558.49
 78.87     539.00
 78.97     542.28
 79.07     539.00
 79.17     514.00
 79.27     550.00
 79.37     555.00
 79.47     534.00
 79.57     538.00
 79.67     520.01
 79.77     585.64
 79.87     558.00
 79.97     531.00
 80.07     540.00
 80.17     504.00
 80.27     562.18
 80.37     586.00
 80.47     599.91
 80.57     656.28
 80.67     583.00
 80.77     627.00
 80.87     721.12
 80.97     717.00
 81.07     709.78
 81.17     696.48
 81.27     751.00
 81.37     710.60
 81.47     731.00
 81.57     764.56
 81.67     762.00
 81.77     754.00
 81.87     674.41
 81.97     637.34
 82.07     683.00
 82.17     648.00
 82.27     649.00
 82.37     603.00
 82.47     575.00
 82.57     604.49
 82.67     534.00
 82.77     559.00
 82.87     556.00
 82.97     532.35
 83.07     567.00
 83.17     579.00
 83.27     531.41
 83.37     510.75
 83.47     536.56
 83.57     540.00
 83.67     601.41
 83.77     582.00
 83.87     583.50
 83.97     579.00
 84.07     554.00
 84.17     579.00
 84.27     571.00
 84.37     552.00
 84.47     530.00
 84.57     581.06
 84.67     556.00
 84.77     535.00
 84.87     533.00
 84.97     563.03
 85.07     521.00
 85.17     538.00
 85.27     523.00
 85.37     521.96
 85.47     513.00
 85.57     544.00
 85.67     500.00
 85.77     501.00
 85.87     543.00
 85.97     508.00
 86.07     587.00
 86.17     548.31
 86.27     581.00
 86.37     516.00
 86.47     555.00
 86.57     592.43
 86.67     555.00
 86.77     612.00
 86.87     566.00
 86.97     646.11
 87.07     625.00
 87.17     617.66
 87.27     613.00
 87.37     638.00
 87.47     631.00
 87.57     662.90
 87.67     623.13
 87.77     629.00
 87.87     625.00
 87.97     619.00
 88.07     639.83
 88.17     588.00
 88.27     535.12
 88.37     563.00
 88.47     532.88
 88.57     594.27
 88.67     579.78
 88.77     616.99
 88.87     556.72
 88.97     617.00
 89.07     607.00
 89.17     598.00
 89.27     574.54
 89.37     599.00
 89.47     620.00
 89.57     586.00
 89.67     604.26
 89.77     568.20
 89.87     591.38
 89.97     540.99
 90.07     533.00
 90.17     553.98
 90.27     544.00
 90.37     512.00
 90.47     538.00
 90.57     561.00
 90.67     541.99
 90.77     521.00
 90.87     496.00
 90.97     494.83
 91.07     527.00
 91.17     512.00
 91.27     513.73
 91.37     532.67
 91.47     492.13
 91.57     503.00
 91.67     525.00
 91.77     541.00
 91.87     572.61
 91.97     552.00
 92.07     581.72
 92.17     612.00
 92.27     611.00
 92.37     605.73
 92.47     644.83
 92.57     625.00
 92.67     643.53
 92.77     702.00
 92.87     750.43
 92.97     732.00
 93.07     795.24
 93.17     800.00
 93.27     838.00
 93.37     839.68
 93.47     846.00
 93.57     789.00
 93.67     863.00
 93.77     823.00
 93.87     867.23
 93.97     822.61
 94.07     811.36
 94.17     854.00
 94.27     845.00
 94.37     877.00
 94.47     910.00
 94.57     846.45
 94.67     829.43
 94.77     906.00
 94.87     838.55
 94.97     904.00
 95.07     905.00
 95.17     835.13
 95.27     856.00
 95.37     811.00
 95.47     798.00
 95.57     707.95
 95.67     721.00
 95.77     692.79
 95.87     682.39
 95.97     727.00
 96.07     641.00
 96.17     674.00
 96.27     711.00
 96.37     806.24
 96.47     804.00
 96.57     861.00
 96.67     925.00
 96.77     994.00
 96.87    1047.00
 96.97    1157.00
 97.07    1189.84
 97.17    1273.00
 97.27    1279.93
 97.37    1366.34
 97.47    1526.00
 97.57    1447.00
 97.67    1443.00
 97.77    1410.32
 97.87    1331.00
 97.97    1386.00
 98.07    1216.00
 98.17    1119.00
 98.27    1009.91
 98.37     975.00
 98.47     947.00
 98.57     906.00
 98.67     888.97
 98.77     857.55
 98.87     827.00
 98.97     798.99
 99.07     767.62
 99.17     841.00
 99.27     882.00
 99.37     885.44
 99.47     983.00
 99.57    1035.00
 99.67    1189.02
 99.77    1285.00
 99.87    1432.00
 99.97    1485.30
100.07    1690.08
100.17    1739.00
100.27    1921.00
100.37    1835.17
100.47    2011.00
100.57    2030.53
100.67    2181.00
100.77    2065.41
100.87    2006.42
100.97    1989.30
101.07    2059.81
101.17    1948.53
101.27    1838.00
101.37    1745.89
101.47    1590.32
101.57    1488.00
101.67    1368.36
101.77    1366.00
101.87    1258.74
101.97    1196.63
102.07    1254.40
102.17    1184.37
102.27    1121.00
102.37    1059.07
102.47    1086.00
102.57    1116.89
102.67     988.00
102.77     972.51
102.87     941.23
102.97     945.00
103.07     911.92
103.17     867.00
103.27     813.00
103.37     813.00
103.47     824.00
103.57     742.00
103.67     690.00
103.77     660.00
103.87     664.00
103.97     653.00
104.07     593.00
104.17     610.00
104.27     560.00
104.37     571.00
104.47     572.41
104.57     573.00
104.67     597.00
104.77     579.00
104.87     552.90
104.97     525.00
105.07     539.00
105.17     558.07
105.27     541.00
105.37     523.00
105.47     541.38
105.57     541.29
105.67     566.00
105.77     559.00
105.87     584.00
105.97     565.00
106.07     548.95
106.17     564.00
106.27     590.00
106.37     558.00
106.47     625.00
106.57     644.00
106.67     660.43
106.77     653.13
106.87     679.00
106.97     699.73
107.07     659.00
107.17     642.00
107.27     744.90
107.37     748.20
107.47     691.01
107.57     651.00
107.67     673.00
107.77     663.00
107.87     700.36
107.97     656.00
108.07     668.00
108.17     691.00
108.27     720.00
108.37     697.00
108.47     652.00
108.57     737.38
108.67     647.00
108.77     727.00
108.87     677.00
108.97     691.00
109.07     710.00
109.17     669.19
109.27     697.00
109.37     665.00
109.47     597.00
109.57     614.42
109.67     622.00
109.77     594.00
109.87     587.00
109.97     586.00
110.07     597.00
110.17     571.00
110.27     570.77
110.37     526.89
110.47     500.22
110.57     495.21
110.67     555.00
110.77     498.83
110.87     520.07
110.97     532.00
111.07     522.00
111.17     521.84
111.27     560.00
111.37     500.16
111.47     591.00
111.57     516.00
111.67     499.00
111.77     572.82
111.87     555.00
111.97     583.33
112.07     581.08
112.17     574.00
112.27     600.00
112.37     553.07
112.47     598.00
112.57     602.38
112.67     632.00
112.77     597.00
112.87     647.00
112.97     680.00
113.07     681.00
113.17     650.00
113.27     728.00
113.37     762.93
113.47     782.00
113.57     834.00
113.67     841.60
113.77     938.45
113.87     930.00
113.97     989.00
114.07    1048.00
114.17    1153.75
114.27    1124.00
114.37    1297.95
114.47    1302.74
114.57    1505.76
114.67    1628.00
114.77    1674.22
114.87    1898.02
114.97    2092.00
115.07    2374.00
115.17    2463.00
115.27    2777.00
115.37    3122.48
115.47    3390.88
115.57    3653.00
115.67    4200.60
115.77    4380.00
115.87    4670.00
115.97    5427.40
116.07    5760.62
116.17    5856.73
116.27    6160.47
116.37    6693.00
116.47    6892.73
116.57    6808.00
116.67    6899.00
116.77    6862.11
116.87    6759.51
116.97    6649.00
117.07    6390.00
117.17    5952.36
117.27    5759.90
117.37    5460.06
117.47    4954.08
117.57    4800.00
117.67    4291.00
117.77    4002.00
117.87    3648.00
117.97    3294.00
118.07    2942.00
118.17    2551.00
118.27    2222.68
118.37    1966.95
118.47    1755.00
118.57    1548.12
118.67    1399.00
118.77    1218.19
118.87    1147.37
118.97    1079.00
119.07     951.00
119.17     821.00
119.27     801.00
119.37     774.00
119.47     680.00
119.57     710.00
119.67     708.50
119.77     644.00
119.87     645.01
119.97     608.00
120.07     649.46
120.17     615.00
120.27     601.00
120.37     606.00
120.47     614.82
120.57     548.00
120.67     606.00
120.77     615.54
120.87     550.00
120.97     592.00
121.07     549.00
121.17     578.00
121.27     613.00
121.37     612.00
121.47     591.00
121.57     597.00
121.67     605.00
121.77     532.00
121.87     554.69
121.97     623.00
122.07     596.66
122.17     621.00
122.27     570.00
122.37     619.42
122.47     626.00
122.57     590.62
122.67     550.00
122.77     650.97
122.87     678.00
122.97     661.00
123.07     661.00
123.17     656.78
123.27     606.67
123.37     694.00
123.47     654.10
123.57     647.00
123.67     610.00
123.77     654.00
123.87     636.00
123.97     653.30
124.07     626.00
124.17     618.15
124.27     642.35
124.37     589.00
124.47     611.00
124.57     555.63
124.67     606.00
124.77     606.80
124.87     597.00
124.97     588.00
