  9.97     563.04
 10.07     605.00
 10.17     586.00
 10.27     615.00
 10.37     601.00
 10.47     539.00
 10.57     562.00
 10.67     606.00
 10.77     631.00
 10.87     585.00
 10.97     555.70
 11.07     565.95
 11.17     626.00
 11.27     577.03
 11.37     577.00
 11.47     592.00
 11.57     566.61
 11.67     678.00
 11.77     599.00
 11.87     576.10
 11.97     618.15
 12.07     710.00
 12.17     674.16
 12.27     709.00
 12.37     647.25
 12.47     605.00
 12.57     571.00
 12.67     605.00
 12.77     616.40
 12.87     600.00
 12.97     543.03
 13.07     593.00
 13.17     618.00
 13.27     546.00
 13.37     566.58
 13.47     565.00
 13.57     532.00
 13.67     562.86
 13.77     576.00
 13.87     616.28
 13.97     581.94
 14.07     563.00
 14.17     609.65
 14.27     590.64
 14.37     550.33
 14.47     592.00
 14.57     578.00
 14.67     545.32
 14.77     525.51
 14.87     551.68
 14.97     574.67
 15.07     605.56
 15.17     558.00
 15.27     568.00
 15.37     550.00
 15.47     603.24
 15.57     611.08
 15.67     615.50
 15.77     584.63
 15.87     557.00
 15.97     584.00
 16.07     527.39
 16.17     543.00
 16.27     580.25
 16.37     548.00
 16.47     581.40
 16.57     570.00
 16.67     573.65
 16.77     580.00
 16.87     552.00
 16.97     564.00
 17.07     573.82
 17.17     546.00
 17.27     579.08
 17.37     532.00
 17.47     538.00
 17.57     553.21
 17.67     586.07
 17.77     543.62
 17.87     534.51
 17.97     535.72
 18.07     550.00
 18.17     532.52
 18.27     554.00
 18.37     575.00
 18.47     543.00
 18.57     552.00
 18.67     522.00
 18.77     523.20
 18.87     524.17
 18.97     558.00
 19.07     572.00
 19.17     600.70
 19.27     564.00
 19.37     596.00
 19.47     574.00
 19.57     551.15
 19.67     565.00
 19.77     546.00
 19.87     599.28
 19.97     544.00
 20.07     542.00
 20.17     578.80
 20.27     595.00
 20.37     583.00
 20.47     592.00
 20.57     515.84
 20.67     515.00
 20.77     601.29
 20.87     569.00
 20.97     569.00
 21.07     577.45
 21.17     560.00
 21.27     513.03
 21.37     573.00
 21.47     574.48
 21.57     515.90
 21.67     562.00
 21.77     554.00
 21.87     530.98
 21.97     578.00
 22.07     566.00
 22.17     572.00
 22.27     552.00
 22.37     533.00
 22.47     574.00
 22.57     598.00
 22.67     577.65
 22.77     554.00
 22.87     514.00
 22.97     554.00
 23.07     505.00
 23.17     555.92
 23.27     528.81
 23.37     528.81
 23.47     528.00
 23.57     581.00
 23.67     585.10
 23.77     558.75
 23.87     518.00
 23.97     591.00
 24.07     513.10
 24.17     564.00
 24.27     578.00
 24.37     551.00
 24.47     552.78
 24.57     627.00
 24.67     622.00
 24.77     622.00
 24.87     646.00
 24.97     612.00
 25.07     626.00
 25.17     610.00
 25.27     550.85
 25.37     554.00
 25.47     536.00
 25.57     571.00
 25.67     545.00
 25.77     568.00
 25.87     537.00
 25.97     545.14
 26.07     500.05
 26.17     581.44
 26.27     546.00
 26.37     566.77
 26.47     522.00
 26.57     567.30
 26.67     501.00
 26.77     563.00
 26.87     533.00
 26.97     504.79
 27.07     525.31
 27.17     577.64
 27.27     536.00
 27.37     614.00
 27.47     588.00
 27.57     504.33
 27.67     597.00
 27.77     563.00
 27.87     636.00
 27.97     667.00
 28.07     822.00
 28.17     915.00
 28.27     984.19
 28.37     879.00
 28.47     794.00
 28.57     702.00
 28.67     680.94
 28.77     763.00
 28.87     781.00
 28.97     854.00
 29.07     743.00
 29.17     681.00
 29.27     645.00
 29.37     618.70
 29.47     568.00
 29.57     582.00
 29.67     590.00
 29.77     568.00
 29.87     580.00
 29.97     517.34
 30.07     549.74
 30.17     583.06
 30.27     545.00
 30.37     582.00
 30.47     586.30
 30.57     537.66
 30.67     530.00
 30.77     586.46
 30.87     648.26
 30.97     608.00
 31.07     629.00
 31.17     591.47
 31.27     562.00
 31.37     520.84
 31.47     577.28
 31.57     561.00
 31.67     577.83
 31.77     523.00
 31.87     562.69
 31.97     544.00
 32.07     493.16
 32.17     557.00
 32.27     548.00
 32.37     521.77
 32.47     503.41
 32.57     549.00
 32.67     566.00
 32.77     554.62
 32.87     578.00
 32.97     565.00
 33.07     533.00
 33.17     532.00
 33.27     517.28
 33.37     553.00
 33.47     591.74
 33.57     607.00
 33.67     673.93
 33.77     757.21
 33.87     892.00
 33.97    1003.56
 34.07    1033.00
 34.17     987.00
 34.27     900.00
 34.37     805.85
 34.47     699.18
 34.57     608.71
 34.67     537.00
 34.77     521.00
 34.87     566.15
 34.97     556.73
 35.07     520.00
 35.17     544.64
 35.27     557.00
 35.37     494.14
 35.47     569.99
 35.57     514.41
 35.67     532.00
 35.77     476.00
 35.87     512.00
 35.97     543.00
 36.07     529.00
 36.17     529.00
 36.27     479.64
 36.37     542.00
 36.47     526.04
 36.57     542.00
 36.67     502.00
 36.77     522.00
 36.87     519.89
 36.97     484.00
 37.07     477.00
 37.17     549.00
 37.27     504.00
 37.37     495.00
 37.47     504.00
 37.57     523.82
 37.67     502.00
 37.77     535.00
 37.87     503.00
 37.97     514.74
 38.07     510.00
 38.17     544.00
 38.27     527.00
 38.37     479.00
 38.47     503.00
 38.57     506.00
 38.67     496.00
 38.77     552.38
 38.87     505.00
 38.97     505.62
 39.07     516.00
 39.17     563.00
 39.27     525.00
 39.37     532.00
 39.47     512.00
 39.57     568.00
 39.67     501.21
 39.77     539.14
 39.87     485.00
 39.97     485.00
 40.07     474.21
 40.17     523.00
 40.27     531.00
 40.37     510.00
 40.47     510.00
 40.57     488.00
 40.67     497.00
 40.77     548.90
 40.87     494.00
 40.97     497.00
 41.07     493.00
 41.17     509.00
 41.27     492.00
 41.37     477.34
 41.47     549.92
 41.57     539.08
 41.67     491.00
 41.77     503.00
 41.87     482.00
 41.97     558.86
 42.07     540.81
 42.17     509.00
 42.27     498.00
 42.37     541.00
 42.47     586.71
 42.57     611.00
 42.67     625.73
 42.77     587.00
 42.87     627.00
 42.97     559.59
 43.07     570.88
 43.17     514.00
 43.27     506.00
 43.37     515.00
 43.47     489.00
 43.57     518.58
 43.67     522.00
 43.77     484.00
 43.87     481.00
 43.97     519.00
 44.07     536.00
 44.17     551.60
 44.27     517.00
 44.37     504.00
 44.47     473.00
 44.57     511.00
 44.67     498.00
 44.77     482.20
 44.87     569.00
 44.97     496.39
 45.07     515.00
 45.17     543.00
 45.27     541.00
 45.37     516.00
 45.47     514.00
 45.57     477.40
 45.67     491.70
 45.77     492.00
 45.87     547.00
 45.97     502.00
 46.07     527.00
 46.17     490.56
 46.27     524.00
 46.37     536.00
 46.47     511.33
 46.57     512.00
 46.67     518.00
 46.77     497.10
 46.87     539.00
 46.97     505.00
 47.07     520.00
 47.17     503.00
 47.27     502.14
 47.37     518.00
 47.47     515.00
 47.57     572.00
 47.67     551.00
 47.77     593.00
 47.87     582.00
 47.97     600.32
 48.07     580.00
 48.17     563.00
 48.27     556.00
 48.37     531.00
 48.47     564.43
 48.57     570.00
 48.67     565.90
 48.77     540.29
 48.87     529.20
 48.97     540.88
 49.07     545.00
 49.17     572.00
 49.27     562.70
 49.37     585.00
 49.47     673.00
 49.57     783.00
 49.67     818.33
 49.77    1088.74
 49.87    1486.00
 49.97    1866.00
 50.07    2252.00
 50.17    2478.83
 50.27    2445.36
 50.37    2267.82
 50.47    1761.00
 50.57    1359.00
 50.67    1050.00
 50.77     837.00
 50.87     715.00
 50.97     655.12
 51.07     632.00
 51.17     611.00
 51.27     596.00
 51.37     538.00
 51.47     591.00
 51.57     548.00
 51.67     582.08
 51.77     564.00
 51.87     515.12
 51.97     532.00
 52.07     579.00
 52.17     568.00
 52.27     549.96
 52.37     532.65
 52.47     583.00
 52.57     566.54
 52.67     606.00
 52.77     588.77
 52.87     670.00
 52.97     669.00
 53.07     844.55
 53.17     953.00
 53.27     972.60
 53.37    1214.00
 53.47    1154.00
 53.57    1133.00
 53.67    1080.00
 53.77     970.00
 53.87     831.83
 53.97     755.00
 54.07     736.30
 54.17     599.00
 54.27     611.19
 54.37     598.00
 54.47     603.00
 54.57     555.91
 54.67     567.00
 54.77     538.44
 54.87     543.00
 54.97     590.00
 55.07     564.00
 55.17     554.22
 55.27     592.91
 55.37     562.00
 55.47     525.05
 55.57     592.00
 55.67     615.53
 55.77     557.00
 55.87     624.23
 55.97     621.00
 56.07     698.00
 56.17     827.94
 56.27     923.00
 56.37    1200.00
 56.47    1432.00
 56.57    1856.25
 56.67    2234.00
 56.77    2366.00
 56.87    2729.43
 56.97    2611.00
 57.07    2422.09
 57.17    1987.04
 57.27    1616.00
 57.37    1349.00
 57.47     993.00
 57.57     838.75
 57.67     772.96
 57.77     741.00
 57.87     678.00
 57.97     661.00
 58.07     689.00
 58.17     725.00
 58.27     734.88
 58.37     846.00
 58.47     897.75
 58.57    1027.69
 58.67    1143.47
 58.77    1250.29
 58.87    1338.00
 58.97    1477.40
 59.07    1395.81
 59.17    1484.00
 59.27    1367.00
 59.37    1313.66
 59.47    1192.90
 59.57    1155.00
 59.67    1183.00
 59.77    1122.63
 59.87    1202.32
 59.97    1296.03
 60.07    1416.35
 60.17    1620.00
 60.27    1545.00
 60.37    1618.00
 60.47    1409.00
 60.57    1241.00
 60.67    1078.00
 60.77     962.00
 60.87     784.00
 60.97     712.19
 61.07     662.00
 61.17     635.00
 61.27     667.00
 61.37     673.00
 61.47     725.00
 61.57     769.65
 61.67     856.78
 61.77     938.20
 61.87    1115.00
 61.97    1251.00
 62.07    1320.00
 62.17    1299.00
 62.27    1361.60
 62.37    1274.00
 62.47    1149.00
 62.57    1032.43
 62.67     901.00
 62.77     844.27
 62.87     684.00
 62.97     652.00
 63.07     639.63
 63.17     573.55
 63.27     612.00
 63.37     580.00
 63.47     549.52
 63.57     530.51
 63.67     605.15
 63.77     612.00
 63.87     628.94
 63.97     687.07
 64.07     719.00
 64.17     792.00
 64.27     838.00
 64.37     904.00
 64.47     991.72
 64.57    1039.00
 64.67    1010.00
 64.77    1026.17
 64.87     973.00
 64.97     856.00
 65.07     882.06
 65.17     792.00
 65.27     735.00
 65.37     688.00
 65.47     644.00
 65.57     608.95
 65.67     582.00
 65.77     609.00
 65.87     574.00
 65.97     534.00
 66.07     549.00
 66.17     539.00
 66.27     531.16
 66.37     575.95
 66.47     589.00
 66.57     615.93
 66.67     575.00
 66.77     582.05
 66.87     574.00
 66.97     665.62
 67.07     656.80
 67.17     701.69
 67.27     741.00
 67.37     873.00
 67.47    1046.36
 67.57    1396.00
 67.67    1535.00
 67.77    1799.00
 67.87    2111.00
 67.97    2378.00
 68.07    2347.00
 68.17    2307.48
 68.27    2273.00
 68.37    2028.35
 68.47    1887.00
 68.57    1633.00
 68.67    1318.81
 68.77    1097.53
 68.87     868.00
 68.97     789.00
 69.07     736.00
 69.17     610.95
 69.27     622.00
 69.37     620.00
 69.47     621.00
 69.57     623.00
 69.67     565.00
 69.77     579.00
 69.87     545.00
 69.97     602.00
 70.07     582.76
 70.17     579.00
 70.27     616.54
 70.37     543.00
 70.47     565.04
 70.57     590.00
 70.67     608.45
 70.77     595.00
 70.87     597.00
 70.97     620.26
 71.07     672.00
 71.17     777.00
 71.27     841.00
 71.37     934.00
 71.47    1066.46
 71.57    1323.00
 71.67    1411.83
 71.77    1588.00
 71.87    1797.00
 71.97    1895.36
 72.07    1912.00
 72.17    1826.33
 72.27    1712.51
 72.37    1573.00
 72.47    1365.44
 72.57    1221.00
 72.67    1131.89
 72.77     965.00
 72.87     908.00
 72.97     818.00
 73.07     770.59
 73.17     761.28
 73.27     682.00
 73.37     651.00
 73.47     671.00
 73.57     637.63
 73.67     616.00
 73.77     609.00
 73.87     623.00
 73.97     590.00
 74.07     545.78
 74.17     593.40
 74.27     537.02
 74.37     538.20
 74.47     533.38
 74.57     627.00
 74.67     642.00
 74.77     661.00
 74.87     561.01
 74.97     603.00
 75.07     615.00
 75.17     511.46
 75.27     551.00
 75.37     572.00
 75.47     557.00
 75.57     532.00
 75.67     529.00
 75.77     575.00
 75.87     621.10
 75.97     595.50
 76.07     669.17
 76.17     624.32
 76.27     665.00
 76.37     732.00
 76.47     704.00
 76.57     725.93
 76.67     739.92
 76.77     691.37
 76.87     673.71
 76.97     604.65
 77.07     637.00
 77.17     592.00
 77.27     572.00
 77.37     553.00
 77.47     562.87
 77.57     547.00
 77.67     510.38
 77.77     540.30
 77.87     579.31
 77.97     528.22
 78.07     553.83
 78.17     519.00
 78.27     531.65
 78.37     492.86
 78.47     519.00
 78.57     546.00
 78.67     534.00
 78.77     479.00
 78.87     571.63
 78.97     579.00
 79.07     536.70
 79.17     490.00
 79.27     540.00
 79.37     520.00
 79.47     532.94
 79.57     556.15
 79.67     534.00
 79.77     568.11
 79.87     545.22
 79.97     577.00
 80.07     581.46
 80.17     594.56
 80.27     575.73
 80.37     561.00
 80.47     614.00
 80.57     636.00
 80.67     679.26
 80.77     686.00
 80.87     649.00
 80.97     661.17
 81.07     694.47
 81.17     714.00
 81.27     728.87
 81.37     777.00
 81.47     770.95
 81.57     749.24
 81.67     736.94
 81.77     756.00
 81.87     669.00
 81.97     701.00
 82.07     637.00
 82.17     690.00
 82.27     662.00
 82.37     631.30
 82.47     567.69
 82.57     604.00
 82.67     549.26
 82.77     566.00
 82.87     605.40
 82.97     579.00
 83.07     554.87
 83.17     590.00
 83.27     543.00
 83.37     525.00
 83.47     528.50
 83.57     523.00
 83.67     577.00
 83.77     595.00
 83.87     570.00
 83.97     564.00
 84.07     547.00
 84.17     594.00
 84.27     615.24
 84.37     554.00
 84.47     580.00
 84.57     591.85
 84.67     567.00
 84.77     564.00
 84.87     538.00
 84.97     534.00
 85.07     541.00
 85.17     564.00
 85.27     515.00
 85.37     562.00
 85.47     505.08
 85.57     570.00
 85.67     555.00
 85.77     573.83
 85.87     551.00
 85.97     575.75
 86.07     520.00
 86.17     573.00
 86.27     529.00
 86.37     543.00
 86.47     547.00
 86.57     566.33
 86.67     559.22
 86.77     574.00
 86.87     634.83
 86.97     561.99
 87.07     642.35
 87.17     623.00
 87.27     611.00
 87.37     621.33
 87.47     646.00
 87.57     665.00
 87.67     588.29
 87.77     615.47
 87.87     643.00
 87.97     609.00
 88.07     553.05
 88.17     612.92
 88.27     560.00
 88.37     581.00
 88.47     606.00
 88.57     571.00
 88.67     526.46
 88.77     565.10
 88.87     616.00
 88.97     558.11
 89.07     632.00
 89.17     624.00
 89.27     594.00
 89.37     588.00
 89.47     625.00
 89.57     589.00
 89.67     618.24
 89.77     581.50
 89.87     537.00
 89.97     612.50
 90.07     537.70
 90.17     605.07
 90.27     583.51
 90.37     518.00
 90.47     495.00
 90.57     520.00
 90.67     515.00
 90.77     508.00
 90.87     507.70
 90.97     533.00
 91.07     555.06
 91.17     521.00
 91.27     532.00
 91.37     512.00
 91.47     535.00
 91.57     496.00
 91.67     566.20
 91.77     534.00
 91.87     523.00
 91.97     572.54
 92.07     566.00
 92.17     545.00
 92.27     594.00
 92.37     657.00
 92.47     655.48
 92.57     669.74
 92.67     649.00
 92.77     671.17
 92.87     701.00
 92.97     728.00
 93.07     777.11
 93.17     749.00
 93.27     821.01
 93.37     787.81
 93.47     742.44
 93.57     780.49
 93.67     796.00
 93.77     847.00
 93.87     912.00
 93.97     787.50
 94.07     847.00
 94.17     815.00
 94.27     851.00
 94.37     883.00
 94.47     917.00
 94.57     902.00
 94.67     913.43
 94.77     962.00
 94.87     913.00
 94.97     905.00
 95.07     894.94
 95.17     805.38
 95.27     878.00
 95.37     813.00
 95.47     756.15
 95.57     834.00
 95.67     682.82
 95.77     723.00
 95.87     676.30
 95.97     726.00
 96.07     733.00
 96.17     719.64
 96.27     738.00
 96.37     739.89
 96.47     795.00
 96.57     917.00
 96.67     933.00
 96.77     971.00
 96.87    1062.59
 96.97    1140.00
 97.07    1227.00
 97.17    1265.00
 97.27    1372.00
 97.37    1444.03
 97.47    1424.00
 97.57    1451.00
 97.67    1411.45
 97.77    1320.00
 97.87    1321.00
 97.97    1299.07
 98.07    1216.00
 98.17    1133.84
 98.27    1051.00
 98.37     965.00
 98.47     942.00
 98.57     961.00
 98.67     835.27
 98.77     805.86
 98.87     824.00
 98.97     830.00
 99.07     825.00
 99.17     855.00
 99.27     891.00
 99.37     968.00
 99.47    1032.00
 99.57    1068.55
 99.67    1207.00
 99.77    1326.00
 99.87    1447.00
 99.97    1531.04
100.07    1654.00
100.17    1734.00
100.27    1798.00
100.37    1936.00
100.47    2037.00
100.57    1922.72
100.67    2093.20
100.77    2081.00
100.87    1940.00
100.97    2033.03
101.07    1912.00
101.17    1823.00
101.27    1757.00
101.37    1661.00
101.47    1581.50
101.57    1454.00
101.67    1415.00
101.77    1295.12
101.87    1230.00
101.97    1250.00
102.07    1260.48
102.17    1196.93
102.27    1118.00
102.37    1144.95
102.47    1158.97
102.57    1067.00
102.67    1082.21
102.77     975.45
102.87     975.46
102.97    1010.00
103.07     961.78
103.17     855.74
103.27     846.00
103.37     789.00
103.47     745.72
103.57     777.20
103.67     720.91
103.77     656.00
103.87     678.66
103.97     662.00
104.07     607.00
104.17     620.13
104.27     581.00
104.37     538.58
104.47     646.00
104.57     574.00
104.67     606.00
104.77     566.00
104.87     532.00
104.97     562.00
105.07     570.00
105.17     529.51
105.27     557.00
105.37     519.00
105.47     577.00
105.57     568.00
105.67     580.20
105.77     618.00
105.87     563.00
105.97     548.41
106.07     660.00
106.17     608.76
106.27     554.87
106.37     634.00
106.47     588.52
106.57     603.00
106.67     608.31
106.77     608.43
106.87     721.00
106.97     683.09
107.07     667.00
107.17     717.00
107.27     632.00
107.37     746.82
107.47     672.00
107.57     656.00
107.67     702.00
107.77     691.00
107.87     676.00
107.97     690.57
108.07     692.00
108.17     684.00
108.27     678.00
108.37     715.53
108.47     724.89
108.57     683.89
108.67     693.00
108.77     742.00
108.87     708.91
108.97     725.00
109.07     691.00
109.17     666.77
109.27     669.00
109.37     635.00
109.47     647.00
109.57     623.00
109.67     656.00
109.77     617.00
109.87     611.00
109.97     573.00
110.07     604.00
110.17     615.00
110.27     545.00
110.37     550.22
110.47     554.00
110.57     544.64
110.67     559.00
110.77     543.00
110.87     570.00
110.97     520.00
111.07     546.00
111.17     539.96
111.27     576.39
111.37     547.25
111.47     553.00
111.57     590.38
111.67     538.00
111.77     596.09
111.87     575.00
111.97     563.78
112.07     558.00
112.17     562.00
112.27     633.00
112.37     594.00
112.47     608.79
112.57     632.44
112.67     606.00
112.77     658.40
112.87     607.00
112.97     608.00
113.07     605.00
113.17     705.11
113.27     631.00
113.37     728.77
113.47     716.00
113.57     728.00
113.67     835.32
113.77     800.94
113.87     860.59
113.97     884.00
114.07     952.71
114.17     995.00
114.27    1084.00
114.37    1162.00
114.47    1303.00
114.57    1432.00
114.67    1518.76
114.77    1683.00
114.87    1951.00
114.97    2105.00
115.07    2325.00
115.17    2567.39
115.27    2777.00
115.37    3182.00
115.47    3510.00
115.57    3903.00
115.67    4144.53
115.77    4490.00
115.87    4826.00
115.97    5257.07
116.07    5693.00
116.17    6051.00
116.27    6117.52
116.37    6584.00
116.47    6641.00
116.57    6887.00
116.67    6701.74
116.77    6763.55
116.87    6608.00
116.97    6484.65
117.07    6201.88
117.17    5946.00
117.27    5693.16
117.37    5182.00
117.47    4915.00
117.57    4469.00
117.67    4208.00
117.77    3990.12
117.87    3541.81
117.97    3245.30
118.07    2851.44
118.17    2541.85
118.27    2289.00
118.37    2053.28
118.47    1744.00
118.57    1553.00
118.67    1376.77
118.77    1243.73
118.87    1211.73
118.97    1013.00
119.07     973.37
119.17     885.40
119.27     786.00
119.37     827.00
119.47     771.00
119.57     688.00
119.67     696.24
119.77     651.80
119.87     665.00
119.97     628.00
120.07     621.11
120.17     595.00
120.27     613.00
120.37     631.00
120.47     600.00
120.57     578.00
120.67     582.00
120.77     576.56
120.87     559.81
120.97     576.41
121.07     562.00
121.17     565.00
121.27     550.00
121.37     552.00
121.47     553.37
121.57     606.00
121.67     624.97
121.77     566.71
121.87     625.25
121.97     594.00
122.07     624.00
122.17     662.00
122.27     567.99
122.37     600.00
122.47     611.00
122.57     643.00
122.67     665.00
122.77     620.00
122.87     616.00
122.97     682.00
123.07     667.00
123.17     629.40
123.27     584.57
123.37     662.94
123.47     650.32
123.57     599.00
123.67     648.00
123.77     668.98
123.87     650.00
123.97     621.00
124.07     640.00
124.17     595.00
124.27     584.00
124.37     642.08
124.47     582.00
124.57     604.98
124.67     600.00
124.77     537.30
124.87     532.75
124.97     563.00
