  9.97     730.00
 10.07     756.89
 10.17     773.00
 10.27     755.00
 10.37     757.44
 10.47     714.00
 10.57     786.00
 10.67     735.82
 10.77     774.16
 10.87     757.00
 10.97     776.00
 11.07     763.00
 11.17     763.00
 11.27     677.70
 11.37     703.47
 11.47     744.00
 11.57     776.00
 11.67     756.00
 11.77     799.00
 11.87     881.00
 11.97     830.00
 12.07     815.21
 12.17     800.00
 12.27     877.00
 12.37     845.00
 12.47     890.00
 12.57     770.00
 12.67     735.00
 12.77     691.00
 12.87     721.00
 12.97     772.14
 13.07     691.00
 13.17     663.00
 13.27     744.04
 13.37     667.00
 13.47     683.00
 13.57     751.00
 13.67     675.00
 13.77     678.60
 13.87     719.00
 13.97     676.31
 14.07     723.43
 14.17     693.00
 14.27     682.54
 14.37     646.21
 14.47     701.00
 14.57     722.60
 14.67     638.51
 14.77     656.00
 14.87     720.00
 14.97     731.00
 15.07     645.00
 15.17     735.09
 15.27     710.19
 15.37     650.00
 15.47     674.00
 15.57     704.00
 15.67     633.59
 15.77     686.45
 15.87     702.00
 15.97     680.00
 16.07     652.00
 16.17     731.47
 16.27     658.00
 16.37     681.00
 16.47     683.00
 16.57     676.00
 16.67     681.00
 16.77     635.20
 16.87     620.54
 16.97     638.76
 17.07     650.57
 17.17     684.75
 17.27     690.23
 17.37     691.00
 17.47     675.89
 17.57     704.51
 17.67     673.04
 17.77     708.53
 17.87     630.00
 17.97     704.43
 18.07     617.32
 18.17     657.89
 18.27     703.00
 18.37     669.00
 18.47     694.71
 18.57     647.00
 18.67     631.00
 18.77     667.00
 18.87     665.04
 18.97     674.79
 19.07     626.00
 19.17     659.00
 19.27     637.20
 19.37     610.99
 19.47     675.39
 19.57     613.95
 19.67     615.36
 19.77     621.94
 19.87     631.00
 19.97     626.95
 20.07     621.00
 20.17     593.00
 20.27     683.00
 20.37     633.00
 20.47     666.00
 20.57     612.00
 20.67     660.00
 20.77     670.51
 20.87     645.00
 20.97     610.21
 21.07     626.00
 21.17     672.87
 21.27     626.47
 21.37     633.00
 21.47     691.26
 21.57     609.00
 21.67     641.00
 21.77     647.00
 21.87     633.00
 21.97     623.00
 22.07     669.00
 22.17     639.00
 22.27     674.60
 22.37     666.00
 22.47     616.00
 22.57     678.60
 22.67     636.00
 22.77     635.00
 22.87     598.00
 22.97     623.00
 23.07     612.91
 23.17     635.00
 23.27     651.00
 23.37     638.72
 23.47     602.23
 23.57     610.92
 23.67     612.37
 23.77     710.00
 23.87     688.78
 23.97     679.72
 24.07     660.22
 24.17     615.00
 24.27     649.00
 24.37     637.00
 24.47     672.00
 24.57     649.00
 24.67     644.32
 24.77     725.00
 24.87     716.00
 24.97     710.00
 25.07     737.78
 25.17     721.00
 25.27     760.00
 25.37     671.87
 25.47     641.00
 25.57     702.00
 25.67     684.00
 25.77     699.81
 25.87     674.00
 25.97     677.00
 26.07     649.00
 26.17     671.00
 26.27     686.13
 26.37     685.29
 26.47     663.00
 26.57     681.00
 26.67     707.00
 26.77     676.00
 26.87     704.00
 26.97     692.00
 27.07     762.43
 27.17     696.33
 27.27     733.00
 27.37     743.00
 27.47     755.00
 27.57     837.00
 27.67     880.00
 27.77     888.00
 27.87    1069.00
 27.97    1396.88
 28.07    2075.80
 28.17    3327.00
 28.27    5462.00
 28.37    8046.46
 28.47    9053.00
 28.57    8646.00
 28.67    6857.00
 28.77    4893.00
 28.87    3986.04
 28.97    4001.00
 29.07    4787.00
 29.17    4945.83
 29.27    4849.15
 29.37    3755.00
 29.47    2609.00
 29.57    1834.00
 29.67    1367.54
 29.77    1043.00
 29.87     943.00
 29.97     914.00
 30.07     823.51
 30.17     810.00
 30.27     761.63
 30.37     772.00
 30.47     738.32
 30.57     772.00
 30.67     659.53
 30.77     759.28
 30.87     729.00
 30.97     765.73
 31.07     803.00
 31.17     838.39
 31.27     901.00
 31.37     827.00
 31.47     691.18
 31.57     728.67
 31.67     714.00
 31.77     710.00
 31.87     676.00
 31.97     657.00
 32.07     599.50
 32.17     676.00
 32.27     646.00
 32.37     662.00
 32.47     692.00
 32.57     639.00
 32.67     646.00
 32.77     694.00
 32.87     699.00
 32.97     610.00
 33.07     653.00
 33.17     683.00
 33.27     690.68
 33.37     652.00
 33.47     662.83
 33.57     681.00
 33.67     672.00
 33.77     713.00
 33.87     816.33
 33.97     799.00
 34.07     917.36
 34.17    1050.00
 34.27    1259.00
 34.37    1318.00
 34.47    1218.96
 34.57    1090.22
 34.67     913.00
 34.77     839.00
 34.87     770.64
 34.97     741.00
 35.07     619.68
 35.17     657.71
 35.27     631.73
 35.37     612.58
 35.47     607.91
 35.57     676.50
 35.67     635.00
 35.77     668.00
 35.87     658.00
 35.97     610.03
 36.07     633.15
 36.17     572.41
 36.27     631.47
 36.37     608.00
 36.47     593.00
 36.57     588.36
 36.67     568.68
 36.77     571.57
 36.87     618.00
 36.97     643.00
 37.07     648.00
 37.17     595.00
 37.27     638.00
 37.37     636.00
 37.47     637.00
 37.57     672.26
 37.67     628.66
 37.77     619.00
 37.87     706.15
 37.97     736.08
 38.07     689.00
 38.17     741.51
 38.27     768.00
 38.37     786.63
 38.47     815.00
 38.57     706.00
 38.67     720.00
 38.77     734.00
 38.87     655.00
 38.97     634.00
 39.07     649.00
 39.17     616.00
 39.27     619.22
 39.37     621.00
 39.47     655.17
 39.57     594.00
 39.67     603.00
 39.77     593.00
 39.87     637.00
 39.97     657.00
 40.07     598.95
 40.17     601.00
 40.27     635.00
 40.37     643.00
 40.47     641.00
 40.57     632.00
 40.67     583.40
 40.77     610.00
 40.87     672.00
 40.97     635.32
 41.07     629.31
 41.17     589.40
 41.27     593.00
 41.37     567.00
 41.47     630.00
 41.57     600.00
 41.67     594.00
 41.77     589.00
 41.87     565.00
 41.97     602.00
 42.07     601.00
 42.17     665.26
 42.27     636.00
 42.37     674.08
 42.47     591.62
 42.57     590.00
 42.67     625.00
 42.77     677.98
 42.87     681.00
 42.97     712.00
 43.07     668.00
 43.17     682.43
 43.27     706.49
 43.37     687.00
 43.47     601.00
 43.57     613.00
 43.67     608.00
 43.77     603.60
 43.87     632.41
 43.97     639.00
 44.07     664.00
 44.17     583.00
 44.27     600.00
 44.37     589.24
 44.47     643.00
 44.57     603.80
 44.67     637.00
 44.77     650.00
 44.87     624.38
 44.97     570.16
 45.07     651.47
 45.17     610.00
 45.27     630.00
 45.37     645.00
 45.47     644.00
 45.57     637.24
 45.67     575.00
 45.77     653.00
 45.87     632.00
 45.97     598.00
 46.07     637.00
 46.17     598.00
 46.27     636.43
 46.37     619.00
 46.47     659.00
 46.57     653.00
 46.67     661.00
 46.77     617.00
 46.87     578.15
 46.97     649.90
 47.07     604.00
 47.17     639.00
 47.27     576.95
 47.37     649.29
 47.47     624.00
 47.57     637.90
 47.67     676.00
 47.77     692.87
 47.87     619.00
 47.97     702.00
 48.07     721.00
 48.17     675.00
 48.27     699.98
 48.37     644.00
 48.47     694.33
 48.57     692.00
 48.67     640.00
 48.77     670.00
 48.87     656.00
 48.97     657.00
 49.07     616.00
 49.17     659.00
 49.27     674.00
 49.37     666.00
 49.47     700.00
 49.57     680.00
 49.67     733.00
 49.77     722.00
 49.87     814.00
 49.97     921.75
 50.07    1231.63
 50.17    1484.40
 50.27    1877.00
 50.37    2438.38
 50.47    2874.00
 50.57    3240.00
 50.67    3202.51
 50.77    2998.00
 50.87    2502.00
 50.97    1966.00
 51.07    1510.00
 51.17    1247.62
 51.27    1047.00
 51.37     923.00
 51.47     766.19
 51.57     786.00
 51.67     807.00
 51.77     772.00
 51.87     706.01
 51.97     791.00
 52.07     686.28
 52.17     720.00
 52.27     742.00
 52.37     741.00
 52.47     692.44
 52.57     719.00
 52.67     644.10
 52.77     688.00
 52.87     719.00
 52.97     677.00
 53.07     702.00
 53.17     693.00
 53.27     743.00
 53.37     745.00
 53.47     827.41
 53.57     943.00
 53.67    1041.00
 53.77    1154.00
 53.87    1275.00
 53.97    1273.44
 54.07    1326.00
 54.17    1238.00
 54.27    1227.00
 54.37    1060.00
 54.47     933.00
 54.57     867.00
 54.67     849.00
 54.77     740.00
 54.87     738.84
 54.97     763.05
 55.07     699.00
 55.17     682.01
 55.27     646.00
 55.37     690.00
 55.47     683.00
 55.57     687.00
 55.67     681.00
 55.77     683.00
 55.87     704.00
 55.97     740.00
 56.07     689.00
 56.17     735.42
 56.27     781.24
 56.37     836.75
 56.47     793.00
 56.57     900.98
 56.67    1014.00
 56.77    1204.00
 56.87    1390.39
 56.97    1776.88
 57.07    2144.91
 57.17    2380.69
 57.27    2697.00
 57.37    2795.00
 57.47    2712.00
 57.57    2429.00
 57.67    2173.73
 57.77    1821.25
 57.87    1577.92
 57.97    1257.17
 58.07    1066.00
 58.17     990.00
 58.27     908.00
 58.37     864.00
 58.47     870.00
 58.57     781.37
 58.67     842.78
 58.77     859.00
 58.87     920.61
 58.97    1042.00
 59.07    1158.31
 59.17    1178.94
 59.27    1255.00
 59.37    1293.21
 59.47    1379.00
 59.57    1438.44
 59.67    1341.00
 59.77    1288.06
 59.87    1245.10
 59.97    1215.68
 60.07    1257.00
 60.17    1237.37
 60.27    1304.00
 60.37    1413.00
 60.47    1529.00
 60.57    1559.99
 60.67    1668.00
 60.77    1604.00
 60.87    1556.00
 60.97    1422.40
 61.07    1414.61
 61.17    1268.60
 61.27    1119.00
 61.37    1002.00
 61.47     907.00
 61.57     825.90
 61.67     879.40
 61.77     851.00
 61.87     899.00
 61.97     904.00
 62.07    1027.39
 62.17    1124.00
 62.27    1309.00
 62.37    1482.97
 62.47    1631.00
 62.57    1792.00
 62.67    1881.00
 62.77    1827.00
 62.87    1764.00
 62.97    1706.00
 63.07    1517.00
 63.17    1308.91
 63.27    1096.00
 63.37     965.00
 63.47     895.00
 63.57     844.00
 63.67     811.00
 63.77     818.72
 63.87     796.13
 63.97     762.00
 64.07     721.10
 64.17     814.20
 64.27     778.00
 64.37     800.00
 64.47     800.58
 64.57     932.00
 64.67    1036.00
 64.77    1147.83
 64.87    1227.00
 64.97    1328.00
 65.07    1506.99
 65.17    1707.00
 65.27    1668.00
 65.37    1750.00
 65.47    1584.41
 65.57    1548.83
 65.67    1513.00
 65.77    1201.42
 65.87    1169.19
 65.97     958.00
 66.07     963.25
 66.17     854.00
 66.27     754.00
 66.37     773.00
 66.47     838.66
 66.57     737.32
 66.67     719.00
 66.77     735.00
 66.87     690.00
 66.97     783.44
 67.07     738.00
 67.17     703.00
 67.27     695.00
 67.37     763.00
 67.47     780.00
 67.57     814.00
 67.67     854.00
 67.77     948.00
 67.87    1056.74
 67.97    1185.90
 68.07    1285.00
 68.17    1557.00
 68.27    1810.00
 68.37    2095.25
 68.47    2176.00
 68.57    2407.00
 68.67    2517.00
 68.77    2623.00
 68.87    2460.00
 68.97    2323.59
 69.07    2092.43
 69.17    1849.61
 69.27    1547.36
 69.37    1336.00
 69.47    1230.48
 69.57    1005.83
 69.67     994.00
 69.77     972.00
 69.87     823.00
 69.97     825.00
 70.07     818.00
 70.17     778.23
 70.27     691.15
 70.37     742.04
 70.47     746.00
 70.57     708.56
 70.67     732.00
 70.77     761.30
 70.87     782.00
 70.97     722.00
 71.07     682.00
 71.17     752.00
 71.27     731.07
 71.37     699.00
 71.47     817.05
 71.57     774.26
 71.67     846.08
 71.77     896.48
 71.87    1012.28
 71.97    1072.87
 72.07    1212.00
 72.17    1328.00
 72.27    1598.14
 72.37    1710.00
 72.47    1838.00
 72.57    1946.00
 72.67    1982.62
 72.77    2046.00
 72.87    2026.87
 72.97    1826.00
 73.07    1744.00
 73.17    1590.00
 73.27    1335.00
 73.37    1242.07
 73.47    1072.24
 73.57     934.66
 73.67     892.26
 73.77     831.00
 73.87     786.00
 73.97     801.00
 74.07     722.00
 74.17     720.00
 74.27     704.43
 74.37     695.00
 74.47     653.00
 74.57     640.93
 74.67     638.94
 74.77     698.00
 74.87     733.00
 74.97     703.00
 75.07     688.00
 75.17     740.00
 75.27     687.29
 75.37     659.85
 75.47     740.00
 75.57     680.14
 75.67     667.67
 75.77     780.00
 75.87     694.00
 75.97     658.92
 76.07     731.00
 76.17     754.95
 76.27     750.00
 76.37     706.00
 76.47     758.00
 76.57     761.00
 76.67     833.00
 76.77     881.00
 76.87     900.00
 76.97     995.99
 77.07    1066.00
 77.17    1055.00
 77.27    1108.35
 77.37    1097.40
 77.47    1079.00
 77.57    1058.00
 77.67    1018.00
 77.77     946.36
 77.87     867.00
 77.97     854.00
 78.07     743.00
 78.17     731.99
 78.27     731.72
 78.37     739.00
 78.47     647.00
 78.57     671.00
 78.67     639.60
 78.77     658.00
 78.87     688.00
 78.97     651.00
 79.07     667.95
 79.17     603.07
 79.27     694.27
 79.37     674.00
 79.47     642.00
 79.57     650.06
 79.67     663.78
 79.77     595.00
 79.87     613.00
 79.97     641.00
 80.07     675.00
 80.17     617.00
 80.27     642.00
 80.37     655.00
 80.47     716.76
 80.57     682.69
 80.67     769.00
 80.77     806.00
 80.87     839.00
 80.97     936.00
 81.07     965.00
 81.17    1093.00
 81.27    1144.00
 81.37    1279.00
 81.47    1211.24
 81.57    1357.56
 81.67    1465.09
 81.77    1562.00
 81.87    1665.00
 81.97    1584.00
 82.07    1566.00
 82.17    1517.00
 82.27    1310.70
 82.37    1317.83
 82.47    1234.00
 82.57    1135.00
 82.67    1104.00
 82.77     973.00
 82.87     996.95
 82.97     856.00
 83.07     818.00
 83.17     851.00
 83.27     745.00
 83.37     727.00
 83.47     705.00
 83.57     689.13
 83.67     696.00
 83.77     683.00
 83.87     659.11
 83.97     713.08
 84.07     648.00
 84.17     666.00
 84.27     658.00
 84.37     692.00
 84.47     688.00
 84.57     713.64
 84.67     739.34
 84.77     673.00
 84.87     687.01
 84.97     649.00
 85.07     652.00
 85.17     688.00
 85.27     659.00
 85.37     715.54
 85.47     674.14
 85.57     672.18
 85.67     619.93
 85.77     674.96
 85.87     624.00
 85.97     591.28
 86.07     647.00
 86.17     607.91
 86.27     624.00
 86.37     600.25
 86.47     672.00
 86.57     642.00
 86.67     645.00
 86.77     690.00
 86.87     695.35
 86.97     621.51
 87.07     615.00
 87.17     694.00
 87.27     681.00
 87.37     715.00
 87.47     673.00
 87.57     689.73
 87.67     738.00
 87.77     671.00
 87.87     723.00
 87.97     731.00
 88.07     742.00
 88.17     779.18
 88.27     736.23
 88.37     738.00
 88.47     744.56
 88.57     719.00
 88.67     739.10
 88.77     703.37
 88.87     763.82
 88.97     728.00
 89.07     684.00
 89.17     629.00
 89.27     703.00
 89.37     628.00
 89.47     660.00
 89.57     653.00
 89.67     704.00
 89.77     708.00
 89.87     684.00
 89.97     699.00
 90.07     725.22
 90.17     694.07
 90.27     706.33
 90.37     628.00
 90.47     708.00
 90.57     701.00
 90.67     701.00
 90.77     663.00
 90.87     676.12
 90.97     700.22
 91.07     634.00
 91.17     605.00
 91.27     640.00
 91.37     597.00
 91.47     618.00
 91.57     608.00
 91.67     623.00
 91.77     620.00
 91.87     592.00
 91.97     590.87
 92.07     646.27
 92.17     610.00
 92.27     623.00
 92.37     566.72
 92.47     622.00
 92.57     670.00
 92.67     645.00
 92.77     634.81
 92.87     641.00
 92.97     643.00
 93.07     667.35
 93.17     618.50
 93.27     695.00
 93.37     710.93
 93.47     699.13
 93.57     726.73
 93.67     752.05
 93.77     794.00
 93.87     778.01
 93.97     782.00
 94.07     805.00
 94.17     858.90
 94.27     820.47
 94.37     847.00
 94.47     919.48
 94.57     961.99
 94.67     927.00
 94.77     950.73
 94.87     931.00
 94.97     923.46
 95.07    1001.00
 95.17    1024.00
 95.27    1040.00
 95.37    1090.00
 95.47    1059.00
 95.57    1061.00
 95.67    1017.00
 95.77    1102.00
 95.87    1010.51
 95.97    1093.00
 96.07     985.00
 96.17     989.00
 96.27    1025.46
 96.37     993.00
 96.47     911.00
 96.57     816.09
 96.67     875.00
 96.77     814.33
 96.87     842.00
 96.97     869.00
 97.07     863.00
 97.17     834.96
 97.27     937.93
 97.37     930.00
 97.47     930.00
 97.57    1071.00
 97.67    1115.25
 97.77    1209.00
 97.87    1241.00
 97.97    1330.00
 98.07    1371.00
 98.17    1443.00
 98.27    1577.00
 98.37    1564.76
 98.47    1641.17
 98.57    1639.87
 98.67    1653.00
 98.77    1572.12
 98.87    1498.00
 98.97    1493.00
 99.07    1419.00
 99.17    1365.42
 99.27    1298.51
 99.37    1243.00
 99.47    1163.00
 99.57    1104.00
 99.67    1125.09
 99.77    1021.26
 99.87    1077.20
 99.97    1091.73
100.07    1073.49
100.17    1100.68
100.27    1087.00
100.37    1153.00
100.47    1235.61
100.57    1209.00
100.67    1356.00
100.77    1367.00
100.87    1432.80
100.97    1573.00
101.07    1738.39
101.17    1740.59
101.27    1839.00
101.37    1940.00
101.47    2005.47
101.57    1964.37
101.67    2075.03
101.77    2192.04
101.87    2188.00
101.97    2241.33
102.07    2062.35
102.17    2158.07
102.27    2086.00
102.37    2116.48
102.47    1889.00
102.57    1928.00
102.67    1778.70
102.77    1675.00
102.87    1588.00
102.97    1604.50
103.07    1552.47
103.17    1552.58
103.27    1413.00
103.37    1406.00
103.47    1403.00
103.57    1349.00
103.67    1256.00
103.77    1245.00
103.87    1201.00
103.97    1167.00
104.07    1131.33
104.17    1151.03
104.27    1065.08
104.37    1034.00
104.47     974.00
104.57     974.00
104.67     923.00
104.77     906.00
104.87     877.05
104.97     856.00
105.07     776.04
105.17     764.00
105.27     755.13
105.37     680.75
105.47     709.38
105.57     715.00
105.67     622.48
105.77     646.06
105.87     650.84
105.97     578.36
106.07     660.77
106.17     606.59
106.27     634.00
106.37     610.00
106.47     627.00
106.57     637.05
106.67     605.01
106.77     643.00
106.87     642.00
106.97     671.39
107.07     664.00
107.17     660.00
107.27     689.00
107.37     715.00
107.47     700.00
107.57     754.80
107.67     736.00
107.77     751.00
107.87     776.88
107.97     817.00
108.07     818.00
108.17     778.00
108.27     773.00
108.37     772.47
108.47     794.00
108.57     824.00
108.67     816.00
108.77     842.00
108.87     772.00
108.97     828.00
109.07     796.00
109.17     827.00
109.27     750.00
109.37     764.38
109.47     842.00
109.57     840.34
109.67     749.00
109.77     816.32
109.87     778.00
109.97     828.17
110.07     779.00
110.17     759.00
110.27     819.01
110.37     797.67
110.47     784.00
110.57     772.00
110.67     790.00
110.77     779.28
110.87     751.00
110.97     770.00
111.07     722.00
111.17     764.00
111.27     693.00
111.37     667.00
111.47     718.53
111.57     673.40
111.67     684.28
111.77     695.08
111.87     675.00
111.97     620.00
112.07     662.00
112.17     596.39
112.27     621.00
112.37     589.41
112.47     719.00
112.57     593.00
112.67     655.00
112.77     625.00
112.87     586.17
112.97     594.00
113.07     677.15
113.17     661.11
113.27     616.00
113.37     661.00
113.47     621.00
113.57     637.84
113.67     676.06
113.77     698.67
113.87     671.22
113.97     711.00
114.07     661.01
114.17     648.00
114.27     670.00
114.37     723.00
114.47     765.00
114.57     708.00
114.67     743.00
114.77     756.00
114.87     722.37
114.97     734.00
115.07     831.00
115.17     844.83
115.27     947.00
115.37     988.00
115.47    1018.89
115.57    1067.47
115.67    1215.97
115.77    1279.00
115.87    1510.69
115.97    1594.00
116.07    1891.00
116.17    2066.42
116.27    2373.00
116.37    2563.00
116.47    2697.48
116.57    3070.00
116.67    3534.00
116.77    3844.00
116.87    4209.00
116.97    4559.00
117.07    5072.60
117.17    5413.00
117.27    5716.00
117.37    6172.00
117.47    6270.00
117.57    6839.02
117.67    7181.00
117.77    7343.80
117.87    7514.92
117.97    7455.00
118.07    7599.00
118.17    7571.51
118.27    7399.00
118.37    7315.00
118.47    7006.93
118.57    6969.09
118.67    6597.00
118.77    6159.93
118.87    5724.00
118.97    5290.00
119.07    5066.00
119.17    4725.13
119.27    4326.00
119.37    3995.87
119.47    3672.00
119.57    3249.00
119.67    3058.06
119.77    2697.20
119.87    2389.22
119.97    2228.00
120.07    1997.00
120.17    1906.42
120.27    1710.00
120.37    1601.00
120.47    1461.00
120.57    1332.70
120.67    1212.70
120.77    1152.00
120.87    1009.21
120.97    1003.00
121.07     941.12
121.17     957.22
121.27     877.00
121.37     861.00
121.47     815.00
121.57     760.71
121.67     736.35
121.77     737.00
121.87     721.00
121.97     770.00
122.07     702.74
122.17     740.00
122.27     739.00
122.37     789.24
122.47     697.00
122.57     620.00
122.67     676.00
122.77     734.00
122.87     714.00
122.97     735.87
123.07     731.00
123.17     699.00
123.27     761.00
123.37     750.00
123.47     741.00
123.57     762.15
123.67     787.10
123.77     766.92
123.87     773.00
123.97     792.00
124.07     816.38
124.17     763.87
124.27     833.89
124.37     804.02
124.47     847.38
124.57     774.00
124.67     873.00
124.77     896.00
124.87     799.09
124.97     827.78
