  9.97     589.00
 10.07     506.73
 10.17     564.00
 10.27     595.89
 10.37     571.00
 10.47     543.00
 10.57     592.00
 10.67     589.00
 10.77     511.40
 10.87     514.24
 10.97     559.83
 11.07     609.00
 11.17     597.00
 11.27     549.76
 11.37     622.00
 11.47     574.00
 11.57     570.00
 11.67     596.21
 11.77     650.00
 11.87     601.00
 11.97     634.00
 12.07     681.00
 12.17     692.00
 12.27     646.52
 12.37     696.27
 12.47     635.61
 12.57     596.00
 12.67     572.00
 12.77     563.00
 12.87     556.00
 12.97     548.00
 13.07     577.00
 13.17     531.00
 13.27     499.00
 13.37     534.10
 13.47     518.00
 13.57     555.00
 13.67     588.63
 13.77     583.00
 13.87     566.00
 13.97     522.00
 14.07     531.00
 14.17     578.00
 14.27     549.00
 14.37     571.20
 14.47     537.00
 14.57     548.00
 14.67     591.35
 14.77     521.00
 14.87     539.00
 14.97     598.00
 15.07     598.39
 15.17     532.57
 15.27     556.00
 15.37     588.29
 15.47     596.00
 15.57     562.00
 15.67     517.87
 15.77     537.00
 15.87     559.00
 15.97     583.00
 16.07     573.00
 16.17     559.00
 16.27     533.26
 16.37     516.00
 16.47     523.00
 16.57     546.00
 16.67     543.00
 16.77     505.00
 16.87     520.00
 16.97     561.00
 17.07     546.00
 17.17     614.00
 17.27     586.66
 17.37     514.00
 17.47     553.00
 17.57     540.00
 17.67     549.06
 17.77     532.00
 17.87     540.00
 17.97     608.98
 18.07     574.00
 18.17     589.00
 18.27     538.00
 18.37     551.00
 18.47     517.00
 18.57     591.00
 18.67     578.00
 18.77     582.77
 18.87     585.43
 18.97     517.95
 19.07     581.32
 19.17     548.00
 19.27     564.00
 19.37     571.22
 19.47     542.00
 19.57     517.00
 19.67     559.00
 19.77     523.00
 19.87     577.00
 19.97     575.00
 20.07     522.67
 20.17     562.00
 20.27     542.55
 20.37     534.35
 20.47     577.76
 20.57     575.00
 20.67     580.00
 20.77     565.00
 20.87     562.00
 20.97     547.00
 21.07     520.47
 21.17     590.00
 21.27     590.76
 21.37     555.00
 21.47     515.77
 21.57     545.00
 21.67     531.00
 21.77     593.27
 21.87     599.58
 21.97     571.03
 22.07     572.00
 22.17     540.60
 22.27     543.18
 22.37     555.00
 22.47     542.77
 22.57     541.01
 22.67     545.00
 22.77     564.00
 22.87     586.00
 22.97     562.00
 23.07     553.00
 23.17     560.00
 23.27     517.33
 23.37     591.00
 23.47     515.26
 23.57     557.00
 23.67     554.00
 23.77     559.58
 23.87     525.10
 23.97     552.00
 24.07     583.00
 24.17     582.00
 24.27     533.41
 24.37     583.00
 24.47     561.59
 24.57     629.24
 24.67     656.00
 24.77     634.00
 24.87     599.00
 24.97     680.00
 25.07     632.00
 25.17     633.72
 25.27     531.17
 25.37     519.00
 25.47     527.59
 25.57     522.00
 25.67     596.00
 25.77     533.50
 25.87     535.12
 25.97     570.00
 26.07     563.21
 26.17     561.00
 26.27     503.85
 26.37     564.00
 26.47     522.22
 26.57     581.00
 26.67     586.86
 26.77     562.18
 26.87     510.34
 26.97     564.65
 27.07     560.96
 27.17     503.62
 27.27     532.73
 27.37     563.00
 27.47     514.69
 27.57     577.93
 27.67     559.00
 27.77     566.00
 27.87     563.27
 27.97     607.67
 28.07     756.16
 28.17     856.85
 28.27     922.00
 28.37     940.00
 28.47     849.00
 28.57     809.29
 28.67     745.35
 28.77     696.00
 28.87     822.28
 28.97     809.07
 29.07     797.00
 29.17     766.00
 29.27     703.84
 29.37     644.56
 29.47     655.00
 29.57     612.00
 29.67     517.23
 29.77     592.00
 29.87     614.00
 29.97     635.00
 30.07     534.00
 30.17     524.94
 30.27     527.19
 30.37     584.00
 30.47     533.37
 30.57     583.44
 30.67     579.00
 30.77     603.00
 30.87     638.00
 30.97     605.93
 31.07     586.68
 31.17     622.00
 31.27     613.00
 31.37     620.00
 31.47     571.00
 31.57     565.00
 31.67     549.16
 31.77     532.82
 31.87     512.88
 31.97     511.00
 32.07     540.37
 32.17     535.00
 32.27     523.29
 32.37     501.54
 32.47     550.00
 32.57     548.91
 32.67     498.95
 32.77     529.00
 32.87     545.00
 32.97     519.00
 33.07     522.00
 33.17     526.06
 33.27     551.00
 33.37     536.00
 33.47     590.00
 33.57     563.16
 33.67     608.00
 33.77     672.00
 33.87     758.17
 33.97     845.00
 34.07     998.00
 34.17     998.00
 34.27     992.38
 34.37     846.00
 34.47     802.00
 34.57     634.00
 34.67     591.00
 34.77     594.18
 34.87     548.00
 34.97     501.00
 35.07     501.66
 35.17     511.00
 35.27     533.00
 35.37     511.00
 35.47     520.16
 35.57     538.86
 35.67     548.00
 35.77     513.00
 35.87     535.00
 35.97     486.00
 36.07     506.00
 36.17     498.84
 36.27     516.00
 36.37     497.83
 36.47     545.00
 36.57     515.00
 36.67     518.00
 36.77     527.00
 36.87     552.27
 36.97     446.00
 37.07     498.00
 37.17     490.00
 37.27     509.00
 37.37     482.00
 37.47     530.60
 37.57     484.00
 37.67     475.00
 37.77     509.00
 37.87     508.69
 37.97     505.00
 38.07     509.00
 38.17     537.00
 38.27     495.00
 38.37     495.00
 38.47     487.00
 38.57     494.67
 38.67     487.00
 38.77     493.18
 38.87     517.00
 38.97     507.00
 39.07     453.00
 39.17     466.53
 39.27     497.51
 39.37     475.00
 39.47     466.00
 39.57     495.58
 39.67     485.00
 39.77     461.00
 39.87     502.54
 39.97     531.74
 40.07     490.57
 40.17     467.56
 40.27     510.81
 40.37     488.06
 40.47     440.00
 40.57     468.00
 40.67     467.00
 40.77     513.00
 40.87     486.00
 40.97     496.00
 41.07     464.00
 41.17     475.00
 41.27     498.00
 41.37     510.04
 41.47     480.00
 41.57     473.62
 41.67     498.09
 41.77     468.00
 41.87     476.00
 41.97     456.99
 42.07     483.00
 42.17     536.27
 42.27     542.97
 42.37     534.00
 42.47     522.00
 42.57     566.00
 42.67     591.00
 42.77     579.00
 42.87     569.00
 42.97     561.00
 43.07     538.00
 43.17     513.00
 43.27     504.00
 43.37     520.28
 43.47     511.00
 43.57     473.88
 43.67     440.00
 43.77     509.00
 43.87     478.74
 43.97     478.00
 44.07     509.00
 44.17     485.00
 44.27     511.00
 44.37     472.69
 44.47     477.00
 44.57     449.16
 44.67     485.00
 44.77     511.18
 44.87     450.00
 44.97     527.88
 45.07     483.00
 45.17     511.00
 45.27     542.00
 45.37     498.00
 45.47     511.00
 45.57     494.00
 45.67     496.00
 45.77     515.00
 45.87     472.00
 45.97     471.20
 46.07     505.00
 46.17     515.23
 46.27     462.01
 46.37     501.00
 46.47     490.00
 46.57     492.00
 46.67     483.00
 46.77     546.00
 46.87     479.00
 46.97     465.00
 47.07     527.00
 47.17     515.00
 47.27     512.43
 47.37     507.00
 47.47     511.00
 47.57     532.00
 47.67     585.00
 47.77     523.76
 47.87     576.00
 47.97     608.00
 48.07     582.00
 48.17     579.70
 48.27     585.76
 48.37     521.00
 48.47     557.00
 48.57     486.19
 48.67     533.00
 48.77     534.00
 48.87     513.54
 48.97     488.00
 49.07     522.18
 49.17     528.00
 49.27     584.62
 49.37     577.81
 49.47     588.45
 49.57     654.00
 49.67     673.00
 49.77     793.69
 49.87    1110.98
 49.97    1297.11
 50.07    1657.18
 50.17    2090.00
 50.27    2378.48
 50.37    2338.00
 50.47    2184.00
 50.57    1956.00
 50.67    1470.00
 50.77    1138.00
 50.87     879.00
 50.97     730.00
 51.07     651.29
 51.17     596.00
 51.27     619.00
 51.37     644.00
 51.47     588.00
 51.57     563.71
 51.67     573.34
 51.77     580.00
 51.87     526.00
 51.97     577.45
 52.07     563.45
 52.17     549.00
 52.27     544.00
 52.37     521.00
 52.47     503.03
 52.57     591.00
 52.67     508.56
 52.77     528.00
 52.87     597.00
 52.97     567.03
 53.07     641.12
 53.17     711.00
 53.27     840.74
 53.37     983.80
 53.47    1107.00
 53.57    1126.00
 53.67    1166.00
 53.77    1108.31
 53.87    1062.00
 53.97     929.00
 54.07     866.70
 54.17     799.06
 54.27     629.00
 54.37     630.00
 54.47     623.00
 54.57     553.55
 54.67     556.37
 54.77     515.73
 54.87     558.00
 54.97     603.00
 55.07     495.83
 55.17     593.00
 55.27     553.34
 55.37     497.00
 55.47     545.00
 55.57     610.00
 55.67     569.92
 55.77     544.03
 55.87     588.00
 55.97     611.00
 56.07     687.00
 56.17     671.00
 56.27     782.67
 56.37     886.00
 56.47    1126.00
 56.57    1366.49
 56.67    1627.00
 56.77    1945.00
 56.87    2365.65
 56.97    2433.34
 57.07    2480.56
 57.17    2424.00
 57.27    2140.20
 57.37    1729.56
 57.47    1520.00
 57.57    1184.21
 57.67    1016.00
 57.77     852.00
 57.87     795.00
 57.97     721.77
 58.07     727.00
 58.17     683.00
 58.27     735.00
 58.37     742.00
 58.47     825.00
 58.57     824.65
 58.67     902.00
 58.77     963.00
 58.87    1068.00
 58.97    1183.00
 59.07    1178.24
 59.17    1275.00
 59.27    1307.00
 59.37    1275.00
 59.47    1192.62
 59.57    1103.09
 59.67    1091.11
 59.77    1187.98
 59.87    1225.00
 59.97    1222.00
 60.07    1288.00
 60.17    1435.00
 60.27    1406.67
 60.37    1566.21
 60.47    1538.88
 60.57    1364.25
 60.67    1320.00
 60.77    1170.51
 60.87     995.00
 60.97     932.00
 61.07     767.00
 61.17     757.00
 61.27     719.00
 61.37     673.00
 61.47     709.40
 61.57     717.00
 61.67     737.77
 61.77     774.00
 61.87     961.54
 61.97    1070.00
 62.07    1136.46
 62.17    1195.00
 62.27    1347.11
 62.37    1427.53
 62.47    1213.00
 62.57    1271.96
 62.67    1118.00
 62.77     901.00
 62.87     823.00
 62.97     707.00
 63.07     730.00
 63.17     647.46
 63.27     563.43
 63.37     586.00
 63.47     554.00
 63.57     590.00
 63.67     566.00
 63.77     573.75
 63.87     609.71
 63.97     582.83
 64.07     615.00
 64.17     712.00
 64.27     748.00
 64.37     813.00
 64.47     833.00
 64.57     867.14
 64.67     919.47
 64.77     950.00
 64.87    1022.00
 64.97     919.47
 65.07     962.00
 65.17     916.98
 65.27     843.86
 65.37     770.00
 65.47     706.57
 65.57     711.00
 65.67     652.94
 65.77     619.32
 65.87     598.09
 65.97     607.10
 66.07     601.46
 66.17     544.55
 66.27     553.00
 66.37     558.00
 66.47     551.00
 66.57     602.12
 66.67     568.59
 66.77     544.00
 66.87     575.00
 66.97     564.00
 67.07     597.43
 67.17     603.00
 67.27     709.00
 67.37     766.04
 67.47     763.00
 67.57     982.00
 67.67    1124.28
 67.77    1362.00
 67.87    1689.83
 67.97    1814.00
 68.07    2038.44
 68.17    2346.00
 68.27    2353.00
 68.37    2222.06
 68.47    2157.00
 68.57    2036.11
 68.67    1658.16
 68.77    1519.76
 68.87    1282.00
 68.97     998.00
 69.07     941.00
 69.17     770.00
 69.27     677.13
 69.37     721.00
 69.47     679.00
 69.57     568.72
 69.67     648.00
 69.77     564.71
 69.87     587.00
 69.97     561.00
 70.07     576.58
 70.17     524.60
 70.27     585.00
 70.37     551.00
 70.47     569.00
 70.57     536.77
 70.67     585.00
 70.77     548.00
 70.87     606.00
 70.97     605.00
 71.07     615.32
 71.17     645.00
 71.27     701.00
 71.37     742.74
 71.47     850.00
 71.57     924.00
 71.67    1201.97
 71.77    1280.23
 71.87    1438.89
 71.97    1574.72
 72.07    1738.00
 72.17    1816.47
 72.27    1786.00
 72.37    1834.66
 72.47    1625.38
 72.57    1663.00
 72.67    1388.00
 72.77    1297.00
 72.87    1060.00
 72.97     987.00
 73.07     896.00
 73.17     800.89
 73.27     755.13
 73.37     670.00
 73.47     658.00
 73.57     658.66
 73.67     644.00
 73.77     619.36
 73.87     672.00
 73.97     592.00
 74.07     549.28
 74.17     623.49
 74.27     611.00
 74.37     532.00
 74.47     531.65
 74.57     588.00
 74.67     602.00
 74.77     594.00
 74.87     650.00
 74.97     587.01
 75.07     603.93
 75.17     558.56
 75.27     557.45
 75.37     570.00
 75.47     613.00
 75.57     555.00
 75.67     560.00
 75.77     527.71
 75.87     519.38
 75.97     598.00
 76.07     597.53
 76.17     594.00
 76.27     646.00
 76.37     632.00
 76.47     669.00
 76.57     684.00
 76.67     683.00
 76.77     723.37
 76.87     688.00
 76.97     647.00
 77.07     694.82
 77.17     626.00
 77.27     592.00
 77.37     596.00
 77.47     596.90
 77.57     609.00
 77.67     496.00
 77.77     552.00
 77.87     483.00
 77.97     539.00
 78.07     527.00
 78.17     466.00
 78.27     502.64
 78.37     481.86
 78.47     504.01
 78.57     552.00
 78.67     522.21
 78.77     479.35
 78.87     467.26
 78.97     505.81
 79.07     517.71
 79.17     463.81
 79.27     550.43
 79.37     514.00
 79.47     522.88
 79.57     505.01
 79.67     519.75
 79.77     551.88
 79.87     555.64
 79.97     484.29
 80.07     520.99
 80.17     522.00
 80.27     543.00
 80.37     514.00
 80.47     572.69
 80.57     555.00
 80.67     577.39
 80.77     566.00
 80.87     594.00
 80.97     629.00
 81.07     633.99
 81.17     699.00
 81.27     716.84
 81.37     707.00
 81.47     695.25
 81.57     711.00
 81.67     737.23
 81.77     691.00
 81.87     691.00
 81.97     749.00
 82.07     705.24
 82.17     683.00
 82.27     704.13
 82.37     637.00
 82.47     655.84
 82.57     585.00
 82.67     569.00
 82.77     551.00
 82.87     576.00
 82.97     570.00
 83.07     579.33
 83.17     582.12
 83.27     537.00
 83.37     536.00
 83.47     498.00
 83.57     498.00
 83.67     475.00
 83.77     498.00
 83.87     503.00
 83.97     526.00
 84.07     522.00
 84.17     570.00
 84.27     521.00
 84.37     559.01
 84.47     552.47
 84.57     542.69
 84.67     551.00
 84.77     558.54
 84.87     520.00
 84.97     520.00
 85.07     493.00
 85.17     497.10
 85.27     505.00
 85.37     511.00
 85.47     485.00
 85.57     483.00
 85.67     477.56
 85.77     520.00
 85.87     452.00
 85.97     513.00
 86.07     510.00
 86.17     464.42
 86.27     530.00
 86.37     526.00
 86.47     466.17
 86.57     550.00
 86.67     528.00
 86.77     532.88
 86.87     553.67
 86.97     515.95
 87.07     611.00
 87.17     546.00
 87.27     582.00
 87.37     631.00
 87.47     556.38
 87.57     566.00
 87.67     588.00
 87.77     602.17
 87.87     579.00
 87.97     565.00
 88.07     651.00
 88.17     631.00
 88.27     580.00
 88.37     607.00
 88.47     564.00
 88.57     560.00
 88.67     556.00
 88.77     514.05
 88.87     540.00
 88.97     553.00
 89.07     592.45
 89.17     567.00
 89.27     610.00
 89.37     577.00
 89.47     575.00
 89.57     556.00
 89.67     630.00
 89.77     622.56
 89.87     545.00
 89.97     544.78
 90.07     549.00
 90.17     531.00
 90.27     552.00
 90.37     582.73
 90.47     528.57
 90.57     505.00
 90.67     547.27
 90.77     508.00
 90.87     480.00
 90.97     536.04
 91.07     511.00
 91.17     495.00
 91.27     449.00
 91.37     499.69
 91.47     466.83
 91.57     479.55
 91.67     520.00
 91.77     538.00
 91.87     525.00
 91.97     480.00
 92.07     514.00
 92.17     536.59
 92.27     524.00
 92.37     555.32
 92.47     537.59
 92.57     532.62
 92.67     528.00
 92.77     612.00
 92.87     640.58
 92.97     717.00
 93.07     661.68
 93.17     687.00
 93.27     676.00
 93.37     751.00
 93.47     685.00
 93.57     724.00
 93.67     800.24
 93.77     744.00
 93.87     756.00
 93.97     827.00
 94.07     861.00
 94.17     809.00
 94.27     761.51
 94.37     820.14
 94.47     877.06
 94.57     845.00
 94.67     871.00
 94.77     853.99
 94.87     845.00
 94.97     857.89
 95.07     807.62
 95.17     892.00
 95.27     854.00
 95.37     854.00
 95.47     837.00
 95.57     808.32
 95.67     778.00
 95.77     783.00
 95.87     686.00
 95.97     738.61
 96.07     702.00
 96.17     703.00
 96.27     655.00
 96.37     714.16
 96.47     735.00
 96.57     757.00
 96.67     790.00
 96.77     770.63
 96.87     862.00
 96.97     915.00
 97.07     958.00
 97.17    1117.00
 97.27    1071.66
 97.37    1147.00
 97.47    1299.00
 97.57    1294.00
 97.67    1303.21
 97.77    1400.00
 97.87    1388.00
 97.97    1345.00
 98.07    1406.00
 98.17    1301.00
 98.27    1298.00
 98.37    1250.00
 98.47    1113.85
 98.57    1073.19
 98.67    1058.23
 98.77    1018.10
 98.87     950.00
 98.97     926.00
 99.07     845.00
 99.17     831.32
 99.27     864.00
 99.37     853.00
 99.47     844.00
 99.57     883.00
 99.67     948.00
 99.77    1074.00
 99.87    1173.66
 99.97    1117.00
100.07    1327.98
100.17    1414.00
100.27    1526.00
100.37    1627.00
100.47    1655.00
100.57    1733.00
100.67    1747.00
100.77    1852.00
100.87    1974.00
100.97    1934.00
101.07    2009.63
101.17    1966.00
101.27    1864.97
101.37    1979.00
101.47    1834.00
101.57    1815.45
101.67    1766.63
101.77    1663.00
101.87    1604.00
101.97    1548.89
102.07    1433.00
102.17    1356.00
102.27    1261.00
102.37    1303.72
102.47    1262.00
102.57    1160.00
102.67    1223.95
102.77    1119.86
102.87    1099.00
102.97    1126.37
103.07    1048.09
103.17    1003.57
103.27     994.00
103.37    1011.16
103.47     877.00
103.57     879.00
103.67     962.00
103.77     825.00
103.87     803.00
103.97     797.00
104.07     685.24
104.17     701.00
104.27     650.00
104.37     659.00
104.47     625.00
104.57     607.00
104.67     591.00
104.77     557.37
104.87     567.00
104.97     548.00
105.07     534.00
105.17     529.00
105.27     523.00
105.37     540.00
105.47     556.00
105.57     526.00
105.67     479.93
105.77     528.00
105.87     485.50
105.97     525.00
106.07     524.50
106.17     494.31
106.27     506.98
106.37     564.00
106.47     567.36
106.57     597.00
106.67     576.48
106.77     584.41
106.87     611.00
106.97     631.00
107.07     627.00
107.17     600.00
107.27     671.00
107.37     630.00
107.47     642.00
107.57     652.00
107.67     649.08
107.77     682.80
107.87     721.10
107.97     656.57
108.07     681.00
108.17     670.00
108.27     649.00
108.37     656.15
108.47     651.24
108.57     650.00
108.67     701.00
108.77     676.00
108.87     656.00
108.97     680.00
109.07     643.11
109.17     728.08
109.27     673.00
109.37     740.00
109.47     638.00
109.57     669.00
109.67     684.00
109.77     647.49
109.87     656.00
109.97     612.00
110.07     642.00
110.17     624.00
110.27     590.41
110.37     554.00
110.47     601.00
110.57     637.00
110.67     538.11
110.77     518.03
110.87     574.67
110.97     560.00
111.07     581.48
111.17     554.00
111.27     553.00
111.37     570.00
111.47     499.95
111.57     567.44
111.67     545.00
111.77     509.60
111.87     524.00
111.97     527.12
112.07     570.73
112.17     519.00
112.27     522.00
112.37     513.05
112.47     604.26
112.57     557.00
112.67     566.43
112.77     518.00
112.87     576.00
112.97     510.00
113.07     559.37
113.17     535.00
113.27     574.00
113.37     554.00
113.47     582.00
113.57     612.10
113.67     624.00
113.77     676.00
113.87     733.85
113.97     711.00
114.07     693.00
114.17     709.00
114.27     773.00
114.37     810.00
114.47     886.02
114.57     950.01
114.67    1042.00
114.77    1113.62
114.87    1272.00
114.97    1397.00
115.07    1524.32
115.17    1761.00
115.27    1986.00
115.37    2185.00
115.47    2346.36
115.57    2758.00
115.67    2961.00
115.77    3277.90
115.87    3609.78
115.97    3873.94
116.07    4290.00
116.17    4632.00
116.27    5042.00
116.37    5368.81
116.47    5820.00
116.57    6036.06
116.67    6227.00
116.77    6482.00
116.87    6763.04
116.97    6751.00
117.07    6948.00
117.17    6875.59
117.27    6850.31
117.37    6500.00
117.47    6438.71
117.57    6081.00
117.67    5921.26
117.77    5376.75
117.87    5086.00
117.97    4901.15
118.07    4373.36
118.17    4206.00
118.27    3771.00
118.37    3445.59
118.47    3018.00
118.57    2832.52
118.67    2414.00
118.77    2259.58
118.87    1903.00
118.97    1684.00
119.07    1551.00
119.17    1488.00
119.27    1301.08
119.37    1235.00
119.47    1128.00
119.57    1076.00
119.67     943.00
119.77     827.85
119.87     848.00
119.97     797.00
120.07     736.34
120.17     754.16
120.27     738.00
120.37     661.00
120.47     618.45
120.57     655.00
120.67     592.99
120.77     568.00
120.87     558.22
120.97     621.34
121.07     598.92
121.17     590.00
121.27     544.00
121.37     572.33
121.47     619.60
121.57     610.58
121.67     565.88
121.77     574.00
121.87     534.06
121.97     581.00
122.07     578.00
122.17     543.30
122.27     575.00
122.37     581.00
122.47     618.00
122.57     640.00
122.67     646.00
122.77     599.00
122.87     588.38
122.97     618.00
123.07     620.20
123.17     655.00
123.27     593.42
123.37     643.00
123.47     665.99
123.57     582.00
123.67     667.00
123.77     634.00
123.87     640.79
123.97     583.22
124.07     590.50
124.17     627.19
124.27     589.00
124.37     639.00
124.47     582.39
124.57     596.00
124.67     576.00
124.77     612.00
124.87     598.00
124.97     550.00
