  9.97     593.00
 10.07     598.00
 10.17     532.49
 10.27     653.00
 10.37     650.00
 10.47     641.00
 10.57     529.79
 10.67     602.00
 10.77     571.00
 10.87     566.00
 10.97     562.00
 11.07     580.02
 11.17     605.00
 11.27     568.00
 11.37     581.00
 11.47     602.00
 11.57     529.94
 11.67     603.00
 11.77     626.06
 11.87     642.94
 11.97     656.00
 12.07     645.00
 12.17     729.83
 12.27     684.00
 12.37     668.00
 12.47     635.00
 12.57     613.00
 12.67     560.00
 12.77     594.30
 12.87     558.00
 12.97     603.61
 13.07     585.00
 13.17     533.00
 13.27     535.58
 13.37     549.83
 13.47     537.00
 13.57     610.08
 13.67     532.02
 13.77     561.00
 13.87     560.98
 13.97     558.00
 14.07     544.00
 14.17     544.95
 14.27     562.00
 14.37     577.03
 14.47     614.70
 14.57     555.00
 14.67     543.00
 14.77     524.61
 14.87     551.00
 14.97     616.00
 15.07     542.00
 15.17     552.24
 15.27     578.02
 15.37     529.00
 15.47     523.00
 15.57     579.00
 15.67     559.00
 15.77     555.26
 15.87     554.00
 15.97     566.00
 16.07     604.29
 16.17     521.59
 16.27     520.89
 16.37     569.00
 16.47     577.00
 16.57     563.32
 16.67     604.00
 16.77     545.71
 16.87     574.47
 16.97     588.00
 17.07     505.00
 17.17     607.00
 17.27     570.53
 17.37     544.22
 17.47     522.82
 17.57     560.00
 17.67     550.12
 17.77     557.00
 17.87     538.38
 17.97     546.31
 18.07     515.27
 18.17     567.00
 18.27     587.36
 18.37     586.28
 18.47     521.00
 18.57     570.00
 18.67     537.00
 18.77     611.00
 18.87     584.00
 18.97     512.00
 19.07     531.00
 19.17     564.84
 19.27     554.00
 19.37     546.00
 19.47     576.00
 19.57     571.00
 19.67     590.00
 19.77     516.09
 19.87     545.00
 19.97     523.81
 20.07     550.00
 20.17     607.14
 20.27     591.00
 20.37     514.00
 20.47     557.00
 20.57     581.44
 20.67     597.96
 20.77     535.00
 20.87     592.00
 20.97     575.00
 21.07     549.00
 21.17     533.00
 21.27     513.36
 21.37     540.00
 21.47     557.83
 21.57     517.50
 21.67     554.00
 21.77     508.48
 21.87     558.00
 21.97     587.43
 22.07     531.00
 22.17     519.00
 22.27     619.00
 22.37     537.00
 22.47     557.00
 22.57     517.53
 22.67     520.00
 22.77     550.00
 22.87     563.00
 22.97     581.00
 23.07     522.95
 23.17     520.68
 23.27     551.96
 23.37     626.00
 23.47     572.68
 23.57     549.29
 23.67     538.00
 23.77     568.00
 23.87     546.84
 23.97     604.00
 24.07     578.39
 24.17     549.72
 24.27     561.00
 24.37     584.61
 24.47     580.66
 24.57     614.00
 24.67     624.52
 24.77     617.00
 24.87     601.00
 24.97     622.00
 25.07     553.00
 25.17     591.00
 25.27     569.00
 25.37     560.00
 25.47     532.00
 25.57     579.00
 25.67     496.54
 25.77     511.68
 25.87     542.00
 25.97     604.00
 26.07     533.00
 26.17     555.00
 26.27     579.00
 26.37     540.98
 26.47     584.80
 26.57     575.00
 26.67     518.00
 26.77     548.00
 26.87     565.00
 26.97     571.23
 27.07     530.00
 27.17     495.00
 27.27     547.00
 27.37     567.00
 27.47     517.66
 27.57     558.22
 27.67     529.00
 27.77     538.00
 27.87     578.00
 27.97     704.00
 28.07     785.00
 28.17     864.87
 28.27    1015.82
 28.37     935.44
 28.47     782.50
 28.57     718.69
 28.67     697.00
 28.77     708.00
 28.87     789.00
 28.97     893.14
 29.07     725.00
 29.17     716.22
 29.27     617.00
 29.37     602.00
 29.47     599.00
 29.57     569.00
 29.67     571.00
 29.77     612.00
 29.87     579.00
 29.97     587.00
 30.07     597.00
 30.17     572.49
 30.27     542.00
 30.37     520.00
 30.47     567.00
 30.57     508.00
 30.67     572.00
 30.77     556.00
 30.87     632.14
 30.97     666.00
 31.07     577.59
 31.17     592.00
 31.27     538.00
 31.37     562.00
 31.47     569.00
 31.57     548.00
 31.67     553.31
 31.77     544.62
 31.87     538.97
 31.97     543.00
 32.07     547.00
 32.17     556.70
 32.27     536.00
 32.37     504.00
 32.47     554.00
 32.57     533.00
 32.67     484.39
 32.77     534.00
 32.87     565.00
 32.97     539.27
 33.07     582.00
 33.17     523.11
 33.27     576.00
 33.37     560.55
 33.47     582.18
 33.57     621.00
 33.67     630.00
 33.77     742.00
 33.87     896.00
 33.97    1049.00
 34.07    1128.00
 34.17     983.79
 34.27     904.00
 34.37     788.00
 34.47     670.00
 34.57     615.00
 34.67     559.94
 34.77     548.00
 34.87     519.00
 34.97     546.10
 35.07     539.36
 35.17     568.82
 35.27     551.00
 35.37     532.00
 35.47     529.00
 35.57     502.00
 35.67     474.05
 35.77     506.00
 35.87     491.00
 35.97     500.00
 36.07     535.00
 36.17     540.10
 36.27     501.89
 36.37     495.00
 36.47     544.84
 36.57     511.42
 36.67     516.00
 36.77     475.00
 36.87     493.00
 36.97     528.00
 37.07     489.92
 37.17     495.00
 37.27     534.00
 37.37     521.00
 37.47     525.00
 37.57     548.84
 37.67     514.35
 37.77     557.00
 37.87     523.00
 37.97     515.00
 38.07     529.34
 38.17     488.00
 38.27     471.40
 38.37     514.00
 38.47     530.00
 38.57     507.00
 38.67     543.00
 38.77     496.00
 38.87     489.00
 38.97     518.00
 39.07     521.00
 39.17     462.34
 39.27     483.00
 39.37     532.00
 39.47     480.00
 39.57     551.94
 39.67     496.88
 39.77     515.00
 39.87     521.00
 39.97     495.00
 40.07     458.93
 40.17     463.00
 40.27     476.00
 40.37     481.00
 40.47     460.00
 40.57     503.00
 40.67     495.57
 40.77     472.00
 40.87     487.00
 40.97     504.00
 41.07     517.00
 41.17     495.00
 41.27     468.94
 41.37     551.34
 41.47     449.00
 41.57     468.65
 41.67     552.57
 41.77     542.30
 41.87     494.00
 41.97     510.00
 42.07     504.98
 42.17     497.00
 42.27     500.00
 42.37     563.50
 42.47     576.00
 42.57     645.00
 42.67     638.00
 42.77     591.00
 42.87     570.00
 42.97     579.09
 43.07     547.00
 43.17     571.00
 43.27     511.00
 43.37     486.00
 43.47     484.00
 43.57     557.00
 43.67     547.24
 43.77     513.00
 43.87     498.00
 43.97     528.00
 44.07     492.00
 44.17     525.14
 44.27     481.00
 44.37     527.37
 44.47     523.00
 44.57     519.00
 44.67     492.33
 44.77     468.00
 44.87     549.00
 44.97     511.00
 45.07     496.00
 45.17     481.00
 45.27     503.00
 45.37     507.00
 45.47     485.00
 45.57     481.00
 45.67     524.00
 45.77     549.35
 45.87     522.85
 45.97     482.52
 46.07     539.93
 46.17     522.00
 46.27     542.00
 46.37     503.00
 46.47     523.15
 46.57     526.00
 46.67     499.00
 46.77     493.00
 46.87     515.00
 46.97     487.00
 47.07     516.00
 47.17     549.82
 47.27     558.00
 47.37     514.67
 47.47     502.00
 47.57     539.00
 47.67     549.00
 47.77     543.00
 47.87     634.27
 47.97     578.00
 48.07     614.00
 48.17     524.96
 48.27     526.00
 48.37     516.00
 48.47     546.00
 48.57     515.47
 48.67     525.00
 48.77     493.00
 48.87     524.49
 48.97     568.00
 49.07     570.00
 49.17     566.50
 49.27     558.00
 49.37     588.47
 49.47     712.00
 49.57     799.34
 49.67     861.84
 49.77    1137.00
 49.87    1477.00
 49.97    1918.00
 50.07    2195.00
 50.17    2474.00
 50.27    2426.65
 50.37    2200.00
 50.47    1783.00
 50.57    1408.46
 50.67    1085.00
 50.77     834.00
 50.87     736.00
 50.97     720.52
 51.07     660.42
 51.17     638.69
 51.27     641.94
 51.37     631.00
 51.47     605.00
 51.57     598.14
 51.67     594.00
 51.77     552.00
 51.87     552.71
 51.97     543.74
 52.07     500.92
 52.17     494.19
 52.27     569.00
 52.37     541.25
 52.47     633.00
 52.57     547.00
 52.67     586.00
 52.77     570.00
 52.87     649.00
 52.97     739.00
 53.07     811.00
 53.17     928.00
 53.27    1027.00
 53.37    1213.05
 53.47    1272.88
 53.57    1188.00
 53.67    1129.00
 53.77     963.00
 53.87     854.07
 53.97     787.00
 54.07     725.55
 54.17     613.00
 54.27     544.69
 54.37     606.78
 54.47     506.99
 54.57     594.23
 54.67     512.58
 54.77     560.00
 54.87     591.00
 54.97     499.40
 55.07     572.00
 55.17     578.00
 55.27     545.64
 55.37     578.28
 55.47     510.95
 55.57     587.93
 55.67     574.00
 55.77     554.17
 55.87     593.73
 55.97     632.00
 56.07     669.00
 56.17     786.00
 56.27     964.30
 56.37    1217.96
 56.47    1407.00
 56.57    1780.00
 56.67    2111.00
 56.77    2464.18
 56.87    2644.00
 56.97    2684.00
 57.07    2412.00
 57.17    2020.38
 57.27    1675.00
 57.37    1329.00
 57.47    1111.64
 57.57     841.07
 57.67     768.00
 57.77     732.00
 57.87     680.00
 57.97     681.00
 58.07     641.21
 58.17     729.00
 58.27     755.00
 58.37     896.15
 58.47     903.72
 58.57    1064.00
 58.67    1157.00
 58.77    1330.00
 58.87    1435.00
 58.97    1430.00
 59.07    1478.00
 59.17    1394.67
 59.27    1369.96
 59.37    1237.41
 59.47    1254.00
 59.57    1098.00
 59.67    1108.83
 59.77    1199.00
 59.87    1255.00
 59.97    1323.00
 60.07    1396.31
 60.17    1582.00
 60.27    1547.00
 60.37    1450.93
 60.47    1431.00
 60.57    1259.00
 60.67    1021.00
 60.77     877.66
 60.87     804.00
 60.97     696.00
 61.07     675.00
 61.17     602.00
 61.27     619.50
 61.37     612.00
 61.47     673.09
 61.57     783.00
 61.67     853.00
 61.77     909.00
 61.87    1064.00
 61.97    1174.00
 62.07    1294.00
 62.17    1400.64
 62.27    1409.00
 62.37    1254.00
 62.47    1212.00
 62.57     984.00
 62.67     922.00
 62.77     785.56
 62.87     653.92
 62.97     593.00
 63.07     657.80
 63.17     584.00
 63.27     558.00
 63.37     572.00
 63.47     587.00
 63.57     607.00
 63.67     574.00
 63.77     585.00
 63.87     621.17
 63.97     682.00
 64.07     734.76
 64.17     716.53
 64.27     864.00
 64.37     970.00
 64.47     982.00
 64.57    1044.00
 64.67    1019.02
 64.77     994.68
 64.87     973.00
 64.97     898.00
 65.07     877.39
 65.17     779.00
 65.27     736.49
 65.37     699.00
 65.47     629.00
 65.57     620.77
 65.67     561.18
 65.77     601.00
 65.87     577.00
 65.97     550.04
 66.07     529.79
 66.17     574.40
 66.27     535.00
 66.37     595.00
 66.47     587.00
 66.57     550.70
 66.67     572.79
 66.77     546.67
 66.87     566.00
 66.97     565.04
 67.07     639.00
 67.17     734.28
 67.27     787.00
 67.37     877.26
 67.47    1147.00
 67.57    1296.00
 67.67    1588.23
 67.77    1869.43
 67.87    2120.00
 67.97    2284.00
 68.07    2506.46
 68.17    2500.84
 68.27    2241.43
 68.37    2014.00
 68.47    1805.63
 68.57    1552.00
 68.67    1215.12
 68.77     996.00
 68.87     941.00
 68.97     795.00
 69.07     663.13
 69.17     667.00
 69.27     675.00
 69.37     604.35
 69.47     645.00
 69.57     617.00
 69.67     560.00
 69.77     619.61
 69.87     565.00
 69.97     543.43
 70.07     599.00
 70.17     576.00
 70.27     532.00
 70.37     595.30
 70.47     558.96
 70.57     581.32
 70.67     588.00
 70.77     635.93
 70.87     581.00
 70.97     594.13
 71.07     641.00
 71.17     750.00
 71.27     766.00
 71.37     928.73
 71.47    1074.32
 71.57    1287.33
 71.67    1390.00
 71.77    1579.03
 71.87    1878.00
 71.97    1957.62
 72.07    1896.72
 72.17    1815.00
 72.27    1821.00
 72.37    1586.00
 72.47    1508.00
 72.57    1362.00
 72.67    1133.00
 72.77     995.00
 72.87     937.00
 72.97     913.22
 73.07     808.39
 73.17     762.46
 73.27     724.94
 73.37     684.00
 73.47     706.72
 73.57     644.00
 73.67     589.97
 73.77     625.00
 73.87     568.43
 73.97     627.83
 74.07     637.00
 74.17     522.99
 74.27     601.00
 74.37     611.00
 74.47     567.25
 74.57     661.00
 74.67     661.00
 74.77     580.30
 74.87     549.70
 74.97     513.92
 75.07     551.92
 75.17     565.11
 75.27     589.00
 75.37     550.00
 75.47     543.57
 75.57     537.00
 75.67     569.60
 75.77     554.00
 75.87     575.00
 75.97     637.74
 76.07     576.35
 76.17     677.00
 76.27     714.00
 76.37     718.00
 76.47     698.73
 76.57     693.00
 76.67     681.78
 76.77     651.00
 76.87     645.00
 76.97     673.00
 77.07     591.94
 77.17     560.00
 77.27     534.00
 77.37     572.00
 77.47     552.83
 77.57     566.70
 77.67     572.00
 77.77     531.00
 77.87     536.00
 77.97     505.95
 78.07     527.81
 78.17     518.00
 78.27     502.00
 78.37     503.44
 78.47     498.00
 78.57     497.00
 78.67     511.00
 78.77     510.00
 78.87     520.00
 78.97     527.00
 79.07     501.00
 79.17     533.10
 79.27     557.00
 79.37     516.00
 79.47     516.00
 79.57     535.92
 79.67     491.02
 79.77     527.00
 79.87     551.31
 79.97     544.00
 80.07     517.40
 80.17     535.00
 80.27     533.42
 80.37     555.00
 80.47     553.19
 80.57     571.00
 80.67     650.24
 80.77     578.00
 80.87     671.00
 80.97     721.00
 81.07     713.00
 81.17     788.89
 81.27     745.00
 81.37     761.00
 81.47     754.00
 81.57     730.00
 81.67     712.46
 81.77     729.00
 81.87     739.00
 81.97     699.00
 82.07     687.00
 82.17     632.02
 82.27     611.00
 82.37     639.00
 82.47     576.64
 82.57     614.00
 82.67     536.00
 82.77     588.00
 82.87     576.08
 82.97     552.91
 83.07     609.00
 83.17     571.00
 83.27     580.00
 83.37     545.73
 83.47     537.57
 83.57     536.94
 83.67     551.00
 83.77     523.01
 83.87     573.00
 83.97     580.00
 84.07     545.00
 84.17     602.00
 84.27     562.00
 84.37     570.00
 84.47     550.00
 84.57     561.02
 84.67     533.04
 84.77     559.76
 84.87     582.00
 84.97     546.00
 85.07     518.00
 85.17     533.00
 85.27     544.58
 85.37     527.00
 85.47     574.00
 85.57     534.00
 85.67     527.00
 85.77     533.29
 85.87     492.62
 85.97     508.00
 86.07     529.00
 86.17     550.80
 86.27     532.00
 86.37     523.95
 86.47     519.87
 86.57     547.00
 86.67     581.00
 86.77     528.70
 86.87     565.00
 86.97     621.00
 87.07     616.00
 87.17     583.00
 87.27     666.00
 87.37     619.72
 87.47     634.84
 87.57     629.00
 87.67     617.00
 87.77     622.00
 87.87     620.00
 87.97     620.00
 88.07     639.00
 88.17     591.00
 88.27     603.13
 88.37     623.00
 88.47     581.00
 88.57     504.00
 88.67     578.00
 88.77     581.01
 88.87     610.60
 88.97     590.00
 89.07     619.00
 89.17     627.00
 89.27     615.87
 89.37     585.00
 89.47     614.90
 89.57     546.07
 89.67     598.00
 89.77     588.98
 89.87     575.00
 89.97     593.63
 90.07     585.00
 90.17     554.00
 90.27     480.00
 90.37     510.00
 90.47     511.00
 90.57     530.00
 90.67     508.98
 90.77     515.00
 90.87     513.00
 90.97     526.57
 91.07     534.00
 91.17     574.14
 91.27     538.00
 91.37     541.00
 91.47     530.70
 91.57     493.62
 91.67     503.66
 91.77     521.10
 91.87     557.81
 91.97     602.98
 92.07     544.40
 92.17     576.85
 92.27     571.00
 92.37     618.56
 92.47     587.31
 92.57     636.38
 92.67     692.00
 92.77     681.00
 92.87     711.00
 92.97     711.00
 93.07     787.51
 93.17     786.00
 93.27     747.00
 93.37     810.00
 93.47     821.00
 93.57     820.00
 93.67     824.49
 93.77     871.00
 93.87     759.26
 93.97     866.00
 94.07     889.00
 94.17     884.45
 94.27     872.00
 94.37     876.00
 94.47     859.94
 94.57     909.00
 94.67     913.25
 94.77     917.89
 94.87     863.14
 94.97     941.00
 95.07     892.00
 95.17     899.00
 95.27     863.00
 95.37     834.85
 95.47     770.00
 95.57     779.00
 95.67     727.68
 95.77     683.00
 95.87     732.34
 95.97     679.38
 96.07     700.00
 96.17     720.00
 96.27     678.00
 96.37     716.00
 96.47     760.10
 96.57     847.30
 96.67     971.37
 96.77     942.00
 96.87    1044.00
 96.97    1150.00
 97.07    1225.20
 97.17    1256.00
 97.27    1293.00
 97.37    1398.00
 97.47    1438.00
 97.57    1436.00
 97.67    1379.00
 97.77    1420.66
 97.87    1302.00
 97.97    1212.30
 98.07    1233.20
 98.17    1168.00
 98.27    1100.00
 98.37     950.00
 98.47     959.00
 98.57     913.00
 98.67     893.36
 98.77     853.00
 98.87     810.00
 98.97     801.00
 99.07     791.00
 99.17     841.00
 99.27     937.00
 99.37     951.00
 99.47    1033.59
 99.57    1135.69
 99.67    1264.00
 99.77    1290.00
 99.87    1428.00
 99.97    1447.05
100.07    1607.00
100.17    1766.00
100.27    1734.42
100.37    1873.17
100.47    1994.00
100.57    2051.29
100.67    2070.00
100.77    2108.00
100.87    2018.00
100.97    1936.02
101.07    1934.00
101.17    1859.00
101.27    1717.00
101.37    1645.11
101.47    1619.00
101.57    1541.12
101.67    1430.89
101.77    1363.00
101.87    1253.00
101.97    1184.09
102.07    1160.60
102.17    1229.75
102.27    1090.00
102.37    1145.00
102.47    1059.00
102.57    1081.50
102.67    1013.00
102.77     985.00
102.87    1023.43
102.97     917.03
103.07     896.00
103.17     842.48
103.27     833.00
103.37     797.00
103.47     734.16
103.57     777.74
103.67     648.00
103.77     670.00
103.87     646.00
103.97     629.00
104.07     597.97
104.17     617.00
104.27     548.47
104.37     590.00
104.47     503.97
104.57     520.99
104.67     550.13
104.77     542.00
104.87     537.00
104.97     533.00
105.07     508.56
105.17     531.00
105.27     560.00
105.37     514.00
105.47     553.00
105.57     510.00
105.67     573.00
105.77     537.00
105.87     534.22
105.97     580.00
106.07     609.04
106.17     606.12
106.27     548.00
106.37     608.03
106.47     632.00
106.57     607.00
106.67     634.00
106.77     602.00
106.87     651.00
106.97     676.00
107.07     612.00
107.17     683.00
107.27     682.00
107.37     719.40
107.47     719.26
107.57     685.00
107.67     713.80
107.77     671.00
107.87     735.63
107.97     674.00
108.07     657.00
108.17     642.00
108.27     693.00
108.37     717.72
108.47     663.00
108.57     736.60
108.67     727.00
108.77     653.75
108.87     683.00
108.97     694.85
109.07     685.00
109.17     707.00
109.27     654.12
109.37     698.00
109.47     630.19
109.57     642.00
109.67     622.00
109.77     586.10
109.87     610.80
109.97     636.00
110.07     554.47
110.17     594.00
110.27     516.02
110.37     589.00
110.47     554.00
110.57     556.00
110.67     556.59
110.77     552.00
110.87     507.70
110.97     533.48
111.07     513.24
111.17     538.10
111.27     562.00
111.37     527.29
111.47     570.00
111.57     499.00
111.67     542.00
111.77     543.00
111.87     588.00
111.97     570.00
112.07     543.00
112.17     578.00
112.27     540.00
112.37     536.00
112.47     556.74
112.57     609.00
112.67     593.00
112.77     646.73
112.87     661.30
112.97     655.00
113.07     689.00
113.17     638.00
113.27     736.10
113.37     748.00
113.47     730.67
113.57     733.94
113.67     868.59
113.77     855.00
113.87     888.55
113.97     932.00
114.07     983.00
114.17    1108.62
114.27    1105.00
114.37    1256.77
114.47    1230.42
114.57    1397.90
114.67    1447.41
114.77    1714.20
114.87    1876.46
114.97    2101.00
115.07    2205.14
115.17    2551.00
115.27    2807.10
115.37    3131.00
115.47    3431.00
115.57    3854.38
115.67    4038.00
115.77    4474.00
115.87    4943.12
115.97    5266.00
116.07    5523.00
116.17    5972.00
116.27    6251.16
116.37    6569.00
116.47    6755.82
116.57    6951.00
116.67    6924.00
116.77    6933.00
116.87    6787.00
116.97    6496.00
117.07    6250.62
117.17    5993.00
117.27    5627.00
117.37    5179.00
117.47    4951.00
117.57    4696.58
117.67    4214.58
117.77    3851.00
117.87    3509.00
117.97    3233.00
118.07    2884.00
118.17    2568.71
118.27    2284.00
118.37    2011.00
118.47    1799.00
118.57    1512.00
118.67    1395.94
118.77    1273.00
118.87    1174.51
118.97     998.00
119.07     953.00
119.17     922.96
119.27     788.58
119.37     797.12
119.47     736.00
119.57     682.00
119.67     711.00
119.77     621.00
119.87     665.00
119.97     673.00
120.07     615.00
120.17     621.00
120.27     641.47
120.37     602.36
120.47     624.62
120.57     579.00
120.67     626.10
120.77     602.11
120.87     538.75
120.97     597.37
121.07     608.00
121.17     543.00
121.27     532.37
121.37     583.00
121.47     607.81
121.57     581.00
121.67     594.94
121.77     608.00
121.87     584.00
121.97     583.00
122.07     628.00
122.17     616.00
122.27     639.03
122.37     639.00
122.47     669.08
122.57     662.00
122.67     627.00
122.77     607.00
122.87     644.79
122.97     597.79
123.07     664.00
123.17     621.00
123.27     665.00
123.37     661.00
123.47     612.00
123.57     671.90
123.67     641.00
123.77     670.00
123.87     626.51
123.97     583.58
124.07     606.00
124.17     568.60
124.27     594.00
124.37     548.00
124.47     659.00
124.57     556.14
124.67     580.00
124.77     600.00
124.87     548.84
124.97     610.00
