  9.97     787.00
 10.07     712.56
 10.17     707.95
 10.27     744.00
 10.37     735.00
 10.47     750.00
 10.57     689.01
 10.67     754.00
 10.77     686.06
 10.87     755.17
 10.97     737.00
 11.07     728.86
 11.17     713.16
 11.27     733.00
 11.37     732.00
 11.47     745.00
 11.57     776.00
 11.67     744.00
 11.77     721.46
 11.87     838.00
 11.97     778.00
 12.07     824.14
 12.17     788.88
 12.27     843.35
 12.37     872.00
 12.47     824.78
 12.57     841.00
 12.67     749.00
 12.77     770.20
 12.87     661.00
 12.97     718.00
 13.07     717.81
 13.17     672.00
 13.27     654.00
 13.37     655.50
 13.47     690.00
 13.57     672.00
 13.67     667.00
 13.77     621.00
 13.87     686.00
 13.97     696.45
 14.07     644.80
 14.17     688.00
 14.27     713.35
 14.37     706.00
 14.47     706.88
 14.57     693.00
 14.67     683.61
 14.77     639.00
 14.87     643.49
 14.97     634.00
 15.07     693.53
 15.17     669.00
 15.27     678.77
 15.37     698.00
 15.47     640.00
 15.57     690.29
 15.67     646.07
 15.77     665.58
 15.87     660.00
 15.97     621.90
 16.07     628.00
 16.17     674.00
 16.27     642.60
 16.37     688.00
 16.47     710.00
 16.57     652.00
 16.67     717.50
 16.77     714.20
 16.87     647.00
 16.97     670.55
 17.07     685.00
 17.17     676.00
 17.27     647.17
 17.37     666.65
 17.47     629.06
 17.57     657.00
 17.67     664.00
 17.77     618.70
 17.87     680.68
 17.97     671.00
 18.07     614.74
 18.17     651.00
 18.27     648.37
 18.37     641.00
 18.47     671.00
 18.57     609.65
 18.67     623.00
 18.77     635.42
 18.87     630.00
 18.97     592.00
 19.07     601.00
 19.17     689.70
 19.27     690.03
 19.37     616.55
 19.47     661.00
 19.57     637.35
 19.67     660.00
 19.77     652.09
 19.87     631.63
 19.97     599.00
 20.07     673.55
 20.17     683.01
 20.27     653.00
 20.37     613.00
 20.47     651.00
 20.57     614.00
 20.67     647.51
 20.77     629.00
 20.87     573.00
 20.97     614.00
 21.07     635.00
 21.17     622.00
 21.27     656.91
 21.37     629.20
 21.47     638.00
 21.57     640.00
 21.67     586.60
 21.77     685.98
 21.87     606.00
 21.97     559.00
 22.07     638.00
 22.17     629.24
 22.27     593.55
 22.37     622.00
 22.47     612.00
 22.57     646.00
 22.67     666.00
 22.77     664.00
 22.87     628.00
 22.97     597.09
 23.07     595.23
 23.17     606.00
 23.27     591.00
 23.37     638.41
 23.47     630.80
 23.57     606.03
 23.67     637.00
 23.77     636.00
 23.87     652.56
 23.97     572.00
 24.07     638.00
 24.17     595.65
 24.27     620.00
 24.37     694.00
 24.47     653.24
 24.57     599.43
 24.67     707.04
 24.77     711.78
 24.87     669.00
 24.97     676.51
 25.07     684.72
 25.17     700.00
 25.27     663.33
 25.37     649.00
 25.47     651.00
 25.57     623.00
 25.67     710.00
 25.77     647.00
 25.87     673.00
 25.97     638.00
 26.07     667.00
 26.17     693.57
 26.27     648.34
 26.37     622.00
 26.47     691.62
 26.57     673.04
 26.67     636.04
 26.77     639.08
 26.87     678.00
 26.97     681.16
 27.07     682.00
 27.17     676.00
 27.27     756.20
 27.37     757.00
 27.47     780.00
 27.57     821.87
 27.67     848.62
 27.77     955.00
 27.87    1032.00
 27.97    1323.71
 28.07    1977.12
 28.17    3356.62
 28.27    5396.00
 28.37    7608.78
 28.47    8921.00
 28.57    8169.00
 28.67    6509.00
 28.77    4604.00
 28.87    3714.37
 28.97    4009.85
 29.07    4619.00
 29.17    4981.00
 29.27    4551.02
 29.37    3560.00
 29.47    2434.00
 29.57    1677.00
 29.67    1371.00
 29.77     979.06
 29.87     979.00
 29.97     784.89
 30.07     843.00
 30.17     809.00
 30.27     769.22
 30.37     682.71
 30.47     748.00
 30.57     713.00
 30.67     727.00
 30.77     712.25
 30.87     748.00
 30.97     769.00
 31.07     787.00
 31.17     810.00
 31.27     822.11
 31.37     742.73
 31.47     774.98
 31.57     750.00
 31.67     695.00
 31.77     687.00
 31.87     652.00
 31.97     663.00
 32.07     584.76
 32.17     627.47
 32.27     665.00
 32.37     606.23
 32.47     654.47
 32.57     602.00
 32.67     666.38
 32.77     671.20
 32.87     654.75
 32.97     668.00
 33.07     661.00
 33.17     691.00
 33.27     674.00
 33.37     674.00
 33.47     620.00
 33.57     623.00
 33.67     673.39
 33.77     758.15
 33.87     803.00
 33.97     897.41
 34.07     999.00
 34.17    1138.00
 34.27    1190.39
 34.37    1336.25
 34.47    1197.36
 34.57    1141.06
 34.67     911.00
 34.77     815.00
 34.87     786.94
 34.97     678.35
 35.07     703.00
 35.17     621.73
 35.27     706.00
 35.37     653.00
 35.47     655.49
 35.57     644.00
 35.67     633.00
 35.77     593.00
 35.87     646.00
 35.97     631.00
 36.07     601.00
 36.17     568.59
 36.27     618.42
 36.37     605.00
 36.47     624.00
 36.57     577.62
 36.67     617.00
 36.77     597.00
 36.87     606.00
 36.97     608.00
 37.07     598.46
 37.17     619.00
 37.27     624.84
 37.37     589.00
 37.47     669.00
 37.57     667.51
 37.67     626.00
 37.77     622.00
 37.87     649.30
 37.97     705.49
 38.07     676.00
 38.17     714.35
 38.27     733.61
 38.37     785.51
 38.47     774.00
 38.57     698.20
 38.67     651.90
 38.77     639.00
 38.87     608.00
 38.97     661.00
 39.07     610.07
 39.17     662.00
 39.27     662.25
 39.37     620.00
 39.47     614.00
 39.57     629.00
 39.67     598.00
 39.77     609.00
 39.87     579.00
 39.97     611.00
 40.07     608.00
 40.17     602.00
 40.27     581.00
 40.37     594.00
 40.47     634.00
 40.57     599.00
 40.67     592.68
 40.77     598.56
 40.87     559.38
 40.97     665.00
 41.07     654.00
 41.17     559.66
 41.27     561.60
 41.37     651.91
 41.47     634.00
 41.57     613.00
 41.67     559.00
 41.77     589.00
 41.87     599.00
 41.97     637.53
 42.07     582.00
 42.17     576.00
 42.27     596.00
 42.37     641.00
 42.47     629.36
 42.57     617.00
 42.67     663.00
 42.77     705.42
 42.87     690.00
 42.97     673.00
 43.07     723.00
 43.17     711.48
 43.27     701.00
 43.37     699.00
 43.47     652.00
 43.57     592.91
 43.67     592.00
 43.77     641.51
 43.87     573.23
 43.97     681.00
 44.07     647.00
 44.17     570.00
 44.27     614.00
 44.37     621.25
 44.47     563.42
 44.57     602.00
 44.67     633.00
 44.77     612.61
 44.87     640.00
 44.97     635.72
 45.07     589.13
 45.17     604.00
 45.27     645.84
 45.37     589.00
 45.47     613.43
 45.57     683.00
 45.67     630.00
 45.77     605.00
 45.87     617.00
 45.97     642.97
 46.07     653.00
 46.17     558.00
 46.27     667.00
 46.37     606.36
 46.47     643.00
 46.57     652.00
 46.67     620.00
 46.77     611.00
 46.87     656.00
 46.97     595.00
 47.07     625.86
 47.17     635.92
 47.27     635.75
 47.37     580.79
 47.47     587.15
 47.57     679.91
 47.67     589.00
 47.77     650.79
 47.87     673.00
 47.97     636.00
 48.07     670.60
 48.17     718.00
 48.27     713.41
 48.37     741.00
 48.47     666.00
 48.57     614.00
 48.67     712.00
 48.77     689.71
 48.87     644.00
 48.97     656.90
 49.07     645.00
 49.17     665.00
 49.27     618.00
 49.37     701.00
 49.47     709.51
 49.57     681.31
 49.67     716.00
 49.77     779.00
 49.87     815.00
 49.97     923.00
 50.07    1188.00
 50.17    1480.00
 50.27    1868.00
 50.37    2422.00
 50.47    2962.00
 50.57    3153.78
 50.67    3113.00
 50.77    3022.00
 50.87    2453.82
 50.97    1943.00
 51.07    1463.00
 51.17    1152.00
 51.27     970.00
 51.37     928.00
 51.47     861.40
 51.57     788.00
 51.67     775.25
 51.77     700.25
 51.87     757.32
 51.97     718.60
 52.07     726.00
 52.17     665.55
 52.27     714.00
 52.37     691.95
 52.47     639.00
 52.57     660.00
 52.67     698.00
 52.77     708.00
 52.87     719.45
 52.97     719.00
 53.07     722.00
 53.17     742.84
 53.27     750.00
 53.37     766.82
 53.47     827.00
 53.57     974.00
 53.67    1015.00
 53.77    1190.50
 53.87    1190.00
 53.97    1236.78
 54.07    1334.00
 54.17    1247.00
 54.27    1152.00
 54.37    1066.00
 54.47     951.00
 54.57     855.00
 54.67     788.00
 54.77     765.93
 54.87     739.00
 54.97     679.00
 55.07     702.00
 55.17     689.00
 55.27     652.63
 55.37     724.00
 55.47     674.73
 55.57     689.00
 55.67     655.00
 55.77     637.33
 55.87     674.00
 55.97     672.00
 56.07     695.00
 56.17     651.00
 56.27     768.00
 56.37     765.00
 56.47     814.00
 56.57     873.15
 56.67     991.34
 56.77    1178.12
 56.87    1531.92
 56.97    1743.54
 57.07    2020.00
 57.17    2352.00
 57.27    2649.48
 57.37    2741.39
 57.47    2715.00
 57.57    2419.38
 57.67    2200.00
 57.77    1838.00
 57.87    1444.00
 57.97    1205.00
 58.07    1116.06
 58.17     950.00
 58.27     885.82
 58.37     775.33
 58.47     782.00
 58.57     801.93
 58.67     821.00
 58.77     950.87
 58.87     966.00
 58.97     993.37
 59.07    1162.77
 59.17    1230.66
 59.27    1349.40
 59.37    1366.29
 59.47    1362.00
 59.57    1352.09
 59.67    1318.68
 59.77    1319.00
 59.87    1212.08
 59.97    1228.00
 60.07    1221.66
 60.17    1272.00
 60.27    1332.00
 60.37    1445.00
 60.47    1522.00
 60.57    1500.34
 60.67    1574.00
 60.77    1578.07
 60.87    1656.00
 60.97    1436.96
 61.07    1410.65
 61.17    1196.00
 61.27    1012.00
 61.37     959.00
 61.47     860.00
 61.57     886.00
 61.67     892.00
 61.77     834.77
 61.87     877.00
 61.97     926.00
 62.07    1034.00
 62.17    1145.00
 62.27    1315.56
 62.37    1486.45
 62.47    1657.37
 62.57    1703.62
 62.67    1782.00
 62.77    1765.00
 62.87    1703.00
 62.97    1649.00
 63.07    1413.00
 63.17    1245.00
 63.27    1083.00
 63.37     991.00
 63.47     845.06
 63.57     791.00
 63.67     787.85
 63.77     806.92
 63.87     744.00
 63.97     772.12
 64.07     809.00
 64.17     738.00
 64.27     791.00
 64.37     760.00
 64.47     867.00
 64.57     901.00
 64.67    1017.00
 64.77    1046.80
 64.87    1281.14
 64.97    1417.24
 65.07    1475.56
 65.17    1539.11
 65.27    1540.10
 65.37    1522.00
 65.47    1537.00
 65.57    1428.95
 65.67    1325.00
 65.77    1254.27
 65.87    1143.00
 65.97     986.00
 66.07     988.00
 66.17     831.00
 66.27     813.00
 66.37     822.00
 66.47     743.00
 66.57     704.00
 66.67     739.79
 66.77     699.00
 66.87     727.00
 66.97     732.15
 67.07     742.10
 67.17     680.00
 67.27     741.37
 67.37     703.00
 67.47     770.53
 67.57     812.00
 67.67     835.70
 67.77     896.00
 67.87    1076.14
 67.97    1080.00
 68.07    1326.00
 68.17    1516.10
 68.27    1728.00
 68.37    1894.00
 68.47    2263.00
 68.57    2455.00
 68.67    2435.91
 68.77    2517.00
 68.87    2379.00
 68.97    2204.72
 69.07    2017.01
 69.17    1867.00
 69.27    1565.38
 69.37    1331.00
 69.47    1188.89
 69.57    1021.00
 69.67     929.00
 69.77     895.00
 69.87     782.00
 69.97     719.05
 70.07     813.00
 70.17     677.12
 70.27     729.00
 70.37     718.00
 70.47     665.51
 70.57     779.00
 70.67     664.78
 70.77     721.00
 70.87     717.24
 70.97     685.00
 71.07     700.00
 71.17     732.00
 71.27     680.00
 71.37     733.00
 71.47     734.00
 71.57     818.00
 71.67     883.88
 71.77     929.91
 71.87    1011.00
 71.97    1138.43
 72.07    1201.85
 72.17    1357.53
 72.27    1561.00
 72.37    1742.00
 72.47    1816.00
 72.57    1979.00
 72.67    1988.00
 72.77    1956.00
 72.87    1970.41
 72.97    1759.84
 73.07    1676.00
 73.17    1464.71
 73.27    1253.79
 73.37    1151.00
 73.47    1089.00
 73.57     895.03
 73.67     856.00
 73.77     838.00
 73.87     798.56
 73.97     709.00
 74.07     690.55
 74.17     680.00
 74.27     713.00
 74.37     677.00
 74.47     708.00
 74.57     697.28
 74.67     628.92
 74.77     672.00
 74.87     728.69
 74.97     712.00
 75.07     729.00
 75.17     700.00
 75.27     704.00
 75.37     730.00
 75.47     683.51
 75.57     744.87
 75.67     739.00
 75.77     680.68
 75.87     684.00
 75.97     725.73
 76.07     635.71
 76.17     702.32
 76.27     689.00
 76.37     723.00
 76.47     734.97
 76.57     730.00
 76.67     847.00
 76.77     894.85
 76.87     912.28
 76.97     926.00
 77.07     954.60
 77.17    1023.00
 77.27     982.62
 77.37    1050.00
 77.47    1005.81
 77.57     965.00
 77.67     943.00
 77.77     945.00
 77.87     889.28
 77.97     846.05
 78.07     784.00
 78.17     691.80
 78.27     720.00
 78.37     671.63
 78.47     699.00
 78.57     641.00
 78.67     642.00
 78.77     655.00
 78.87     661.00
 78.97     685.00
 79.07     610.00
 79.17     637.00
 79.27     605.00
 79.37     648.57
 79.47     683.41
 79.57     658.00
 79.67     599.47
 79.77     665.05
 79.87     607.00
 79.97     694.00
 80.07     657.00
 80.17     587.00
 80.27     625.00
 80.37     657.00
 80.47     734.00
 80.57     706.00
 80.67     781.00
 80.77     784.00
 80.87     816.00
 80.97     976.00
 81.07     958.59
 81.17    1078.00
 81.27    1087.84
 81.37    1300.00
 81.47    1389.00
 81.57    1451.00
 81.67    1328.68
 81.77    1583.00
 81.87    1565.00
 81.97    1521.00
 82.07    1478.00
 82.17    1317.24
 82.27    1327.00
 82.37    1225.00
 82.47    1194.00
 82.57    1079.00
 82.67    1014.00
 82.77     941.00
 82.87     919.00
 82.97     786.00
 83.07     881.41
 83.17     776.66
 83.27     686.00
 83.37     697.00
 83.47     711.00
 83.57     703.00
 83.67     653.00
 83.77     720.75
 83.87     667.00
 83.97     635.00
 84.07     661.00
 84.17     642.00
 84.27     630.00
 84.37     670.00
 84.47     651.00
 84.57     715.00
 84.67     711.00
 84.77     687.77
 84.87     734.80
 84.97     678.56
 85.07     623.00
 85.17     643.75
 85.27     631.67
 85.37     650.64
 85.47     641.00
 85.57     601.00
 85.67     682.39
 85.77     675.02
 85.87     595.04
 85.97     678.48
 86.07     607.00
 86.17     622.00
 86.27     606.00
 86.37     605.00
 86.47     622.00
 86.57     674.00
 86.67     660.00
 86.77     652.00
 86.87     664.00
 86.97     632.05
 87.07     704.00
 87.17     668.00
 87.27     722.00
 87.37     674.65
 87.47     741.00
 87.57     666.22
 87.67     746.00
 87.77     774.00
 87.87     732.78
 87.97     714.00
 88.07     818.00
 88.17     778.00
 88.27     728.73
 88.37     750.00
 88.47     710.63
 88.57     756.00
 88.67     757.00
 88.77     733.56
 88.87     646.54
 88.97     652.00
 89.07     668.00
 89.17     690.47
 89.27     656.00
 89.37     680.00
 89.47     651.00
 89.57     649.00
 89.67     710.61
 89.77     647.00
 89.87     679.00
 89.97     732.00
 90.07     705.00
 90.17     739.00
 90.27     710.00
 90.37     706.59
 90.47     663.00
 90.57     683.00
 90.67     663.00
 90.77     714.04
 90.87     669.00
 90.97     661.00
 91.07     651.00
 91.17     625.06
 91.27     637.00
 91.37     645.81
 91.47     582.00
 91.57     604.75
 91.67     625.00
 91.77     579.00
 91.87     575.00
 91.97     579.25
 92.07     651.00
 92.17     593.93
 92.27     609.00
 92.37     591.46
 92.47     671.00
 92.57     648.00
 92.67     630.00
 92.77     592.83
 92.87     646.30
 92.97     674.00
 93.07     693.00
 93.17     681.45
 93.27     704.00
 93.37     677.00
 93.47     704.00
 93.57     787.50
 93.67     807.00
 93.77     743.80
 93.87     793.00
 93.97     817.40
 94.07     805.00
 94.17     856.00
 94.27     815.00
 94.37     888.00
 94.47     824.00
 94.57     863.00
 94.67     923.00
 94.77     880.22
 94.87     921.00
 94.97    1019.00
 95.07     969.00
 95.17    1046.00
 95.27    1051.00
 95.37    1048.00
 95.47    1054.00
 95.57    1106.84
 95.67    1165.00
 95.77    1057.98
 95.87    1090.00
 95.97    1092.84
 96.07    1060.00
 96.17    1002.00
 96.27     906.26
 96.37     960.20
 96.47     902.40
 96.57     903.00
 96.67     885.14
 96.77     867.00
 96.87     784.69
 96.97     838.00
 97.07     844.00
 97.17     848.00
 97.27     848.28
 97.37     959.66
 97.47     976.00
 97.57    1071.00
 97.67    1156.00
 97.77    1121.00
 97.87    1262.00
 97.97    1295.80
 98.07    1388.00
 98.17    1494.00
 98.27    1510.00
 98.37    1617.00
 98.47    1577.17
 98.57    1620.00
 98.67    1539.38
 98.77    1550.00
 98.87    1456.31
 98.97    1476.00
 99.07    1395.86
 99.17    1285.35
 99.27    1321.00
 99.37    1207.00
 99.47    1190.00
 99.57    1141.00
 99.67    1125.09
 99.77    1038.00
 99.87    1024.00
 99.97    1039.66
100.07    1065.00
100.17    1057.78
100.27    1026.00
100.37    1164.00
100.47    1172.00
100.57    1253.64
100.67    1291.23
100.77    1369.00
100.87    1495.19
100.97    1515.00
101.07    1621.97
101.17    1732.33
101.27    1850.00
101.37    1988.00
101.47    2015.00
101.57    2107.00
101.67    2174.47
101.77    2139.77
101.87    2081.07
101.97    2148.64
102.07    2106.00
102.17    2136.59
102.27    2040.58
102.37    1909.81
102.47    1883.00
102.57    1831.00
102.67    1701.00
102.77    1621.62
102.87    1664.00
102.97    1504.83
103.07    1509.00
103.17    1446.00
103.27    1431.09
103.37    1421.58
103.47    1338.00
103.57    1321.00
103.67    1246.00
103.77    1231.00
103.87    1195.00
103.97    1110.00
104.07    1156.00
104.17    1124.34
104.27    1072.00
104.37    1008.92
104.47     979.00
104.57     923.00
104.67     896.11
104.77     867.00
104.87     781.62
104.97     779.00
105.07     734.59
105.17     729.00
105.27     706.00
105.37     694.00
105.47     668.00
105.57     648.92
105.67     641.00
105.77     586.40
105.87     661.00
105.97     620.00
106.07     640.00
106.17     653.00
106.27     650.00
106.37     590.00
106.47     618.00
106.57     638.00
106.67     611.00
106.77     586.41
106.87     655.00
106.97     610.80
107.07     683.00
107.17     647.00
107.27     713.00
107.37     692.00
107.47     690.87
107.57     704.00
107.67     726.64
107.77     711.19
107.87     706.71
107.97     750.49
108.07     754.72
108.17     749.00
108.27     814.28
108.37     816.00
108.47     847.53
108.57     791.00
108.67     797.67
108.77     809.00
108.87     747.52
108.97     807.00
109.07     784.00
109.17     761.00
109.27     689.00
109.37     771.00
109.47     814.63
109.57     790.00
109.67     854.77
109.77     826.84
109.87     778.00
109.97     789.00
110.07     790.07
110.17     798.00
110.27     802.00
110.37     771.00
110.47     787.00
110.57     776.00
110.67     741.00
110.77     744.00
110.87     761.09
110.97     771.00
111.07     702.00
111.17     723.00
111.27     717.93
111.37     669.00
111.47     685.00
111.57     687.00
111.67     701.00
111.77     682.00
111.87     635.00
111.97     652.00
112.07     657.00
112.17     615.53
112.27     650.58
112.37     617.00
112.47     606.00
112.57     667.44
112.67     617.00
112.77     646.00
112.87     599.37
112.97     621.00
113.07     621.66
113.17     589.00
113.27     673.00
113.37     655.39
113.47     640.00
113.57     611.00
113.67     666.00
113.77     664.00
113.87     600.00
113.97     694.66
114.07     677.00
114.17     639.00
114.27     687.00
114.37     663.00
114.47     673.50
114.57     689.00
114.67     734.00
114.77     734.00
114.87     776.00
114.97     840.37
115.07     824.00
115.17     844.00
115.27     888.00
115.37    1005.00
115.47    1061.13
115.57    1145.00
115.67    1254.00
115.77    1331.00
115.87    1533.00
115.97    1664.00
116.07    1888.94
116.17    2078.00
116.27    2310.00
116.37    2588.00
116.47    2837.00
116.57    3282.21
116.67    3531.00
116.77    3889.00
116.87    4160.00
116.97    4580.00
117.07    4911.00
117.17    5428.00
117.27    5795.00
117.37    6172.00
117.47    6527.00
117.57    6921.92
117.67    7161.00
117.77    7420.00
117.87    7512.00
117.97    7544.00
118.07    7699.35
118.17    7591.00
118.27    7440.98
118.37    7271.00
118.47    6963.00
118.57    6592.00
118.67    6354.00
118.77    6103.00
118.87    5533.29
118.97    5399.53
119.07    4874.00
119.17    4615.00
119.27    4229.00
119.37    3809.00
119.47    3490.00
119.57    3267.43
119.67    2830.00
119.77    2593.93
119.87    2334.00
119.97    2097.00
120.07    1881.20
120.17    1738.00
120.27    1515.15
120.37    1507.18
120.47    1366.32
120.57    1381.00
120.67    1126.82
120.77    1157.09
120.87     984.56
120.97    1033.68
121.07     977.00
121.17     903.91
121.27     848.00
121.37     824.63
121.47     841.00
121.57     838.82
121.67     758.00
121.77     746.00
121.87     752.00
121.97     714.00
122.07     739.99
122.17     706.06
122.27     694.00
122.37     673.00
122.47     701.00
122.57     716.00
122.67     708.33
122.77     748.73
122.87     678.00
122.97     714.00
123.07     685.00
123.17     788.63
123.27     791.76
123.37     755.00
123.47     705.50
123.57     801.00
123.67     779.46
123.77     717.83
123.87     799.00
123.97     772.00
124.07     744.04
124.17     807.60
124.27     822.00
124.37     843.40
124.47     827.00
124.57     793.00
124.67     734.75
124.77     826.00
124.87     804.36
124.97     813.77
