  9.97     578.00
 10.07     563.76
 10.17     566.00
 10.27     609.00
 10.37     617.00
 10.47     568.00
 10.57     577.35
 10.67     593.00
 10.77     587.00
 10.87     570.00
 10.97     639.00
 11.07     575.24
 11.17     604.00
 11.27     590.32
 11.37     612.96
 11.47     598.00
 11.57     563.44
 11.67     586.00
 11.77     577.43
 11.87     597.11
 11.97     611.42
 12.07     662.00
 12.17     702.03
 12.27     667.00
 12.37     690.00
 12.47     657.61
 12.57     603.00
 12.67     632.48
 12.77     574.00
 12.87     573.00
 12.97     534.00
 13.07     550.00
 13.17     546.00
 13.27     564.00
 13.37     581.00
 13.47     530.00
 13.57     574.00
 13.67     541.00
 13.77     561.00
 13.87     543.00
 13.97     574.00
 14.07     561.00
 14.17     594.47
 14.27     578.00
 14.37     576.00
 14.47     558.00
 14.57     542.00
 14.67     552.00
 14.77     561.00
 14.87     577.64
 14.97     539.00
 15.07     550.00
 15.17     524.03
 15.27     586.00
 15.37     582.00
 15.47     591.00
 15.57     546.00
 15.67     598.00
 15.77     598.71
 15.87     545.12
 15.97     536.00
 16.07     520.00
 16.17     603.00
 16.27     560.00
 16.37     583.00
 16.47     530.32
 16.57     538.48
 16.67     553.00
 16.77     558.00
 16.87     582.94
 16.97     608.21
 17.07     592.03
 17.17     566.00
 17.27     586.00
 17.37     526.00
 17.47     572.00
 17.57     565.00
 17.67     518.00
 17.77     589.00
 17.87     584.66
 17.97     544.00
 18.07     595.36
 18.17     555.00
 18.27     534.00
 18.37     584.00
 18.47     593.00
 18.57     560.00
 18.67     539.00
 18.77     529.23
 18.87     549.57
 18.97     545.00
 19.07     533.00
 19.17     604.72
 19.27     549.39
 19.37     550.00
 19.47     605.87
 19.57     533.45
 19.67     560.20
 19.77     535.06
 19.87     521.44
 19.97     584.54
 20.07     545.23
 20.17     563.51
 20.27     570.00
 20.37     556.00
 20.47     547.00
 20.57     560.40
 20.67     571.00
 20.77     527.00
 20.87     600.44
 20.97     559.00
 21.07     551.69
 21.17     593.29
 21.27     608.00
 21.37     580.00
 21.47     601.36
 21.57     565.00
 21.67     565.28
 21.77     588.00
 21.87     547.00
 21.97     527.00
 22.07     521.00
 22.17     513.00
 22.27     559.00
 22.37     539.22
 22.47     570.00
 22.57     533.00
 22.67     542.00
 22.77     574.00
 22.87     522.49
 22.97     559.00
 23.07     561.00
 23.17     568.00
 23.27     516.00
 23.37     529.00
 23.47     583.00
 23.57     593.69
 23.67     534.00
 23.77     572.00
 23.87     566.00
 23.97     557.03
 24.07     552.00
 24.17     533.26
 24.27     576.58
 24.37     558.00
 24.47     564.00
 24.57     569.00
 24.67     641.00
 24.77     657.00
 24.87     622.80
 24.97     581.57
 25.07     589.20
 25.17     589.00
 25.27     558.00
 25.37     549.37
 25.47     546.00
 25.57     534.00
 25.67     542.00
 25.77     535.00
 25.87     611.00
 25.97     538.00
 26.07     552.00
 26.17     541.00
 26.27     503.08
 26.37     529.00
 26.47     541.00
 26.57     552.84
 26.67     548.00
 26.77     508.24
 26.87     530.00
 26.97     507.00
 27.07     550.00
 27.17     554.00
 27.27     550.20
 27.37     546.08
 27.47     568.00
 27.57     560.00
 27.67     582.00
 27.77     591.00
 27.87     612.00
 27.97     676.00
 28.07     767.69
 28.17     858.00
 28.27     973.07
 28.37     869.17
 28.47     808.00
 28.57     765.00
 28.67     689.00
 28.77     738.98
 28.87     781.00
 28.97     855.81
 29.07     779.00
 29.17     696.00
 29.27     634.00
 29.37     641.15
 29.47     566.00
 29.57     524.31
 29.67     593.00
 29.77     579.00
 29.87     520.91
 29.97     626.00
 30.07     509.50
 30.17     568.00
 30.27     539.33
 30.37     520.24
 30.47     562.00
 30.57     590.55
 30.67     595.33
 30.77     602.00
 30.87     638.00
 30.97     619.00
 31.07     641.06
 31.17     600.00
 31.27     590.95
 31.37     574.42
 31.47     520.00
 31.57     570.56
 31.67     602.00
 31.77     540.68
 31.87     513.00
 31.97     518.74
 32.07     517.00
 32.17     517.00
 32.27     522.00
 32.37     565.09
 32.47     529.00
 32.57     485.95
 32.67     580.00
 32.77     515.87
 32.87     542.02
 32.97     562.00
 33.07     564.00
 33.17     570.84
 33.27     533.00
 33.37     574.00
 33.47     597.00
 33.57     627.00
 33.67     626.00
 33.77     728.74
 33.87     886.21
 33.97     974.00
 34.07    1129.00
 34.17    1020.00
 34.27     937.00
 34.37     704.99
 34.47     613.61
 34.57     547.44
 34.67     558.00
 34.77     542.00
 34.87     521.00
 34.97     546.00
 35.07     534.53
 35.17     510.00
 35.27     534.00
 35.37     552.56
 35.47     537.00
 35.57     528.00
 35.67     510.74
 35.77     479.17
 35.87     476.70
 35.97     549.00
 36.07     544.54
 36.17     551.00
 36.27     507.06
 36.37     514.84
 36.47     528.00
 36.57     532.00
 36.67     472.00
 36.77     519.86
 36.87     505.00
 36.97     510.00
 37.07     503.00
 37.17     539.99
 37.27     525.30
 37.37     534.00
 37.47     515.00
 37.57     539.20
 37.67     511.00
 37.77     554.30
 37.87     491.99
 37.97     556.00
 38.07     545.71
 38.17     506.00
 38.27     482.00
 38.37     506.87
 38.47     507.00
 38.57     489.35
 38.67     522.00
 38.77     488.00
 38.87     507.00
 38.97     503.49
 39.07     551.76
 39.17     519.00
 39.27     500.00
 39.37     472.82
 39.47     505.82
 39.57     505.00
 39.67     474.70
 39.77     448.00
 39.87     504.00
 39.97     511.71
 40.07     479.00
 40.17     503.00
 40.27     499.39
 40.37     478.00
 40.47     523.97
 40.57     531.00
 40.67     506.77
 40.77     543.00
 40.87     486.00
 40.97     488.00
 41.07     509.00
 41.17     471.35
 41.27     504.00
 41.37     532.00
 41.47     496.00
 41.57     501.00
 41.67     529.00
 41.77     530.00
 41.87     548.00
 41.97     500.00
 42.07     460.00
 42.17     542.00
 42.27     500.00
 42.37     576.93
 42.47     580.00
 42.57     650.92
 42.67     614.00
 42.77     611.26
 42.87     627.65
 42.97     539.00
 43.07     591.00
 43.17     528.00
 43.27     503.00
 43.37     555.00
 43.47     525.00
 43.57     493.56
 43.67     468.85
 43.77     462.90
 43.87     517.00
 43.97     488.00
 44.07     506.44
 44.17     501.00
 44.27     525.83
 44.37     508.00
 44.47     519.57
 44.57     512.98
 44.67     499.72
 44.77     511.00
 44.87     499.87
 44.97     548.00
 45.07     533.72
 45.17     471.00
 45.27     478.00
 45.37     483.00
 45.47     499.00
 45.57     505.29
 45.67     521.00
 45.77     536.22
 45.87     476.00
 45.97     504.87
 46.07     504.00
 46.17     500.00
 46.27     485.00
 46.37     510.00
 46.47     549.60
 46.57     491.00
 46.67     514.00
 46.77     513.00
 46.87     502.00
 46.97     526.00
 47.07     487.00
 47.17     543.25
 47.27     489.00
 47.37     569.00
 47.47     515.27
 47.57     524.00
 47.67     582.00
 47.77     567.91
 47.87     633.74
 47.97     564.12
 48.07     569.00
 48.17     562.00
 48.27     562.00
 48.37     528.21
 48.47     528.00
 48.57     511.00
 48.67     507.00
 48.77     527.00
 48.87     575.00
 48.97     541.00
 49.07     560.00
 49.17     579.14
 49.27     641.00
 49.37     653.00
 49.47     705.00
 49.57     812.00
 49.67     918.00
 49.77    1168.32
 49.87    1386.57
 49.97    1858.40
 50.07    2270.21
 50.17    2470.42
 50.27    2486.00
 50.37    2249.00
 50.47    1909.00
 50.57    1473.42
 50.67    1074.96
 50.77     830.00
 50.87     722.00
 50.97     706.39
 51.07     644.95
 51.17     586.98
 51.27     629.00
 51.37     582.00
 51.47     541.93
 51.57     547.00
 51.67     535.00
 51.77     515.26
 51.87     571.00
 51.97     575.62
 52.07     573.64
 52.17     492.29
 52.27     570.00
 52.37     538.34
 52.47     524.90
 52.57     578.13
 52.67     612.00
 52.77     580.00
 52.87     637.17
 52.97     643.61
 53.07     745.71
 53.17     917.00
 53.27    1173.00
 53.37    1107.00
 53.47    1264.40
 53.57    1167.00
 53.67    1190.08
 53.77     949.43
 53.87     824.00
 53.97     756.00
 54.07     641.24
 54.17     653.00
 54.27     632.00
 54.37     558.00
 54.47     554.92
 54.57     547.00
 54.67     527.00
 54.77     545.00
 54.87     556.00
 54.97     563.00
 55.07     567.00
 55.17     520.00
 55.27     561.00
 55.37     565.87
 55.47     580.82
 55.57     570.00
 55.67     589.00
 55.77     579.00
 55.87     625.00
 55.97     666.33
 56.07     616.00
 56.17     733.00
 56.27     903.10
 56.37    1096.03
 56.47    1447.38
 56.57    1844.00
 56.67    2158.00
 56.77    2534.00
 56.87    2582.00
 56.97    2581.00
 57.07    2392.00
 57.17    2065.00
 57.27    1582.73
 57.37    1240.00
 57.47    1034.00
 57.57     827.00
 57.67     774.12
 57.77     736.00
 57.87     642.00
 57.97     647.23
 58.07     681.00
 58.17     697.00
 58.27     732.00
 58.37     833.00
 58.47     937.00
 58.57    1011.00
 58.67    1150.90
 58.77    1224.00
 58.87    1441.00
 58.97    1440.00
 59.07    1513.01
 59.17    1522.00
 59.27    1296.60
 59.37    1278.34
 59.47    1239.15
 59.57    1190.77
 59.67    1125.00
 59.77    1178.00
 59.87    1276.00
 59.97    1319.00
 60.07    1388.66
 60.17    1535.00
 60.27    1611.00
 60.37    1499.00
 60.47    1438.90
 60.57    1199.03
 60.67    1099.00
 60.77     957.60
 60.87     762.69
 60.97     736.00
 61.07     674.00
 61.17     614.18
 61.27     591.00
 61.37     620.44
 61.47     725.59
 61.57     714.53
 61.67     827.74
 61.77     941.00
 61.87    1058.00
 61.97    1274.64
 62.07    1379.00
 62.17    1353.00
 62.27    1393.46
 62.37    1258.00
 62.47    1158.00
 62.57    1045.44
 62.67     844.00
 62.77     792.98
 62.87     662.00
 62.97     673.00
 63.07     603.00
 63.17     596.00
 63.27     632.00
 63.37     592.00
 63.47     564.15
 63.57     581.00
 63.67     549.45
 63.77     605.00
 63.87     633.00
 63.97     729.00
 64.07     724.00
 64.17     779.00
 64.27     874.00
 64.37     886.88
 64.47     999.00
 64.57    1057.00
 64.67    1034.00
 64.77    1009.00
 64.87     947.91
 64.97     931.00
 65.07     860.00
 65.17     813.22
 65.27     737.00
 65.37     705.00
 65.47     663.43
 65.57     606.00
 65.67     600.39
 65.77     623.54
 65.87     570.00
 65.97     532.00
 66.07     586.00
 66.17     518.00
 66.27     521.00
 66.37     571.00
 66.47     583.00
 66.57     604.65
 66.67     535.00
 66.77     557.56
 66.87     590.00
 66.97     646.00
 67.07     627.00
 67.17     655.67
 67.27     821.58
 67.37     877.15
 67.47    1032.00
 67.57    1271.03
 67.67    1590.54
 67.77    1823.00
 67.87    2098.00
 67.97    2331.00
 68.07    2509.29
 68.17    2446.00
 68.27    2235.48
 68.37    2111.39
 68.47    1846.00
 68.57    1484.19
 68.67    1315.00
 68.77    1020.00
 68.87     877.00
 68.97     793.00
 69.07     677.02
 69.17     712.00
 69.27     595.00
 69.37     624.00
 69.47     589.00
 69.57     603.00
 69.67     565.00
 69.77     528.00
 69.87     616.00
 69.97     608.33
 70.07     525.90
 70.17     575.00
 70.27     538.56
 70.37     558.00
 70.47     569.00
 70.57     599.00
 70.67     539.00
 70.77     576.00
 70.87     618.00
 70.97     655.00
 71.07     650.00
 71.17     730.00
 71.27     807.00
 71.37     918.28
 71.47    1089.46
 71.57    1332.07
 71.67    1445.66
 71.77    1567.67
 71.87    1807.00
 71.97    1851.35
 72.07    1927.00
 72.17    1898.00
 72.27    1796.00
 72.37    1634.00
 72.47    1468.75
 72.57    1347.00
 72.67    1116.00
 72.77    1023.00
 72.87     918.00
 72.97     809.00
 73.07     765.74
 73.17     802.15
 73.27     717.00
 73.37     713.66
 73.47     642.45
 73.57     679.45
 73.67     602.00
 73.77     647.10
 73.87     589.00
 73.97     593.28
 74.07     564.47
 74.17     577.57
 74.27     638.00
 74.37     616.00
 74.47     636.00
 74.57     617.90
 74.67     680.00
 74.77     652.00
 74.87     645.00
 74.97     593.00
 75.07     623.00
 75.17     610.00
 75.27     606.00
 75.37     564.94
 75.47     579.41
 75.57     601.69
 75.67     559.00
 75.77     533.08
 75.87     625.00
 75.97     627.00
 76.07     684.00
 76.17     605.00
 76.27     707.33
 76.37     697.91
 76.47     760.10
 76.57     706.00
 76.67     727.97
 76.77     663.00
 76.87     625.00
 76.97     680.46
 77.07     637.00
 77.17     610.27
 77.27     589.00
 77.37     531.00
 77.47     550.00
 77.57     531.00
 77.67     502.25
 77.77     507.00
 77.87     582.00
 77.97     541.00
 78.07     502.00
 78.17     534.00
 78.27     509.84
 78.37     490.57
 78.47     496.00
 78.57     573.14
 78.67     571.09
 78.77     538.00
 78.87     561.73
 78.97     554.97
 79.07     556.06
 79.17     499.48
 79.27     532.00
 79.37     527.00
 79.47     562.45
 79.57     564.30
 79.67     562.00
 79.77     550.00
 79.87     533.48
 79.97     523.00
 80.07     570.00
 80.17     562.00
 80.27     601.00
 80.37     559.00
 80.47     616.45
 80.57     585.22
 80.67     623.88
 80.77     658.30
 80.87     619.00
 80.97     673.03
 81.07     668.76
 81.17     760.33
 81.27     697.50
 81.37     796.00
 81.47     786.12
 81.57     707.26
 81.67     753.00
 81.77     759.96
 81.87     738.00
 81.97     738.00
 82.07     686.00
 82.17     677.00
 82.27     689.01
 82.37     651.00
 82.47     561.91
 82.57     613.00
 82.67     566.00
 82.77     546.60
 82.87     531.00
 82.97     599.65
 83.07     538.00
 83.17     570.92
 83.27     531.00
 83.37     533.00
 83.47     526.00
 83.57     570.00
 83.67     613.00
 83.77     612.52
 83.87     604.00
 83.97     533.00
 84.07     556.00
 84.17     565.00
 84.27     568.80
 84.37     505.00
 84.47     606.12
 84.57     603.17
 84.67     566.00
 84.77     533.00
 84.87     523.00
 84.97     503.91
 85.07     514.00
 85.17     554.00
 85.27     550.00
 85.37     549.00
 85.47     543.00
 85.57     565.16
 85.67     558.00
 85.77     496.18
 85.87     526.00
 85.97     544.00
 86.07     521.61
 86.17     554.00
 86.27     539.00
 86.37     538.04
 86.47     525.00
 86.57     573.00
 86.67     568.00
 86.77     605.55
 86.87     573.00
 86.97     620.00
 87.07     606.00
 87.17     618.00
 87.27     642.00
 87.37     686.00
 87.47     592.32
 87.57     593.99
 87.67     666.00
 87.77     627.00
 87.87     612.00
 87.97     607.00
 88.07     625.00
 88.17     625.49
 88.27     601.00
 88.37     541.79
 88.47     584.00
 88.57     632.00
 88.67     596.00
 88.77     617.00
 88.87     598.12
 88.97     623.00
 89.07     609.00
 89.17     574.00
 89.27     622.00
 89.37     582.00
 89.47     607.00
 89.57     599.00
 89.67     638.00
 89.77     586.88
 89.87     598.11
 89.97     549.00
 90.07     552.00
 90.17     604.22
 90.27     517.00
 90.37     480.00
 90.47     498.27
 90.57     541.00
 90.67     515.00
 90.77     565.53
 90.87     552.59
 90.97     511.00
 91.07     474.00
 91.17     491.00
 91.27     546.67
 91.37     576.38
 91.47     534.00
 91.57     547.00
 91.67     559.00
 91.77     527.00
 91.87     531.00
 91.97     515.66
 92.07     553.07
 92.17     584.00
 92.27     623.00
 92.37     646.06
 92.47     586.39
 92.57     619.00
 92.67     651.00
 92.77     664.82
 92.87     714.00
 92.97     735.56
 93.07     767.00
 93.17     829.00
 93.27     818.00
 93.37     803.00
 93.47     762.00
 93.57     833.00
 93.67     819.00
 93.77     808.00
 93.87     857.47
 93.97     845.75
 94.07     865.00
 94.17     858.00
 94.27     863.00
 94.37     834.57
 94.47     893.00
 94.57     885.00
 94.67     858.00
 94.77     886.25
 94.87     955.00
 94.97     894.83
 95.07     899.44
 95.17     847.70
 95.27     829.00
 95.37     826.15
 95.47     803.35
 95.57     699.00
 95.67     742.80
 95.77     720.00
 95.87     669.08
 95.97     632.59
 96.07     723.16
 96.17     694.00
 96.27     691.00
 96.37     757.51
 96.47     753.29
 96.57     863.21
 96.67     903.00
 96.77    1002.00
 96.87    1085.00
 96.97    1115.52
 97.07    1258.00
 97.17    1288.00
 97.27    1349.00
 97.37    1403.42
 97.47    1375.31
 97.57    1427.00
 97.67    1392.89
 97.77    1377.00
 97.87    1297.00
 97.97    1254.00
 98.07    1196.91
 98.17    1166.00
 98.27    1017.01
 98.37    1024.88
 98.47     957.06
 98.57     929.00
 98.67     818.00
 98.77     808.00
 98.87     763.36
 98.97     815.00
 99.07     809.00
 99.17     830.63
 99.27     903.00
 99.37     888.60
 99.47    1057.00
 99.57    1110.24
 99.67    1181.00
 99.77    1215.23
 99.87    1453.00
 99.97    1499.00
100.07    1709.00
100.17    1770.72
100.27    1884.00
100.37    1940.74
100.47    1995.00
100.57    2034.00
100.67    2107.00
100.77    2124.94
100.87    2009.11
100.97    2019.00
101.07    1938.00
101.17    1927.00
101.27    1718.00
101.37    1686.00
101.47    1656.66
101.57    1482.00
101.67    1476.00
101.77    1295.28
101.87    1304.63
101.97    1212.19
102.07    1200.02
102.17    1131.00
102.27    1128.00
102.37    1095.00
102.47    1060.00
102.57    1122.00
102.67    1060.00
102.77    1053.65
102.87     953.00
102.97     976.18
103.07     902.00
103.17     926.71
103.27     796.00
103.37     791.00
103.47     747.13
103.57     775.00
103.67     714.00
103.77     644.36
103.87     625.00
103.97     623.85
104.07     573.00
104.17     600.00
104.27     565.74
104.37     578.00
104.47     516.83
104.57     514.47
104.67     546.00
104.77     538.00
104.87     561.00
104.97     499.44
105.07     540.35
105.17     568.00
105.27     538.00
105.37     561.33
105.47     542.00
105.57     548.00
105.67     539.00
105.77     534.00
105.87     585.00
105.97     601.99
106.07     525.95
106.17     586.00
106.27     555.50
106.37     577.00
106.47     619.00
106.57     628.00
106.67     685.45
106.77     625.00
106.87     662.00
106.97     659.00
107.07     683.38
107.17     726.29
107.27     718.66
107.37     712.62
107.47     708.00
107.57     686.68
107.67     757.34
107.77     641.00
107.87     714.00
107.97     729.00
108.07     666.00
108.17     657.00
108.27     648.57
108.37     689.00
108.47     661.00
108.57     681.00
108.67     712.00
108.77     674.78
108.87     723.00
108.97     653.00
109.07     684.00
109.17     632.15
109.27     691.00
109.37     683.00
109.47     632.99
109.57     652.00
109.67     623.30
109.77     603.00
109.87     617.92
109.97     637.34
110.07     601.00
110.17     587.00
110.27     609.21
110.37     550.00
110.47     566.00
110.57     578.00
110.67     540.82
110.77     536.00
110.87     569.87
110.97     585.00
111.07     558.88
111.17     543.00
111.27     571.43
111.37     567.00
111.47     499.00
111.57     535.00
111.67     592.00
111.77     533.00
111.87     547.00
111.97     582.00
112.07     559.00
112.17     539.87
112.27     583.61
112.37     572.28
112.47     584.00
112.57     619.00
112.67     589.00
112.77     600.00
112.87     691.00
112.97     668.36
113.07     648.00
113.17     660.00
113.27     720.00
113.37     700.00
113.47     747.00
113.57     739.00
113.67     814.00
113.77     828.29
113.87     893.00
113.97     934.00
114.07     912.00
114.17    1005.10
114.27    1111.00
114.37    1131.00
114.47    1253.80
114.57    1427.00
114.67    1553.00
114.77    1686.00
114.87    1906.05
114.97    2086.00
115.07    2339.58
115.17    2572.00
115.27    2743.59
115.37    3023.94
115.47    3469.00
115.57    3752.00
115.67    4095.21
115.77    4637.84
115.87    4901.00
115.97    5280.58
116.07    5722.46
116.17    5986.00
116.27    6427.62
116.37    6519.00
116.47    6818.00
116.57    6744.69
116.67    6787.96
116.77    6823.00
116.87    6632.80
116.97    6534.14
117.07    6409.00
117.17    6013.00
117.27    5693.35
117.37    5361.21
117.47    4980.00
117.57    4725.19
117.67    4294.70
117.77    3970.89
117.87    3563.50
117.97    3136.43
118.07    2805.79
118.17    2565.00
118.27    2279.00
118.37    2083.67
118.47    1843.37
118.57    1554.62
118.67    1377.00
118.77    1304.00
118.87    1150.72
118.97    1119.64
119.07     939.65
119.17     917.22
119.27     838.76
119.37     786.00
119.47     759.11
119.57     725.00
119.67     651.00
119.77     653.00
119.87     660.00
119.97     660.00
120.07     571.00
120.17     614.00
120.27     584.00
120.37     569.98
120.47     576.00
120.57     539.00
120.67     575.00
120.77     571.00
120.87     586.00
120.97     543.00
121.07     586.00
121.17     553.00
121.27     603.00
121.37     583.00
121.47     607.00
121.57     622.00
121.67     607.00
121.77     625.00
121.87     574.41
121.97     561.82
122.07     571.90
122.17     607.00
122.27     581.41
122.37     583.00
122.47     617.00
122.57     666.00
122.67     626.00
122.77     627.50
122.87     642.00
122.97     630.00
123.07     693.00
123.17     656.00
123.27     675.21
123.37     639.00
123.47     641.67
123.57     667.69
123.67     649.00
123.77     602.39
123.87     631.00
123.97     602.00
124.07     639.65
124.17     588.79
124.27     660.22
124.37     594.00
124.47     644.00
124.57     631.00
124.67     606.00
124.77     546.55
124.87     588.00
124.97     586.00
