  9.97     582.44
 10.07     566.00
 10.17     592.00
 10.27     596.85
 10.37     584.00
 10.47     579.47
 10.57     587.96
 10.67     556.50
 10.77     596.00
 10.87     514.57
 10.97     569.75
 11.07     558.00
 11.17     584.67
 11.27     597.00
 11.37     575.80
 11.47     595.00
 11.57     629.00
 11.67     595.00
 11.77     594.00
 11.87     629.00
 11.97     611.02
 12.07     636.00
 12.17     657.67
 12.27     653.00
 12.37     635.00
 12.47     666.72
 12.57     639.00
 12.67     571.00
 12.77     572.00
 12.87     565.00
 12.97     548.01
 13.07     557.00
 13.17     546.00
 13.27     537.00
 13.37     551.00
 13.47     583.00
 13.57     604.52
 13.67     533.00
 13.77     536.00
 13.87     525.47
 13.97     548.00
 14.07     574.00
 14.17     540.00
 14.27     564.00
 14.37     548.00
 14.47     602.00
 14.57     571.00
 14.67     499.00
 14.77     563.00
 14.87     606.40
 14.97     537.00
 15.07     515.00
 15.17     561.00
 15.27     554.00
 15.37     549.31
 15.47     559.00
 15.57     549.00
 15.67     552.00
 15.77     478.00
 15.87     511.00
 15.97     549.78
 16.07     540.00
 16.17     593.14
 16.27     574.37
 16.37     599.52
 16.47     555.81
 16.57     534.69
 16.67     589.85
 16.77     577.93
 16.87     576.99
 16.97     531.00
 17.07     539.00
 17.17     582.00
 17.27     592.11
 17.37     538.98
 17.47     541.08
 17.57     566.87
 17.67     561.00
 17.77     562.00
 17.87     528.00
 17.97     555.09
 18.07     529.39
 18.17     530.00
 18.27     572.00
 18.37     594.42
 18.47     600.00
 18.57     565.67
 18.67     576.00
 18.77     512.49
 18.87     566.00
 18.97     548.00
 19.07     547.25
 19.17     546.00
 19.27     513.05
 19.37     532.69
 19.47     579.29
 19.57     558.00
 19.67     540.00
 19.77     521.27
 19.87     570.00
 19.97     528.00
 20.07     553.00
 20.17     554.00
 20.27     603.00
 20.37     519.00
 20.47     524.74
 20.57     570.47
 20.67     542.00
 20.77     580.51
 20.87     579.00
 20.97     578.89
 21.07     549.00
 21.17     523.16
 21.27     517.00
 21.37     598.48
 21.47     521.00
 21.57     548.00
 21.67     509.80
 21.77     552.00
 21.87     577.10
 21.97     575.38
 22.07     579.10
 22.17     551.00
 22.27     546.00
 22.37     524.00
 22.47     530.00
 22.57     527.00
 22.67     569.07
 22.77     589.50
 22.87     538.00
 22.97     546.00
 23.07     519.00
 23.17     562.00
 23.27     516.00
 23.37     593.63
 23.47     548.00
 23.57     555.00
 23.67     526.81
 23.77     537.00
 23.87     541.09
 23.97     564.68
 24.07     568.00
 24.17     536.00
 24.27     553.91
 24.37     529.96
 24.47     618.81
 24.57     565.00
 24.67     611.00
 24.77     654.00
 24.87     602.59
 24.97     585.00
 25.07     613.00
 25.17     544.00
 25.27     527.84
 25.37     604.00
 25.47     560.00
 25.57     570.87
 25.67     581.10
 25.77     566.00
 25.87     556.00
 25.97     590.00
 26.07     574.00
 26.17     578.35
 26.27     571.14
 26.37     583.00
 26.47     562.00
 26.57     544.00
 26.67     560.62
 26.77     562.00
 26.87     587.97
 26.97     575.00
 27.07     585.15
 27.17     546.00
 27.27     518.52
 27.37     576.00
 27.47     542.88
 27.57     572.00
 27.67     592.00
 27.77     522.29
 27.87     622.00
 27.97     677.00
 28.07     738.00
 28.17     866.95
 28.27     891.00
 28.37     870.38
 28.47     841.00
 28.57     787.00
 28.67     723.80
 28.77     756.00
 28.87     791.00
 28.97     824.00
 29.07     827.00
 29.17     711.00
 29.27     665.00
 29.37     571.12
 29.47     573.97
 29.57     548.00
 29.67     657.00
 29.77     510.54
 29.87     543.00
 29.97     590.79
 30.07     608.00
 30.17     567.00
 30.27     584.18
 30.37     517.00
 30.47     502.23
 30.57     547.00
 30.67     550.00
 30.77     615.11
 30.87     584.76
 30.97     582.00
 31.07     623.77
 31.17     586.00
 31.27     549.49
 31.37     543.00
 31.47     584.40
 31.57     509.00
 31.67     518.00
 31.77     538.88
 31.87     489.17
 31.97     532.48
 32.07     547.00
 32.17     553.00
 32.27     538.00
 32.37     522.00
 32.47     509.96
 32.57     524.00
 32.67     548.00
 32.77     508.09
 32.87     563.00
 32.97     523.26
 33.07     568.00
 33.17     488.93
 33.27     532.00
 33.37     571.00
 33.47     569.83
 33.57     581.95
 33.67     622.97
 33.77     740.28
 33.87     825.00
 33.97     900.72
 34.07    1005.44
 34.17    1001.00
 34.27     947.00
 34.37     807.64
 34.47     691.00
 34.57     628.89
 34.67     652.00
 34.77     561.00
 34.87     552.00
 34.97     537.85
 35.07     508.40
 35.17     532.00
 35.27     508.00
 35.37     529.98
 35.47     516.00
 35.57     500.00
 35.67     550.00
 35.77     447.00
 35.87     499.39
 35.97     500.00
 36.07     519.00
 36.17     505.00
 36.27     475.00
 36.37     528.34
 36.47     475.00
 36.57     497.00
 36.67     482.89
 36.77     510.36
 36.87     512.00
 36.97     509.00
 37.07     524.00
 37.17     494.00
 37.27     494.47
 37.37     494.00
 37.47     522.00
 37.57     494.00
 37.67     519.92
 37.77     495.00
 37.87     519.00
 37.97     526.00
 38.07     492.00
 38.17     460.00
 38.27     498.00
 38.37     482.89
 38.47     507.06
 38.57     500.00
 38.67     501.00
 38.77     522.00
 38.87     489.00
 38.97     473.00
 39.07     462.03
 39.17     539.82
 39.27     470.00
 39.37     488.00
 39.47     514.56
 39.57     453.64
 39.67     467.00
 39.77     458.00
 39.87     489.61
 39.97     451.49
 40.07     501.76
 40.17     455.40
 40.27     509.64
 40.37     531.72
 40.47     481.00
 40.57     462.00
 40.67     474.00
 40.77     530.24
 40.87     478.00
 40.97     507.25
 41.07     475.00
 41.17     493.00
 41.27     479.00
 41.37     451.39
 41.47     507.00
 41.57     489.20
 41.67     483.74
 41.77     456.00
 41.87     521.92
 41.97     456.00
 42.07     461.24
 42.17     521.23
 42.27     512.00
 42.37     524.00
 42.47     545.00
 42.57     591.25
 42.67     601.00
 42.77     646.00
 42.87     623.51
 42.97     571.00
 43.07     604.25
 43.17     542.43
 43.27     513.00
 43.37     526.33
 43.47     536.26
 43.57     481.00
 43.67     500.00
 43.77     467.00
 43.87     501.00
 43.97     492.00
 44.07     449.88
 44.17     522.00
 44.27     471.00
 44.37     535.00
 44.47     517.00
 44.57     467.00
 44.67     511.00
 44.77     522.00
 44.87     496.59
 44.97     475.00
 45.07     503.08
 45.17     494.00
 45.27     486.00
 45.37     565.00
 45.47     471.00
 45.57     452.00
 45.67     510.00
 45.77     514.00
 45.87     507.64
 45.97     485.00
 46.07     511.00
 46.17     502.12
 46.27     502.00
 46.37     480.00
 46.47     488.00
 46.57     497.00
 46.67     526.00
 46.77     503.00
 46.87     492.32
 46.97     499.00
 47.07     493.00
 47.17     509.00
 47.27     509.00
 47.37     502.00
 47.47     535.00
 47.57     523.00
 47.67     535.00
 47.77     568.93
 47.87     558.00
 47.97     584.00
 48.07     518.00
 48.17     581.00
 48.27     539.38
 48.37     526.00
 48.47     538.00
 48.57     562.53
 48.67     540.00
 48.77     509.07
 48.87     544.00
 48.97     527.40
 49.07     529.00
 49.17     570.67
 49.27     556.06
 49.37     576.00
 49.47     564.74
 49.57     678.00
 49.67     745.86
 49.77     980.00
 49.87    1209.00
 49.97    1452.00
 50.07    1889.09
 50.17    2248.17
 50.27    2363.00
 50.37    2279.00
 50.47    2082.00
 50.57    1628.00
 50.67    1273.73
 50.77    1022.00
 50.87     832.90
 50.97     716.82
 51.07     616.08
 51.17     656.00
 51.27     612.77
 51.37     612.00
 51.47     582.07
 51.57     575.00
 51.67     591.77
 51.77     545.00
 51.87     579.63
 51.97     564.00
 52.07     556.17
 52.17     548.00
 52.27     582.00
 52.37     533.00
 52.47     582.00
 52.57     611.00
 52.67     586.00
 52.77     556.61
 52.87     561.66
 52.97     657.00
 53.07     725.00
 53.17     823.00
 53.27     929.00
 53.37    1000.00
 53.47    1088.84
 53.57    1192.00
 53.67    1119.84
 53.77    1100.00
 53.87    1017.00
 53.97     871.00
 54.07     740.57
 54.17     675.40
 54.27     618.00
 54.37     598.00
 54.47     592.99
 54.57     582.00
 54.67     571.00
 54.77     506.00
 54.87     590.07
 54.97     550.11
 55.07     559.00
 55.17     616.00
 55.27     556.00
 55.37     570.75
 55.47     555.00
 55.57     581.21
 55.67     583.00
 55.77     583.00
 55.87     626.00
 55.97     654.66
 56.07     617.00
 56.17     731.00
 56.27     916.24
 56.37    1000.00
 56.47    1318.10
 56.57    1578.46
 56.67    1869.00
 56.77    2141.79
 56.87    2516.77
 56.97    2532.00
 57.07    2489.32
 57.17    2329.00
 57.27    1980.00
 57.37    1607.00
 57.47    1314.39
 57.57    1085.00
 57.67     888.49
 57.77     749.00
 57.87     739.00
 57.97     720.00
 58.07     696.00
 58.17     722.00
 58.27     763.00
 58.37     757.00
 58.47     811.00
 58.57     904.00
 58.67     957.61
 58.77    1020.60
 58.87    1172.00
 58.97    1236.72
 59.07    1325.00
 59.17    1403.00
 59.27    1329.00
 59.37    1306.00
 59.47    1166.09
 59.57    1242.00
 59.67    1159.53
 59.77    1230.00
 59.87    1230.49
 59.97    1349.00
 60.07    1360.00
 60.17    1429.00
 60.27    1481.00
 60.37    1575.00
 60.47    1518.00
 60.57    1369.00
 60.67    1233.29
 60.77    1099.00
 60.87     894.00
 60.97     831.52
 61.07     741.00
 61.17     708.00
 61.27     726.00
 61.37     654.00
 61.47     671.00
 61.57     731.00
 61.67     779.00
 61.77     910.00
 61.87    1023.00
 61.97    1093.00
 62.07    1236.57
 62.17    1285.90
 62.27    1312.00
 62.37    1365.00
 62.47    1216.00
 62.57    1131.00
 62.67     984.00
 62.77     861.00
 62.87     769.00
 62.97     722.00
 63.07     605.00
 63.17     635.34
 63.27     627.65
 63.37     533.19
 63.47     557.00
 63.57     547.00
 63.67     535.54
 63.77     613.00
 63.87     552.55
 63.97     655.00
 64.07     657.00
 64.17     743.00
 64.27     799.26
 64.37     814.00
 64.47     866.57
 64.57     926.17
 64.67    1033.00
 64.77    1034.00
 64.87    1046.36
 64.97     919.00
 65.07     870.00
 65.17     833.00
 65.27     782.26
 65.37     729.00
 65.47     726.00
 65.57     624.97
 65.67     661.00
 65.77     607.00
 65.87     587.94
 65.97     576.00
 66.07     563.00
 66.17     582.00
 66.27     549.00
 66.37     578.74
 66.47     549.00
 66.57     530.00
 66.67     614.12
 66.77     610.00
 66.87     555.00
 66.97     621.00
 67.07     633.00
 67.17     663.00
 67.27     692.81
 67.37     774.54
 67.47     924.13
 67.57    1084.00
 67.67    1338.00
 67.77    1548.00
 67.87    1741.58
 67.97    1970.20
 68.07    2285.00
 68.17    2324.00
 68.27    2284.80
 68.37    2311.00
 68.47    2073.00
 68.57    1770.13
 68.67    1600.23
 68.77    1364.00
 68.87    1066.16
 68.97     947.42
 69.07     820.00
 69.17     762.00
 69.27     657.58
 69.37     666.00
 69.47     634.00
 69.57     601.00
 69.67     596.00
 69.77     622.42
 69.87     569.00
 69.97     559.00
 70.07     548.00
 70.17     580.00
 70.27     584.00
 70.37     554.00
 70.47     599.96
 70.57     579.06
 70.67     542.00
 70.77     606.00
 70.87     619.64
 70.97     612.24
 71.07     667.12
 71.17     677.00
 71.27     739.00
 71.37     850.59
 71.47     966.00
 71.57    1007.00
 71.67    1272.00
 71.77    1392.26
 71.87    1599.00
 71.97    1684.00
 72.07    1910.91
 72.17    1816.00
 72.27    1814.00
 72.37    1654.08
 72.47    1684.00
 72.57    1417.06
 72.67    1269.00
 72.77    1126.00
 72.87     968.00
 72.97     870.18
 73.07     812.53
 73.17     683.00
 73.27     678.65
 73.37     669.47
 73.47     622.99
 73.57     655.82
 73.67     611.68
 73.77     603.00
 73.87     559.66
 73.97     559.81
 74.07     526.00
 74.17     591.89
 74.27     584.00
 74.37     575.00
 74.47     669.00
 74.57     541.09
 74.67     651.00
 74.77     595.00
 74.87     616.00
 74.97     666.00
 75.07     600.00
 75.17     560.40
 75.27     502.71
 75.37     527.54
 75.47     507.37
 75.57     521.00
 75.67     520.63
 75.77     560.00
 75.87     598.73
 75.97     604.00
 76.07     564.01
 76.17     653.55
 76.27     660.00
 76.37     613.00
 76.47     662.00
 76.57     675.43
 76.67     658.00
 76.77     695.55
 76.87     708.26
 76.97     674.00
 77.07     646.00
 77.17     621.00
 77.27     632.00
 77.37     580.65
 77.47     575.00
 77.57     523.43
 77.67     555.00
 77.77     559.00
 77.87     524.00
 77.97     511.87
 78.07     463.00
 78.17     485.00
 78.27     498.00
 78.37     508.00
 78.47     554.19
 78.57     503.00
 78.67     495.00
 78.77     522.85
 78.87     496.00
 78.97     498.00
 79.07     502.00
 79.17     467.00
 79.27     481.00
 79.37     550.73
 79.47     500.00
 79.57     499.68
 79.67     519.00
 79.77     494.00
 79.87     513.00
 79.97     556.11
 80.07     519.00
 80.17     513.65
 80.27     572.62
 80.37     552.00
 80.47     603.84
 80.57     550.00
 80.67     592.31
 80.77     586.00
 80.87     613.00
 80.97     696.00
 81.07     694.00
 81.17     698.00
 81.27     692.00
 81.37     752.00
 81.47     699.56
 81.57     746.42
 81.67     748.00
 81.77     753.00
 81.87     692.00
 81.97     710.82
 82.07     688.41
 82.17     681.00
 82.27     679.00
 82.37     647.00
 82.47     626.50
 82.57     555.00
 82.67     575.77
 82.77     600.29
 82.87     539.00
 82.97     549.00
 83.07     586.52
 83.17     569.00
 83.27     542.82
 83.37     493.00
 83.47     517.65
 83.57     490.00
 83.67     524.40
 83.77     545.00
 83.87     589.93
 83.97     587.96
 84.07     521.00
 84.17     529.00
 84.27     554.00
 84.37     554.00
 84.47     595.00
 84.57     534.32
 84.67     539.00
 84.77     546.00
 84.87     486.00
 84.97     534.00
 85.07     532.00
 85.17     526.00
 85.27     474.38
 85.37     496.71
 85.47     535.00
 85.57     540.51
 85.67     541.63
 85.77     519.00
 85.87     505.00
 85.97     486.00
 86.07     515.00
 86.17     501.41
 86.27     484.00
 86.37     513.05
 86.47     492.00
 86.57     487.88
 86.67     520.00
 86.77     559.00
 86.87     538.68
 86.97     575.46
 87.07     537.74
 87.17     602.00
 87.27     636.75
 87.37     576.00
 87.47     640.00
 87.57     619.00
 87.67     635.00
 87.77     621.00
 87.87     646.21
 87.97     578.15
 88.07     617.00
 88.17     613.38
 88.27     639.00
 88.37     555.00
 88.47     596.00
 88.57     568.00
 88.67     530.55
 88.77     615.00
 88.87     598.00
 88.97     537.00
 89.07     543.00
 89.17     572.95
 89.27     601.00
 89.37     614.00
 89.47     620.00
 89.57     573.50
 89.67     618.00
 89.77     602.79
 89.87     531.96
 89.97     552.00
 90.07     553.00
 90.17     547.00
 90.27     535.00
 90.37     534.43
 90.47     480.00
 90.57     525.00
 90.67     479.00
 90.77     509.00
 90.87     472.00
 90.97     480.00
 91.07     502.00
 91.17     499.12
 91.27     522.00
 91.37     495.91
 91.47     529.87
 91.57     510.00
 91.67     490.00
 91.77     489.00
 91.87     527.00
 91.97     479.00
 92.07     522.31
 92.17     498.00
 92.27     547.36
 92.37     571.00
 92.47     517.00
 92.57     605.00
 92.67     606.00
 92.77     600.00
 92.87     690.00
 92.97     649.00
 93.07     672.00
 93.17     726.00
 93.27     677.69
 93.37     767.00
 93.47     746.60
 93.57     752.00
 93.67     716.00
 93.77     798.00
 93.87     827.18
 93.97     799.00
 94.07     871.00
 94.17     851.00
 94.27     879.57
 94.37     862.00
 94.47     865.00
 94.57     900.02
 94.67     945.00
 94.77     897.00
 94.87     942.00
 94.97     952.00
 95.07     811.85
 95.17     883.64
 95.27     892.00
 95.37     896.00
 95.47     832.00
 95.57     774.00
 95.67     721.00
 95.77     682.38
 95.87     719.67
 95.97     722.00
 96.07     730.04
 96.17     668.56
 96.27     706.00
 96.37     711.00
 96.47     779.00
 96.57     804.00
 96.67     784.53
 96.77     928.70
 96.87     930.00
 96.97    1059.19
 97.07    1047.00
 97.17    1103.00
 97.27    1237.57
 97.37    1316.00
 97.47    1395.00
 97.57    1350.00
 97.67    1407.00
 97.77    1384.33
 97.87    1354.38
 97.97    1344.00
 98.07    1332.26
 98.17    1263.00
 98.27    1285.00
 98.37    1167.00
 98.47    1093.00
 98.57     974.00
 98.67    1040.02
 98.77     941.50
 98.87     909.00
 98.97     856.00
 99.07     841.00
 99.17     860.00
 99.27     843.47
 99.37     918.00
 99.47     947.00
 99.57    1014.00
 99.67    1053.00
 99.77    1103.00
 99.87    1172.43
 99.97    1278.29
100.07    1465.54
100.17    1577.70
100.27    1627.00
100.37    1797.00
100.47    1759.85
100.57    1908.18
100.67    1918.00
100.77    1977.00
100.87    2030.00
100.97    1979.00
101.07    2017.00
101.17    1868.20
101.27    1833.00
101.37    1843.00
101.47    1730.00
101.57    1666.00
101.67    1541.00
101.77    1572.00
101.87    1506.58
101.97    1451.00
102.07    1342.00
102.17    1271.00
102.27    1225.00
102.37    1291.00
102.47    1239.94
102.57    1212.40
102.67    1178.72
102.77    1143.00
102.87    1058.80
102.97    1073.08
103.07    1017.01
103.17     984.91
103.27     926.00
103.37     929.00
103.47     853.00
103.57     784.98
103.67     795.00
103.77     745.54
103.87     715.00
103.97     725.37
104.07     624.79
104.17     624.38
104.27     637.00
104.37     626.97
104.47     522.58
104.57     517.99
104.67     533.75
104.77     572.62
104.87     557.10
104.97     502.06
105.07     513.00
105.17     506.95
105.27     613.00
105.37     478.00
105.47     486.07
105.57     507.00
105.67     557.00
105.77     481.13
105.87     560.00
105.97     555.00
106.07     539.00
106.17     539.00
106.27     555.36
106.37     534.00
106.47     557.78
106.57     565.00
106.67     586.48
106.77     606.20
106.87     610.00
106.97     660.19
107.07     655.00
107.17     684.55
107.27     631.65
107.37     649.28
107.47     708.68
107.57     689.00
107.67     676.00
107.77     688.00
107.87     647.68
107.97     645.00
108.07     648.00
108.17     639.00
108.27     698.00
108.37     703.00
108.47     689.00
108.57     648.00
108.67     694.00
108.77     689.00
108.87     664.00
108.97     661.00
109.07     704.47
109.17     676.00
109.27     729.00
109.37     658.23
109.47     658.00
109.57     635.30
109.67     643.00
109.77     679.00
109.87     596.22
109.97     591.00
110.07     589.00
110.17     618.00
110.27     619.00
110.37     556.00
110.47     620.00
110.57     592.00
110.67     562.00
110.77     528.00
110.87     578.86
110.97     552.07
111.07     495.00
111.17     575.00
111.27     512.00
111.37     530.37
111.47     561.00
111.57     565.12
111.67     518.26
111.77     522.00
111.87     534.11
111.97     516.00
112.07     568.98
112.17     534.31
112.27     575.49
112.37     553.00
112.47     576.00
112.57     555.00
112.67     566.10
112.77     627.23
112.87     621.99
112.97     539.00
113.07     597.00
113.17     606.85
113.27     594.00
113.37     609.00
113.47     599.00
113.57     648.68
113.67     677.00
113.77     649.00
113.87     697.07
113.97     759.00
114.07     723.00
114.17     844.88
114.27     878.24
114.37     863.00
114.47     988.31
114.57    1047.00
114.67    1188.50
114.77    1321.89
114.87    1416.00
114.97    1598.06
115.07    1840.00
115.17    1990.00
115.27    2144.75
115.37    2536.00
115.47    2770.00
115.57    3002.46
115.67    3485.09
115.77    3661.25
115.87    4042.31
115.97    4461.00
116.07    4775.13
116.17    5212.00
116.27    5468.00
116.37    5990.00
116.47    6181.00
116.57    6526.00
116.67    6630.00
116.77    6692.00
116.87    6752.57
116.97    6980.53
117.07    6687.26
117.17    6598.00
117.27    6567.10
117.37    6152.00
117.47    5918.05
117.57    5423.00
117.67    5176.28
117.77    4763.00
117.87    4541.00
117.97    4108.00
118.07    3848.00
118.17    3488.00
118.27    3169.33
118.37    2788.00
118.47    2388.88
118.57    2249.00
118.67    1962.33
118.77    1735.00
118.87    1589.00
118.97    1454.00
119.07    1294.00
119.17    1155.00
119.27    1123.00
119.37    1013.62
119.47     886.37
119.57     869.47
119.67     824.00
119.77     754.00
119.87     759.00
119.97     676.00
120.07     713.78
120.17     646.00
120.27     658.00
120.37     616.00
120.47     654.07
120.57     631.00
120.67     575.00
120.77     607.35
120.87     565.00
120.97     565.00
121.07     572.00
121.17     563.00
121.27     601.31
121.37     619.58
121.47     542.00
121.57     536.23
121.67     593.00
121.77     568.00
121.87     548.85
121.97     561.10
122.07     635.00
122.17     578.00
122.27     616.00
122.37     598.90
122.47     655.00
122.57     589.00
122.67     642.00
122.77     595.19
122.87     639.00
122.97     667.00
123.07     622.35
123.17     602.00
123.27     636.30
123.37     657.00
123.47     664.00
123.57     657.00
123.67     607.00
123.77     627.00
123.87     650.93
123.97     664.00
124.07     625.46
124.17     632.00
124.27     600.00
124.37     603.00
124.47     580.38
124.57     577.00
124.67     602.88
124.77     561.00
124.87     595.00
124.97     536.49
