  9.97     585.13
 10.07     587.00
 10.17     601.00
 10.27     545.75
 10.37     616.00
 10.47     559.00
 10.57     589.00
 10.67     631.00
 10.77     564.38
 10.87     572.00
 10.97     575.92
 11.07     562.86
 11.17     520.60
 11.27     536.00
 11.37     578.00
 11.47     573.00
 11.57     540.93
 11.67     622.00
 11.77     609.84
 11.87     617.47
 11.97     641.00
 12.07     683.12
 12.17     704.00
 12.27     660.00
 12.37     700.30
 12.47     636.15
 12.57     613.00
 12.67     569.12
 12.77     567.00
 12.87     595.00
 12.97     559.00
 13.07     538.00
 13.17     564.00
 13.27     554.00
 13.37     522.58
 13.47     506.00
 13.57     548.28
 13.67     582.00
 13.77     610.08
 13.87     575.16
 13.97     530.00
 14.07     551.00
 14.17     610.99
 14.27     584.00
 14.37     562.00
 14.47     544.00
 14.57     561.00
 14.67     540.00
 14.77     591.00
 14.87     587.75
 14.97     559.00
 15.07     538.00
 15.17     553.00
 15.27     549.09
 15.37     542.00
 15.47     536.00
 15.57     572.00
 15.67     568.17
 15.77     539.00
 15.87     532.00
 15.97     581.33
 16.07     526.00
 16.17     598.00
 16.27     535.37
 16.37     534.00
 16.47     581.00
 16.57     597.00
 16.67     583.00
 16.77     542.73
 16.87     595.30
 16.97     565.00
 17.07     520.57
 17.17     577.00
 17.27     549.00
 17.37     556.00
 17.47     528.00
 17.57     514.00
 17.67     551.00
 17.77     566.00
 17.87     544.32
 17.97     596.03
 18.07     580.00
 18.17     522.25
 18.27     607.00
 18.37     543.74
 18.47     504.00
 18.57     565.89
 18.67     593.00
 18.77     608.35
 18.87     569.00
 18.97     578.00
 19.07     564.25
 19.17     577.57
 19.27     574.00
 19.37     596.95
 19.47     610.00
 19.57     574.00
 19.67     576.00
 19.77     535.02
 19.87     555.00
 19.97     565.00
 20.07     575.00
 20.17     558.00
 20.27     544.00
 20.37     562.00
 20.47     522.00
 20.57     562.00
 20.67     528.00
 20.77     551.00
 20.87     563.00
 20.97     553.19
 21.07     566.00
 21.17     552.29
 21.27     552.95
 21.37     550.36
 21.47     562.00
 21.57     570.00
 21.67     593.61
 21.77     550.00
 21.87     577.63
 21.97     565.00
 22.07     536.00
 22.17     548.48
 22.27     544.00
 22.37     524.00
 22.47     526.00
 22.57     518.00
 22.67     563.71
 22.77     591.59
 22.87     554.00
 22.97     596.86
 23.07     566.68
 23.17     590.96
 23.27     598.67
 23.37     586.00
 23.47     528.69
 23.57     557.00
 23.67     577.55
 23.77     523.70
 23.87     559.08
 23.97     555.00
 24.07     553.00
 24.17     553.00
 24.27     560.00
 24.37     598.00
 24.47     535.00
 24.57     603.00
 24.67     616.00
 24.77     645.00
 24.87     629.00
 24.97     620.00
 25.07     592.59
 25.17     560.00
 25.27     559.61
 25.37     553.00
 25.47     511.00
 25.57     591.00
 25.67     566.31
 25.77     572.41
 25.87     499.11
 25.97     591.00
 26.07     525.11
 26.17     546.57
 26.27     514.00
 26.37     546.00
 26.47     556.57
 26.57     502.72
 26.67     558.00
 26.77     538.00
 26.87     554.00
 26.97     483.00
 27.07     552.00
 27.17     513.39
 27.27     553.66
 27.37     564.00
 27.47     534.00
 27.57     525.00
 27.67     565.00
 27.77     540.91
 27.87     629.91
 27.97     633.46
 28.07     819.33
 28.17     898.00
 28.27     959.00
 28.37     919.75
 28.47     755.33
 28.57     707.00
 28.67     701.00
 28.77     731.00
 28.87     814.08
 28.97     814.00
 29.07     788.00
 29.17     713.00
 29.27     656.00
 29.37     583.32
 29.47     630.00
 29.57     621.00
 29.67     603.99
 29.77     619.00
 29.87     547.78
 29.97     553.39
 30.07     531.00
 30.17     571.00
 30.27     562.00
 30.37     546.98
 30.47     621.00
 30.57     562.00
 30.67     588.71
 30.77     597.00
 30.87     624.00
 30.97     567.00
 31.07     612.02
 31.17     566.00
 31.27     538.16
 31.37     570.00
 31.47     514.19
 31.57     579.00
 31.67     553.00
 31.77     554.00
 31.87     548.00
 31.97     515.79
 32.07     550.71
 32.17     535.00
 32.27     539.00
 32.37     561.00
 32.47     537.00
 32.57     507.83
 32.67     544.00
 32.77     531.70
 32.87     576.00
 32.97     546.00
 33.07     542.15
 33.17     521.00
 33.27     539.00
 33.37     578.00
 33.47     583.00
 33.57     583.00
 33.67     638.00
 33.77     719.00
 33.87     874.44
 33.97    1046.00
 34.07    1089.00
 34.17    1079.44
 34.27     886.01
 34.37     718.84
 34.47     692.00
 34.57     561.00
 34.67     576.00
 34.77     581.00
 34.87     504.00
 34.97     537.26
 35.07     525.00
 35.17     534.06
 35.27     491.00
 35.37     577.00
 35.47     555.35
 35.57     510.46
 35.67     523.97
 35.77     503.00
 35.87     510.34
 35.97     527.00
 36.07     473.91
 36.17     516.00
 36.27     525.00
 36.37     534.45
 36.47     516.60
 36.57     501.00
 36.67     536.86
 36.77     488.00
 36.87     516.00
 36.97     504.00
 37.07     518.87
 37.17     485.01
 37.27     554.00
 37.37     487.00
 37.47     546.00
 37.57     526.00
 37.67     519.62
 37.77     518.00
 37.87     539.00
 37.97     517.72
 38.07     511.00
 38.17     538.00
 38.27     502.00
 38.37     521.07
 38.47     477.00
 38.57     527.26
 38.67     523.00
 38.77     532.00
 38.87     530.37
 38.97     497.00
 39.07     493.00
 39.17     493.00
 39.27     476.00
 39.37     504.04
 39.47     457.00
 39.57     491.00
 39.67     532.00
 39.77     493.16
 39.87     550.90
 39.97     509.08
 40.07     531.00
 40.17     534.49
 40.27     519.45
 40.37     474.00
 40.47     545.85
 40.57     536.00
 40.67     504.00
 40.77     521.00
 40.87     492.00
 40.97     480.24
 41.07     514.44
 41.17     483.00
 41.27     493.00
 41.37     496.49
 41.47     532.76
 41.57     493.00
 41.67     479.65
 41.77     486.84
 41.87     550.94
 41.97     493.00
 42.07     462.00
 42.17     510.00
 42.27     530.00
 42.37     527.50
 42.47     532.00
 42.57     589.03
 42.67     664.46
 42.77     558.00
 42.87     559.00
 42.97     589.00
 43.07     511.00
 43.17     559.00
 43.27     483.05
 43.37     477.28
 43.47     486.00
 43.57     515.00
 43.67     481.15
 43.77     481.00
 43.87     489.85
 43.97     543.48
 44.07     544.16
 44.17     471.87
 44.27     493.00
 44.37     493.00
 44.47     520.00
 44.57     456.00
 44.67     535.49
 44.77     474.00
 44.87     520.00
 44.97     462.75
 45.07     517.00
 45.17     504.87
 45.27     557.00
 45.37     510.00
 45.47     538.14
 45.57     499.00
 45.67     511.88
 45.77     486.26
 45.87     503.00
 45.97     442.00
 46.07     550.90
 46.17     482.96
 46.27     517.00
 46.37     500.00
 46.47     486.59
 46.57     508.00
 46.67     544.80
 46.77     522.00
 46.87     539.00
 46.97     545.00
 47.07     525.00
 47.17     527.00
 47.27     528.59
 47.37     508.00
 47.47     510.00
 47.57     502.00
 47.67     566.00
 47.77     525.00
 47.87     571.98
 47.97     584.87
 48.07     553.00
 48.17     586.00
 48.27     524.00
 48.37     480.00
 48.47     505.45
 48.57     519.00
 48.67     511.24
 48.77     519.00
 48.87     554.00
 48.97     518.00
 49.07     589.18
 49.17     542.78
 49.27     620.00
 49.37     692.00
 49.47     746.99
 49.57     791.00
 49.67     904.00
 49.77    1132.40
 49.87    1512.00
 49.97    1836.00
 50.07    2287.00
 50.17    2439.54
 50.27    2492.22
 50.37    2259.70
 50.47    1919.00
 50.57    1491.00
 50.67    1028.00
 50.77     930.22
 50.87     759.27
 50.97     633.72
 51.07     685.00
 51.17     619.00
 51.27     587.00
 51.37     628.00
 51.47     565.00
 51.57     567.00
 51.67     567.06
 51.77     561.00
 51.87     535.00
 51.97     559.00
 52.07     523.00
 52.17     578.00
 52.27     529.00
 52.37     524.18
 52.47     553.49
 52.57     538.49
 52.67     579.00
 52.77     601.86
 52.87     661.78
 52.97     727.85
 53.07     734.64
 53.17     916.00
 53.27    1043.00
 53.37    1095.00
 53.47    1189.00
 53.57    1153.00
 53.67    1099.04
 53.77     997.00
 53.87     957.00
 53.97     724.00
 54.07     683.51
 54.17     626.00
 54.27     576.00
 54.37     535.00
 54.47     569.45
 54.57     615.00
 54.67     584.00
 54.77     530.00
 54.87     573.00
 54.97     493.05
 55.07     536.08
 55.17     545.86
 55.27     590.04
 55.37     585.02
 55.47     519.00
 55.57     599.00
 55.67     512.00
 55.77     604.00
 55.87     604.00
 55.97     669.97
 56.07     678.00
 56.17     717.71
 56.27     877.00
 56.37    1088.00
 56.47    1530.47
 56.57    1805.00
 56.67    2199.00
 56.77    2641.90
 56.87    2656.95
 56.97    2699.00
 57.07    2408.00
 57.17    2108.00
 57.27    1702.00
 57.37    1343.37
 57.47     995.61
 57.57     889.00
 57.67     773.38
 57.77     738.10
 57.87     685.00
 57.97     701.44
 58.07     686.10
 58.17     691.00
 58.27     792.21
 58.37     807.00
 58.47     965.00
 58.57    1076.00
 58.67    1302.00
 58.77    1403.00
 58.87    1435.00
 58.97    1567.00
 59.07    1581.85
 59.17    1490.77
 59.27    1474.63
 59.37    1466.00
 59.47    1230.62
 59.57    1189.84
 59.67    1185.00
 59.77    1112.00
 59.87    1178.00
 59.97    1337.00
 60.07    1488.00
 60.17    1593.00
 60.27    1561.18
 60.37    1539.00
 60.47    1405.00
 60.57    1296.00
 60.67    1101.26
 60.77     917.33
 60.87     803.00
 60.97     660.00
 61.07     715.00
 61.17     680.00
 61.27     622.00
 61.37     639.00
 61.47     728.76
 61.57     718.00
 61.67     817.00
 61.77     949.00
 61.87    1104.00
 61.97    1238.98
 62.07    1346.00
 62.17    1433.00
 62.27    1498.62
 62.37    1341.52
 62.47    1179.00
 62.57    1085.00
 62.67     905.00
 62.77     791.67
 62.87     742.51
 62.97     582.00
 63.07     614.00
 63.17     640.00
 63.27     596.91
 63.37     580.07
 63.47     581.00
 63.57     572.00
 63.67     565.13
 63.77     602.00
 63.87     602.84
 63.97     660.17
 64.07     651.15
 64.17     713.96
 64.27     857.00
 64.37     927.00
 64.47    1024.20
 64.57    1052.00
 64.67    1079.68
 64.77     979.00
 64.87     956.00
 64.97     940.00
 65.07     883.00
 65.17     774.00
 65.27     727.00
 65.37     720.00
 65.47     626.02
 65.57     609.00
 65.67     645.19
 65.77     564.00
 65.87     599.00
 65.97     559.00
 66.07     532.81
 66.17     556.00
 66.27     595.99
 66.37     587.82
 66.47     576.38
 66.57     564.64
 66.67     512.00
 66.77     598.02
 66.87     632.93
 66.97     614.00
 67.07     607.00
 67.17     700.00
 67.27     733.00
 67.37     814.00
 67.47    1064.00
 67.57    1214.36
 67.67    1532.00
 67.77    1788.16
 67.87    2043.20
 67.97    2323.00
 68.07    2422.47
 68.17    2346.18
 68.27    2290.00
 68.37    2042.94
 68.47    1893.00
 68.57    1502.23
 68.67    1216.00
 68.77    1087.00
 68.87     889.00
 68.97     720.00
 69.07     651.00
 69.17     643.00
 69.27     620.81
 69.37     617.00
 69.47     585.00
 69.57     595.00
 69.67     568.00
 69.77     589.52
 69.87     573.00
 69.97     591.00
 70.07     564.00
 70.17     571.77
 70.27     546.25
 70.37     540.28
 70.47     581.32
 70.57     541.16
 70.67     556.00
 70.77     578.16
 70.87     616.94
 70.97     630.63
 71.07     669.78
 71.17     756.41
 71.27     818.69
 71.37     912.00
 71.47    1110.78
 71.57    1303.65
 71.67    1420.02
 71.77    1623.00
 71.87    1887.00
 71.97    1961.70
 72.07    1943.00
 72.17    1933.00
 72.27    1782.00
 72.37    1756.00
 72.47    1484.00
 72.57    1401.00
 72.67    1266.00
 72.77    1010.00
 72.87     957.00
 72.97     878.00
 73.07     803.00
 73.17     759.00
 73.27     642.00
 73.37     626.00
 73.47     643.00
 73.57     626.00
 73.67     607.69
 73.77     561.00
 73.87     640.00
 73.97     619.00
 74.07     605.00
 74.17     573.94
 74.27     605.00
 74.37     622.00
 74.47     577.06
 74.57     663.00
 74.67     590.29
 74.77     569.51
 74.87     624.00
 74.97     568.75
 75.07     607.00
 75.17     545.49
 75.27     540.00
 75.37     583.73
 75.47     550.00
 75.57     544.00
 75.67     533.00
 75.77     602.89
 75.87     618.17
 75.97     606.03
 76.07     616.00
 76.17     597.00
 76.27     705.00
 76.37     666.00
 76.47     691.30
 76.57     705.00
 76.67     665.00
 76.77     676.09
 76.87     660.00
 76.97     632.00
 77.07     645.00
 77.17     607.00
 77.27     600.00
 77.37     575.00
 77.47     506.00
 77.57     541.00
 77.67     529.03
 77.77     517.00
 77.87     539.00
 77.97     492.37
 78.07     489.00
 78.17     519.00
 78.27     488.38
 78.37     481.98
 78.47     497.00
 78.57     512.00
 78.67     549.00
 78.77     531.00
 78.87     554.00
 78.97     499.00
 79.07     498.00
 79.17     552.89
 79.27     536.00
 79.37     560.00
 79.47     544.00
 79.57     534.00
 79.67     491.00
 79.77     487.00
 79.87     560.00
 79.97     550.86
 80.07     551.00
 80.17     547.87
 80.27     538.00
 80.37     601.78
 80.47     578.00
 80.57     588.00
 80.67     631.00
 80.77     660.00
 80.87     686.00
 80.97     690.00
 81.07     740.00
 81.17     744.00
 81.27     723.00
 81.37     728.00
 81.47     745.17
 81.57     727.66
 81.67     784.00
 81.77     717.00
 81.87     672.87
 81.97     683.00
 82.07     681.88
 82.17     674.00
 82.27     649.00
 82.37     629.00
 82.47     563.00
 82.57     544.58
 82.67     595.77
 82.77     535.53
 82.87     544.02
 82.97     558.00
 83.07     569.00
 83.17     509.52
 83.27     578.00
 83.37     576.62
 83.47     544.00
 83.57     561.18
 83.67     615.00
 83.77     530.00
 83.87     565.00
 83.97     529.91
 84.07     561.14
 84.17     580.00
 84.27     526.00
 84.37     536.00
 84.47     547.00
 84.57     515.00
 84.67     528.77
 84.77     509.00
 84.87     553.91
 84.97     505.00
 85.07     579.43
 85.17     567.00
 85.27     513.00
 85.37     505.00
 85.47     536.06
 85.57     555.00
 85.67     540.46
 85.77     501.22
 85.87     525.00
 85.97     534.00
 86.07     583.00
 86.17     533.00
 86.27     571.00
 86.37     553.78
 86.47     546.00
 86.57     527.40
 86.67     560.00
 86.77     580.36
 86.87     599.19
 86.97     570.57
 87.07     599.00
 87.17     568.01
 87.27     671.00
 87.37     620.00
 87.47     631.00
 87.57     681.00
 87.67     654.00
 87.77     614.84
 87.87     614.00
 87.97     551.52
 88.07     587.00
 88.17     534.60
 88.27     628.00
 88.37     589.68
 88.47     565.00
 88.57     556.24
 88.67     586.00
 88.77     570.00
 88.87     572.00
 88.97     591.84
 89.07     625.00
 89.17     620.00
 89.27     569.77
 89.37     560.00
 89.47     653.00
 89.57     578.00
 89.67     596.85
 89.77     561.00
 89.87     606.08
 89.97     529.26
 90.07     529.49
 90.17     574.00
 90.27     546.00
 90.37     533.14
 90.47     577.44
 90.57     538.91
 90.67     500.00
 90.77     502.43
 90.87     548.00
 90.97     550.81
 91.07     521.00
 91.17     531.24
 91.27     555.00
 91.37     501.00
 91.47     548.45
 91.57     503.02
 91.67     513.00
 91.77     570.00
 91.87     501.00
 91.97     602.63
 92.07     546.00
 92.17     544.00
 92.27     636.00
 92.37     645.00
 92.47     597.00
 92.57     613.27
 92.67     635.81
 92.77     705.73
 92.87     785.00
 92.97     739.64
 93.07     756.99
 93.17     711.50
 93.27     810.00
 93.37     829.00
 93.47     789.00
 93.57     874.00
 93.67     831.00
 93.77     888.00
 93.87     854.00
 93.97     861.00
 94.07     790.10
 94.17     835.70
 94.27     870.00
 94.37     857.57
 94.47     918.11
 94.57     927.00
 94.67     960.00
 94.77     901.00
 94.87     931.00
 94.97     940.00
 95.07     912.84
 95.17     823.00
 95.27     845.41
 95.37     810.89
 95.47     770.00
 95.57     747.00
 95.67     749.00
 95.77     712.00
 95.87     659.55
 95.97     715.00
 96.07     705.00
 96.17     729.51
 96.27     760.61
 96.37     759.21
 96.47     800.00
 96.57     890.86
 96.67     909.00
 96.77    1028.00
 96.87    1000.79
 96.97    1199.23
 97.07    1252.87
 97.17    1245.00
 97.27    1412.16
 97.37    1426.48
 97.47    1405.00
 97.57    1422.64
 97.67    1482.10
 97.77    1340.71
 97.87    1317.00
 97.97    1268.83
 98.07    1160.00
 98.17    1140.00
 98.27    1151.00
 98.37     964.14
 98.47     922.00
 98.57     955.22
 98.67     853.00
 98.77     812.14
 98.87     805.56
 98.97     797.25
 99.07     783.00
 99.17     821.00
 99.27     859.60
 99.37     922.38
 99.47    1022.00
 99.57    1080.00
 99.67    1133.00
 99.77    1300.00
 99.87    1393.00
 99.97    1573.83
100.07    1694.00
100.17    1710.00
100.27    1851.00
100.37    1966.19
100.47    2021.00
100.57    2102.00
100.67    2170.00
100.77    2136.00
100.87    2104.00
100.97    2029.00
101.07    1956.00
101.17    1909.00
101.27    1848.62
101.37    1751.00
101.47    1558.00
101.57    1521.00
101.67    1439.00
101.77    1346.00
101.87    1332.98
101.97    1284.00
102.07    1215.00
102.17    1126.84
102.27    1093.00
102.37    1129.00
102.47    1101.00
102.57    1120.00
102.67    1022.00
102.77    1054.35
102.87     966.00
102.97     931.00
103.07     911.94
103.17     824.59
103.27     880.00
103.37     803.00
103.47     788.00
103.57     753.00
103.67     652.00
103.77     692.00
103.87     682.00
103.97     618.00
104.07     571.10
104.17     541.96
104.27     619.00
104.37     593.00
104.47     509.00
104.57     552.00
104.67     563.00
104.77     580.00
104.87     606.00
104.97     561.23
105.07     530.00
105.17     511.95
105.27     542.95
105.37     492.99
105.47     505.00
105.57     554.95
105.67     564.70
105.77     513.93
105.87     592.95
105.97     533.62
106.07     536.00
106.17     555.81
106.27     549.00
106.37     602.00
106.47     557.00
106.57     608.00
106.67     610.40
106.77     608.80
106.87     617.00
106.97     659.00
107.07     639.00
107.17     661.00
107.27     673.21
107.37     725.98
107.47     676.00
107.57     618.00
107.67     746.49
107.77     664.79
107.87     667.30
107.97     714.66
108.07     708.00
108.17     710.59
108.27     653.26
108.37     677.00
108.47     612.00
108.57     741.68
108.67     681.00
108.77     716.11
108.87     738.64
108.97     659.07
109.07     687.00
109.17     651.00
109.27     683.00
109.37     573.00
109.47     590.00
109.57     595.00
109.67     632.00
109.77     603.00
109.87     563.90
109.97     599.00
110.07     579.00
110.17     613.00
110.27     581.00
110.37     592.00
110.47     561.00
110.57     494.13
110.67     517.00
110.77     527.00
110.87     511.00
110.97     584.00
111.07     526.22
111.17     543.00
111.27     563.00
111.37     512.81
111.47     561.43
111.57     497.14
111.67     562.00
111.77     566.00
111.87     523.00
111.97     537.68
112.07     550.00
112.17     576.00
112.27     540.00
112.37     594.00
112.47     571.00
112.57     521.00
112.67     633.00
112.77     588.00
112.87     630.00
112.97     618.63
113.07     673.00
113.17     700.18
113.27     710.68
113.37     724.00
113.47     758.00
113.57     799.43
113.67     885.00
113.77     853.42
113.87     942.54
113.97    1003.00
114.07    1084.00
114.17    1035.43
114.27    1155.00
114.37    1231.00
114.47    1383.62
114.57    1512.00
114.67    1612.00
114.77    1796.00
114.87    1849.44
114.97    2070.28
115.07    2365.00
115.17    2552.00
115.27    2911.73
115.37    3149.82
115.47    3360.00
115.57    3821.00
115.67    4079.22
115.77    4518.00
115.87    4856.00
115.97    5144.00
116.07    5593.00
116.17    5939.00
116.27    6398.53
116.37    6586.00
116.47    6798.37
116.57    6898.98
116.67    7030.64
116.77    6917.84
116.87    6859.00
116.97    6676.00
117.07    6487.49
117.17    6010.00
117.27    5775.00
117.37    5173.00
117.47    5082.23
117.57    4524.00
117.67    4347.00
117.77    3967.00
117.87    3737.00
117.97    3314.00
118.07    2947.00
118.17    2489.95
118.27    2231.00
118.37    1983.00
118.47    1730.00
118.57    1559.00
118.67    1357.00
118.77    1273.54
118.87    1170.51
118.97    1065.00
119.07     912.00
119.17     900.68
119.27     772.32
119.37     789.14
119.47     775.00
119.57     662.00
119.67     649.00
119.77     662.00
119.87     578.00
119.97     576.98
120.07     597.00
120.17     557.30
120.27     556.00
120.37     634.30
120.47     600.00
120.57     590.00
120.67     591.00
120.77     582.00
120.87     539.00
120.97     538.00
121.07     536.86
121.17     599.06
121.27     576.85
121.37     610.09
121.47     577.00
121.57     540.00
121.67     559.00
121.77     620.00
121.87     590.00
121.97     621.00
122.07     571.09
122.17     679.00
122.27     610.00
122.37     693.00
122.47     582.77
122.57     591.14
122.67     657.00
122.77     610.00
122.87     655.00
122.97     594.06
123.07     652.00
123.17     675.78
123.27     666.00
123.37     657.00
123.47     654.00
123.57     623.00
123.67     601.00
123.77     630.00
123.87     617.00
123.97     626.00
124.07     613.22
124.17     608.37
124.27     616.00
124.37     616.00
124.47     576.48
124.57     519.00
124.67     627.00
124.77     565.99
124.87     586.00
124.97     602.00
