  9.97     607.00
 10.07     583.97
 10.17     584.00
 10.27     610.00
 10.37     599.70
 10.47     534.44
 10.57     603.95
 10.67     590.47
 10.77     529.82
 10.87     570.00
 10.97     624.00
 11.07     604.06
 11.17     599.00
 11.27     570.34
 11.37     609.00
 11.47     575.29
 11.57     580.27
 11.67     605.59
 11.77     614.40
 11.87     632.00
 11.97     662.00
 12.07     690.00
 12.17     720.00
 12.27     673.00
 12.37     654.71
 12.47     632.00
 12.57     647.51
 12.67     619.00
 12.77     573.00
 12.87     579.61
 12.97     583.00
 13.07     575.00
 13.17     537.00
 13.27     555.92
 13.37     587.73
 13.47     555.00
 13.57     602.71
 13.67     582.53
 13.77     527.91
 13.87     589.00
 13.97     583.22
 14.07     544.42
 14.17     588.00
 14.27     560.00
 14.37     606.00
 14.47     576.00
 14.57     539.00
 14.67     557.00
 14.77     581.00
 14.87     522.16
 14.97     535.54
 15.07     548.03
 15.17     546.65
 15.27     544.00
 15.37     580.67
 15.47     598.00
 15.57     616.00
 15.67     551.00
 15.77     579.61
 15.87     543.09
 15.97     562.00
 16.07     569.00
 16.17     577.00
 16.27     562.00
 16.37     511.00
 16.47     574.64
 16.57     550.00
 16.67     587.00
 16.77     557.14
 16.87     555.00
 16.97     526.00
 17.07     565.00
 17.17     517.00
 17.27     546.00
 17.37     596.00
 17.47     520.80
 17.57     590.00
 17.67     526.00
 17.77     603.00
 17.87     531.63
 17.97     559.00
 18.07     555.00
 18.17     541.00
 18.27     600.00
 18.37     537.33
 18.47     589.00
 18.57     503.00
 18.67     593.00
 18.77     575.00
 18.87     556.00
 18.97     512.93
 19.07     579.00
 19.17     552.00
 19.27     542.00
 19.37     513.38
 19.47     534.75
 19.57     567.00
 19.67     538.79
 19.77     580.00
 19.87     580.00
 19.97     551.00
 20.07     590.60
 20.17     558.00
 20.27     573.27
 20.37     587.20
 20.47     541.83
 20.57     584.00
 20.67     589.24
 20.77     548.00
 20.87     526.00
 20.97     555.00
 21.07     552.43
 21.17     560.00
 21.27     568.00
 21.37     574.92
 21.47     557.00
 21.57     568.00
 21.67     520.84
 21.77     585.00
 21.87     563.00
 21.97     545.00
 22.07     550.65
 22.17     538.00
 22.27     592.85
 22.37     531.07
 22.47     550.00
 22.57     526.00
 22.67     544.65
 22.77     590.00
 22.87     544.00
 22.97     531.41
 23.07     503.38
 23.17     592.38
 23.27     537.00
 23.37     567.00
 23.47     541.00
 23.57     558.00
 23.67     523.26
 23.77     542.00
 23.87     547.00
 23.97     554.00
 24.07     594.96
 24.17     549.00
 24.27     598.55
 24.37     552.64
 24.47     537.78
 24.57     652.00
 24.67     646.00
 24.77     579.00
 24.87     635.00
 24.97     571.00
 25.07     643.00
 25.17     578.00
 25.27     604.00
 25.37     529.34
 25.47     560.14
 25.57     529.00
 25.67     530.64
 25.77     530.00
 25.87     505.00
 25.97     559.50
 26.07     560.90
 26.17     551.00
 26.27     520.00
 26.37     568.00
 26.47     511.64
 26.57     524.11
 26.67     545.00
 26.77     546.00
 26.87     497.55
 26.97     549.00
 27.07     517.42
 27.17     508.00
 27.27     592.00
 27.37     553.00
 27.47     557.00
 27.57     554.15
 27.67     598.00
 27.77     536.16
 27.87     612.03
 27.97     670.00
 28.07     753.00
 28.17     864.62
 28.27     949.00
 28.37     952.00
 28.47     799.00
 28.57     677.00
 28.67     683.00
 28.77     717.00
 28.87     856.37
 28.97     809.00
 29.07     756.45
 29.17     649.00
 29.27     613.00
 29.37     600.00
 29.47     624.00
 29.57     573.00
 29.67     572.57
 29.77     569.00
 29.87     537.00
 29.97     569.25
 30.07     563.00
 30.17     583.00
 30.27     621.00
 30.37     555.71
 30.47     596.00
 30.57     592.00
 30.67     597.00
 30.77     545.00
 30.87     637.00
 30.97     576.00
 31.07     621.00
 31.17     538.29
 31.27     604.00
 31.37     576.00
 31.47     545.28
 31.57     553.60
 31.67     526.00
 31.77     572.93
 31.87     558.00
 31.97     501.94
 32.07     513.77
 32.17     526.63
 32.27     523.00
 32.37     573.00
 32.47     541.00
 32.57     547.00
 32.67     542.04
 32.77     492.21
 32.87     500.02
 32.97     594.00
 33.07     508.69
 33.17     522.00
 33.27     542.22
 33.37     550.00
 33.47     551.00
 33.57     572.00
 33.67     604.22
 33.77     728.00
 33.87     920.94
 33.97     996.00
 34.07    1094.63
 34.17    1028.00
 34.27     887.00
 34.37     751.00
 34.47     653.00
 34.57     579.93
 34.67     577.00
 34.77     521.05
 34.87     519.00
 34.97     550.00
 35.07     528.00
 35.17     490.00
 35.27     515.00
 35.37     543.56
 35.47     521.00
 35.57     542.18
 35.67     551.00
 35.77     516.86
 35.87     580.00
 35.97     550.56
 36.07     524.00
 36.17     520.00
 36.27     486.72
 36.37     473.00
 36.47     474.15
 36.57     530.00
 36.67     460.00
 36.77     515.30
 36.87     500.58
 36.97     550.93
 37.07     541.75
 37.17     518.00
 37.27     533.76
 37.37     488.69
 37.47     479.00
 37.57     536.00
 37.67     492.09
 37.77     513.86
 37.87     543.00
 37.97     553.51
 38.07     526.00
 38.17     498.00
 38.27     514.00
 38.37     449.00
 38.47     488.00
 38.57     533.37
 38.67     484.00
 38.77     506.00
 38.87     516.93
 38.97     504.00
 39.07     524.00
 39.17     500.00
 39.27     500.00
 39.37     547.80
 39.47     511.97
 39.57     532.00
 39.67     488.00
 39.77     473.13
 39.87     536.00
 39.97     479.00
 40.07     536.00
 40.17     523.68
 40.27     473.10
 40.37     528.79
 40.47     547.13
 40.57     487.00
 40.67     515.00
 40.77     546.05
 40.87     516.00
 40.97     528.81
 41.07     480.56
 41.17     462.00
 41.27     480.00
 41.37     482.46
 41.47     476.00
 41.57     492.00
 41.67     453.00
 41.77     533.80
 41.87     457.00
 41.97     527.00
 42.07     519.00
 42.17     529.86
 42.27     566.67
 42.37     559.00
 42.47     543.00
 42.57     604.00
 42.67     634.00
 42.77     631.00
 42.87     622.00
 42.97     615.08
 43.07     532.00
 43.17     522.00
 43.27     518.00
 43.37     518.36
 43.47     476.00
 43.57     492.00
 43.67     505.99
 43.77     549.00
 43.87     477.00
 43.97     514.13
 44.07     507.00
 44.17     511.00
 44.27     530.00
 44.37     480.00
 44.47     502.38
 44.57     524.00
 44.67     516.00
 44.77     525.52
 44.87     492.00
 44.97     531.14
 45.07     511.18
 45.17     500.00
 45.27     494.00
 45.37     488.31
 45.47     507.00
 45.57     466.71
 45.67     494.00
 45.77     548.09
 45.87     538.41
 45.97     478.00
 46.07     463.00
 46.17     485.00
 46.27     514.60
 46.37     509.38
 46.47     541.11
 46.57     505.00
 46.67     532.00
 46.77     505.60
 46.87     545.00
 46.97     509.19
 47.07     489.70
 47.17     530.30
 47.27     545.00
 47.37     541.00
 47.47     536.00
 47.57     559.00
 47.67     562.21
 47.77     617.00
 47.87     619.75
 47.97     601.00
 48.07     607.00
 48.17     600.24
 48.27     541.00
 48.37     545.00
 48.47     536.61
 48.57     557.81
 48.67     508.00
 48.77     578.25
 48.87     545.00
 48.97     553.69
 49.07     529.00
 49.17     554.00
 49.27     570.00
 49.37     601.00
 49.47     676.00
 49.57     719.00
 49.67     883.00
 49.77    1154.95
 49.87    1468.00
 49.97    1899.89
 50.07    2205.00
 50.17    2409.61
 50.27    2501.86
 50.37    2254.00
 50.47    1901.00
 50.57    1410.69
 50.67    1060.60
 50.77     832.98
 50.87     709.00
 50.97     697.00
 51.07     623.79
 51.17     627.00
 51.27     602.00
 51.37     589.88
 51.47     533.00
 51.57     591.00
 51.67     569.00
 51.77     574.25
 51.87     540.23
 51.97     520.99
 52.07     571.00
 52.17     531.00
 52.27     498.66
 52.37     542.00
 52.47     535.89
 52.57     599.00
 52.67     568.42
 52.77     626.00
 52.87     606.55
 52.97     755.53
 53.07     791.78
 53.17     960.56
 53.27    1044.67
 53.37    1102.00
 53.47    1149.00
 53.57    1207.00
 53.67    1068.00
 53.77     977.53
 53.87     862.00
 53.97     735.36
 54.07     709.15
 54.17     605.00
 54.27     604.00
 54.37     571.00
 54.47     552.40
 54.57     597.00
 54.67     552.00
 54.77     567.61
 54.87     539.00
 54.97     629.00
 55.07     540.32
 55.17     588.48
 55.27     582.96
 55.37     568.00
 55.47     585.00
 55.57     579.48
 55.67     532.00
 55.77     593.03
 55.87     579.00
 55.97     651.00
 56.07     690.00
 56.17     774.02
 56.27     849.00
 56.37    1193.58
 56.47    1520.82
 56.57    1815.00
 56.67    2207.00
 56.77    2427.00
 56.87    2552.23
 56.97    2593.18
 57.07    2407.39
 57.17    2024.29
 57.27    1641.68
 57.37    1255.08
 57.47    1041.00
 57.57     865.59
 57.67     760.00
 57.77     743.00
 57.87     689.00
 57.97     673.00
 58.07     726.90
 58.17     708.00
 58.27     790.00
 58.37     834.00
 58.47     967.76
 58.57    1038.00
 58.67    1103.00
 58.77    1217.00
 58.87    1380.59
 58.97    1436.00
 59.07    1408.73
 59.17    1400.37
 59.27    1371.39
 59.37    1348.34
 59.47    1280.00
 59.57    1239.00
 59.67    1140.00
 59.77    1125.29
 59.87    1126.96
 59.97    1343.00
 60.07    1497.00
 60.17    1491.00
 60.27    1580.00
 60.37    1464.00
 60.47    1435.08
 60.57    1280.00
 60.67    1094.00
 60.77     945.00
 60.87     741.00
 60.97     712.00
 61.07     678.00
 61.17     678.00
 61.27     674.00
 61.37     648.00
 61.47     695.00
 61.57     723.00
 61.67     833.00
 61.77     944.00
 61.87    1111.00
 61.97    1303.15
 62.07    1325.00
 62.17    1383.00
 62.27    1334.00
 62.37    1326.00
 62.47    1244.89
 62.57    1021.18
 62.67     951.00
 62.77     740.00
 62.87     714.20
 62.97     658.24
 63.07     608.00
 63.17     568.22
 63.27     603.28
 63.37     583.00
 63.47     615.00
 63.57     585.00
 63.67     565.86
 63.77     618.00
 63.87     608.00
 63.97     671.25
 64.07     699.00
 64.17     804.00
 64.27     810.00
 64.37     922.00
 64.47     955.85
 64.57    1032.00
 64.67     976.86
 64.77    1013.00
 64.87     957.00
 64.97     871.38
 65.07     818.20
 65.17     769.00
 65.27     731.51
 65.37     703.00
 65.47     633.00
 65.57     642.87
 65.67     572.79
 65.77     613.00
 65.87     554.00
 65.97     561.00
 66.07     547.00
 66.17     551.01
 66.27     585.00
 66.37     529.00
 66.47     569.53
 66.57     574.15
 66.67     606.64
 66.77     614.31
 66.87     607.00
 66.97     642.13
 67.07     630.00
 67.17     661.00
 67.27     809.84
 67.37     947.00
 67.47    1092.00
 67.57    1280.00
 67.67    1603.00
 67.77    1812.00
 67.87    2014.83
 67.97    2309.00
 68.07    2514.00
 68.17    2392.00
 68.27    2262.00
 68.37    2035.00
 68.47    1770.00
 68.57    1531.00
 68.67    1323.14
 68.77    1042.00
 68.87     898.92
 68.97     831.90
 69.07     668.61
 69.17     688.55
 69.27     637.00
 69.37     643.00
 69.47     596.00
 69.57     605.73
 69.67     609.00
 69.77     568.32
 69.87     635.00
 69.97     537.35
 70.07     574.00
 70.17     556.00
 70.27     558.00
 70.37     584.22
 70.47     527.00
 70.57     592.47
 70.67     600.00
 70.77     586.00
 70.87     629.28
 70.97     664.00
 71.07     643.00
 71.17     696.73
 71.27     875.11
 71.37     949.00
 71.47    1072.00
 71.57    1223.69
 71.67    1480.00
 71.77    1583.00
 71.87    1847.22
 71.97    1883.30
 72.07    1907.00
 72.17    1818.00
 72.27    1749.00
 72.37    1718.00
 72.47    1471.00
 72.57    1302.00
 72.67    1127.00
 72.77     993.00
 72.87     888.00
 72.97     833.00
 73.07     812.83
 73.17     787.24
 73.27     646.00
 73.37     675.00
 73.47     606.00
 73.57     636.00
 73.67     579.71
 73.77     555.00
 73.87     570.18
 73.97     609.12
 74.07     592.00
 74.17     548.62
 74.27     584.65
 74.37     575.91
 74.47     674.00
 74.57     609.00
 74.67     652.00
 74.77     683.00
 74.87     608.00
 74.97     588.00
 75.07     598.00
 75.17     568.00
 75.27     604.00
 75.37     575.00
 75.47     581.00
 75.57     579.00
 75.67     540.00
 75.77     610.00
 75.87     559.89
 75.97     624.00
 76.07     673.00
 76.17     679.00
 76.27     660.00
 76.37     711.23
 76.47     692.00
 76.57     715.00
 76.67     734.13
 76.77     711.16
 76.87     609.00
 76.97     659.00
 77.07     607.00
 77.17     591.10
 77.27     542.00
 77.37     565.00
 77.47     551.00
 77.57     522.00
 77.67     455.00
 77.77     540.00
 77.87     500.00
 77.97     511.00
 78.07     500.00
 78.17     521.00
 78.27     528.14
 78.37     513.00
 78.47     509.00
 78.57     491.66
 78.67     485.00
 78.77     522.79
 78.87     492.93
 78.97     490.18
 79.07     481.00
 79.17     486.44
 79.27     493.00
 79.37     535.00
 79.47     516.97
 79.57     496.00
 79.67     518.14
 79.77     542.00
 79.87     555.00
 79.97     528.00
 80.07     587.00
 80.17     536.00
 80.27     545.00
 80.37     592.00
 80.47     566.00
 80.57     579.00
 80.67     585.00
 80.77     670.00
 80.87     660.00
 80.97     687.00
 81.07     734.00
 81.17     781.15
 81.27     796.00
 81.37     801.00
 81.47     746.00
 81.57     692.64
 81.67     693.59
 81.77     746.00
 81.87     670.77
 81.97     733.00
 82.07     666.00
 82.17     649.00
 82.27     646.00
 82.37     609.21
 82.47     612.00
 82.57     626.00
 82.67     608.11
 82.77     525.00
 82.87     516.00
 82.97     564.00
 83.07     525.01
 83.17     552.00
 83.27     542.00
 83.37     584.92
 83.47     544.00
 83.57     555.00
 83.67     549.00
 83.77     526.28
 83.87     578.52
 83.97     579.00
 84.07     552.00
 84.17     590.04
 84.27     569.00
 84.37     537.00
 84.47     570.00
 84.57     517.88
 84.67     579.96
 84.77     537.00
 84.87     559.94
 84.97     534.22
 85.07     527.00
 85.17     550.84
 85.27     522.00
 85.37     521.00
 85.47     512.74
 85.57     496.89
 85.67     548.97
 85.77     540.00
 85.87     559.00
 85.97     501.00
 86.07     582.00
 86.17     512.00
 86.27     549.00
 86.37     562.00
 86.47     576.00
 86.57     534.59
 86.67     529.20
 86.77     575.63
 86.87     601.00
 86.97     652.00
 87.07     615.87
 87.17     582.00
 87.27     666.00
 87.37     640.00
 87.47     646.56
 87.57     622.00
 87.67     628.91
 87.77     624.00
 87.87     609.16
 87.97     630.00
 88.07     580.78
 88.17     577.00
 88.27     569.61
 88.37     567.00
 88.47     528.94
 88.57     556.00
 88.67     593.30
 88.77     571.00
 88.87     574.00
 88.97     605.00
 89.07     590.00
 89.17     576.00
 89.27     618.00
 89.37     591.00
 89.47     578.33
 89.57     599.00
 89.67     575.00
 89.77     618.00
 89.87     551.00
 89.97     587.68
 90.07     576.36
 90.17     580.00
 90.27     511.00
 90.37     512.32
 90.47     571.75
 90.57     501.00
 90.67     506.69
 90.77     539.00
 90.87     529.58
 90.97     521.00
 91.07     484.90
 91.17     515.00
 91.27     524.00
 91.37     501.11
 91.47     485.53
 91.57     509.00
 91.67     566.55
 91.77     507.00
 91.87     513.00
 91.97     584.77
 92.07     572.59
 92.17     550.79
 92.27     540.00
 92.37     560.63
 92.47     564.00
 92.57     629.42
 92.67     637.50
 92.77     707.00
 92.87     671.00
 92.97     636.00
 93.07     781.00
 93.17     737.00
 93.27     795.00
 93.37     736.04
 93.47     821.00
 93.57     759.66
 93.67     833.00
 93.77     778.95
 93.87     807.23
 93.97     861.00
 94.07     845.00
 94.17     821.52
 94.27     897.00
 94.37     841.00
 94.47     848.81
 94.57     815.92
 94.67     923.00
 94.77     934.00
 94.87     947.00
 94.97     885.01
 95.07     892.73
 95.17     916.00
 95.27     777.51
 95.37     830.00
 95.47     766.00
 95.57     740.46
 95.67     738.00
 95.77     734.77
 95.87     672.03
 95.97     699.00
 96.07     705.00
 96.17     703.00
 96.27     726.85
 96.37     785.00
 96.47     802.00
 96.57     879.75
 96.67     948.73
 96.77    1041.00
 96.87    1058.08
 96.97    1178.25
 97.07    1168.00
 97.17    1335.72
 97.27    1397.00
 97.37    1348.00
 97.47    1362.00
 97.57    1436.63
 97.67    1362.75
 97.77    1365.00
 97.87    1302.00
 97.97    1260.00
 98.07    1261.59
 98.17    1164.73
 98.27    1083.00
 98.37    1042.45
 98.47     967.20
 98.57     856.15
 98.67     871.00
 98.77     804.00
 98.87     838.90
 98.97     832.00
 99.07     852.00
 99.17     872.00
 99.27     897.00
 99.37     954.00
 99.47    1068.55
 99.57    1105.93
 99.67    1257.80
 99.77    1256.12
 99.87    1504.00
 99.97    1534.14
100.07    1636.74
100.17    1630.00
100.27    1756.91
100.37    1953.00
100.47    2060.00
100.57    1922.26
100.67    2103.85
100.77    2054.00
100.87    2023.00
100.97    1978.00
101.07    1925.00
101.17    1803.00
101.27    1749.00
101.37    1571.00
101.47    1640.00
101.57    1548.21
101.67    1452.66
101.77    1318.00
101.87    1373.57
101.97    1223.00
102.07    1180.00
102.17    1098.00
102.27    1122.87
102.37    1143.00
102.47    1112.98
102.57    1081.34
102.67    1061.00
102.77    1007.00
102.87    1041.50
102.97     927.00
103.07     920.00
103.17     861.36
103.27     820.00
103.37     857.28
103.47     721.02
103.57     730.24
103.67     689.00
103.77     719.41
103.87     684.00
103.97     628.00
104.07     627.62
104.17     602.00
104.27     579.00
104.37     534.00
104.47     602.00
104.57     567.00
104.67     578.00
104.77     490.50
104.87     557.17
104.97     544.00
105.07     547.00
105.17     540.00
105.27     517.13
105.37     520.14
105.47     566.00
105.57     491.23
105.67     567.96
105.77     545.00
105.87     539.00
105.97     573.61
106.07     564.00
106.17     608.00
106.27     596.00
106.37     589.00
106.47     569.00
106.57     571.00
106.67     645.00
106.77     692.00
106.87     660.00
106.97     618.00
107.07     642.00
107.17     674.63
107.27     679.00
107.37     660.30
107.47     716.83
107.57     753.01
107.67     693.00
107.77     687.88
107.87     670.38
107.97     639.00
108.07     660.66
108.17     687.00
108.27     682.00
108.37     715.75
108.47     682.00
108.57     721.59
108.67     690.00
108.77     646.08
108.87     646.29
108.97     661.00
109.07     660.57
109.17     684.00
109.27     692.00
109.37     691.26
109.47     658.00
109.57     624.00
109.67     639.00
109.77     626.00
109.87     590.17
109.97     589.00
110.07     593.00
110.17     630.00
110.27     561.16
110.37     587.00
110.47     569.00
110.57     521.00
110.67     512.31
110.77     509.85
110.87     565.00
110.97     541.00
111.07     548.21
111.17     525.00
111.27     538.00
111.37     543.00
111.47     557.00
111.57     537.00
111.67     514.42
111.77     547.00
111.87     537.00
111.97     584.00
112.07     551.70
112.17     545.00
112.27     536.00
112.37     570.00
112.47     587.33
112.57     602.00
112.67     584.00
112.77     618.00
112.87     661.22
112.97     636.00
113.07     635.00
113.17     728.51
113.27     749.67
113.37     675.57
113.47     727.79
113.57     827.00
113.67     785.00
113.77     868.23
113.87     901.00
113.97     939.68
114.07     909.67
114.17    1006.00
114.27    1042.00
114.37    1226.00
114.47    1262.00
114.57    1461.00
114.67    1558.22
114.77    1625.02
114.87    1923.00
114.97    1946.25
115.07    2194.76
115.17    2464.59
115.27    2868.00
115.37    3163.00
115.47    3500.00
115.57    3735.00
115.67    4259.00
115.77    4499.10
115.87    4922.88
115.97    5247.12
116.07    5627.00
116.17    5951.00
116.27    6392.45
116.37    6584.00
116.47    6784.00
116.57    6744.50
116.67    6892.00
116.77    6899.00
116.87    6800.84
116.97    6439.00
117.07    6347.00
117.17    6100.57
117.27    5759.59
117.37    5213.00
117.47    5111.03
117.57    4579.00
117.67    4245.00
117.77    3875.78
117.87    3620.00
117.97    3203.00
118.07    2855.00
118.17    2554.00
118.27    2297.00
118.37    1938.00
118.47    1755.00
118.57    1628.05
118.67    1424.00
118.77    1272.00
118.87    1142.00
118.97    1046.00
119.07     942.00
119.17     866.00
119.27     827.00
119.37     749.00
119.47     756.00
119.57     693.00
119.67     736.25
119.77     652.12
119.87     601.00
119.97     612.00
120.07     623.32
120.17     582.00
120.27     628.00
120.37     586.00
120.47     565.00
120.57     593.00
120.67     607.00
120.77     590.00
120.87     581.00
120.97     531.07
121.07     551.00
121.17     579.93
121.27     510.00
121.37     566.00
121.47     577.00
121.57     558.00
121.67     625.00
121.77     563.67
121.87     584.00
121.97     602.00
122.07     608.00
122.17     627.01
122.27     626.00
122.37     573.00
122.47     599.00
122.57     654.00
122.67     606.00
122.77     636.00
122.87     628.00
122.97     663.50
123.07     667.00
123.17     627.00
123.27     642.39
123.37     625.00
123.47     667.59
123.57     678.94
123.67     612.00
123.77     620.00
123.87     601.80
123.97     618.00
124.07     640.00
124.17     604.00
124.27     683.00
124.37     558.65
124.47     624.00
124.57     630.63
124.67     591.00
124.77     609.00
124.87     567.00
124.97     604.00
