  9.97     617.00
 10.07     606.37
 10.17     592.00
 10.27     574.00
 10.37     602.00
 10.47     562.79
 10.57     618.00
 10.67     615.00
 10.77     593.00
 10.87     579.00
 10.97     584.82
 11.07     540.00
 11.17     555.77
 11.27     606.00
 11.37     556.40
 11.47     581.00
 11.57     557.18
 11.67     614.00
 11.77     617.00
 11.87     653.00
 11.97     654.00
 12.07     634.00
 12.17     696.00
 12.27     692.54
 12.37     671.00
 12.47     632.91
 12.57     613.98
 12.67     572.19
 12.77     542.00
 12.87     588.00
 12.97     553.38
 13.07     570.35
 13.17     614.07
 13.27     564.00
 13.37     577.00
 13.47     583.00
 13.57     590.67
 13.67     598.86
 13.77     535.16
 13.87     523.00
 13.97     578.15
 14.07     577.53
 14.17     579.29
 14.27     562.00
 14.37     581.89
 14.47     536.00
 14.57     554.00
 14.67     534.01
 14.77     549.00
 14.87     568.00
 14.97     573.00
 15.07     535.71
 15.17     594.00
 15.27     532.15
 15.37     583.00
 15.47     539.00
 15.57     567.64
 15.67     607.80
 15.77     577.00
 15.87     554.00
 15.97     604.48
 16.07     547.00
 16.17     536.32
 16.27     550.00
 16.37     539.00
 16.47     553.60
 16.57     604.31
 16.67     545.57
 16.77     564.00
 16.87     559.00
 16.97     550.00
 17.07     553.00
 17.17     532.00
 17.27     554.70
 17.37     570.00
 17.47     561.03
 17.57     552.00
 17.67     568.00
 17.77     571.12
 17.87     604.29
 17.97     528.00
 18.07     553.00
 18.17     531.00
 18.27     561.00
 18.37     559.00
 18.47     544.18
 18.57     578.26
 18.67     544.00
 18.77     589.11
 18.87     606.70
 18.97     571.00
 19.07     591.00
 19.17     558.18
 19.27     556.00
 19.37     592.63
 19.47     602.50
 19.57     532.00
 19.67     577.77
 19.77     579.22
 19.87     535.37
 19.97     575.00
 20.07     558.27
 20.17     538.95
 20.27     564.00
 20.37     538.00
 20.47     544.00
 20.57     610.00
 20.67     562.02
 20.77     575.00
 20.87     591.00
 20.97     599.58
 21.07     570.00
 21.17     524.00
 21.27     562.00
 21.37     542.35
 21.47     540.75
 21.57     572.00
 21.67     558.00
 21.77     572.74
 21.87     507.98
 21.97     565.00
 22.07     596.06
 22.17     563.11
 22.27     541.34
 22.37     554.00
 22.47     596.00
 22.57     553.58
 22.67     508.56
 22.77     581.00
 22.87     550.00
 22.97     542.00
 23.07     551.49
 23.17     550.00
 23.27     562.87
 23.37     533.00
 23.47     554.00
 23.57     515.00
 23.67     537.00
 23.77     521.00
 23.87     555.00
 23.97     593.00
 24.07     551.00
 24.17     513.21
 24.27     576.00
 24.37     590.00
 24.47     585.00
 24.57     621.21
 24.67     642.00
 24.77     618.00
 24.87     598.25
 24.97     653.86
 25.07     656.00
 25.17     575.00
 25.27     586.00
 25.37     553.00
 25.47     566.00
 25.57     544.00
 25.67     556.31
 25.77     578.00
 25.87     576.25
 25.97     579.38
 26.07     522.00
 26.17     541.00
 26.27     561.00
 26.37     534.54
 26.47     555.00
 26.57     581.35
 26.67     611.00
 26.77     546.36
 26.87     508.00
 26.97     503.80
 27.07     544.91
 27.17     554.92
 27.27     567.38
 27.37     591.00
 27.47     511.30
 27.57     502.00
 27.67     656.00
 27.77     564.00
 27.87     624.00
 27.97     613.77
 28.07     750.00
 28.17     858.65
 28.27     983.00
 28.37     906.14
 28.47     764.37
 28.57     689.00
 28.67     658.76
 28.77     698.05
 28.87     770.13
 28.97     804.32
 29.07     838.67
 29.17     721.00
 29.27     632.00
 29.37     656.00
 29.47     550.22
 29.57     568.46
 29.67     627.00
 29.77     535.65
 29.87     572.00
 29.97     569.00
 30.07     575.00
 30.17     593.00
 30.27     601.00
 30.37     516.00
 30.47     590.00
 30.57     582.00
 30.67     596.56
 30.77     599.00
 30.87     635.00
 30.97     564.24
 31.07     623.05
 31.17     591.00
 31.27     574.00
 31.37     499.99
 31.47     555.70
 31.57     564.00
 31.67     484.42
 31.77     535.75
 31.87     559.00
 31.97     543.00
 32.07     557.50
 32.17     489.01
 32.27     566.91
 32.37     532.26
 32.47     560.64
 32.57     544.40
 32.67     499.58
 32.77     561.79
 32.87     510.00
 32.97     546.00
 33.07     501.00
 33.17     579.00
 33.27     582.48
 33.37     543.64
 33.47     549.20
 33.57     586.00
 33.67     656.00
 33.77     721.00
 33.87     829.00
 33.97     983.52
 34.07    1093.00
 34.17    1022.00
 34.27     937.00
 34.37     703.83
 34.47     633.00
 34.57     611.65
 34.67     579.00
 34.77     559.23
 34.87     520.00
 34.97     525.00
 35.07     501.00
 35.17     519.00
 35.27     521.00
 35.37     514.00
 35.47     542.00
 35.57     509.37
 35.67     498.25
 35.77     528.00
 35.87     520.27
 35.97     533.00
 36.07     536.00
 36.17     528.00
 36.27     503.83
 36.37     503.04
 36.47     502.00
 36.57     534.00
 36.67     517.87
 36.77     505.00
 36.87     515.00
 36.97     536.00
 37.07     477.22
 37.17     501.00
 37.27     503.00
 37.37     528.00
 37.47     510.00
 37.57     498.00
 37.67     513.00
 37.77     503.69
 37.87     479.00
 37.97     508.00
 38.07     526.00
 38.17     479.60
 38.27     488.00
 38.37     492.00
 38.47     470.60
 38.57     514.00
 38.67     512.00
 38.77     512.00
 38.87     538.92
 38.97     501.00
 39.07     502.58
 39.17     513.00
 39.27     528.17
 39.37     535.72
 39.47     466.36
 39.57     519.00
 39.67     522.00
 39.77     464.00
 39.87     528.29
 39.97     476.00
 40.07     538.00
 40.17     539.00
 40.27     514.00
 40.37     484.83
 40.47     536.04
 40.57     443.00
 40.67     483.00
 40.77     524.00
 40.87     516.00
 40.97     499.00
 41.07     470.00
 41.17     541.25
 41.27     527.13
 41.37     511.00
 41.47     483.00
 41.57     535.00
 41.67     523.50
 41.77     535.00
 41.87     527.53
 41.97     486.00
 42.07     481.46
 42.17     486.09
 42.27     513.00
 42.37     548.75
 42.47     602.00
 42.57     642.89
 42.67     549.00
 42.77     579.00
 42.87     610.74
 42.97     536.21
 43.07     541.00
 43.17     563.00
 43.27     474.00
 43.37     491.00
 43.47     492.58
 43.57     486.56
 43.67     545.73
 43.77     530.00
 43.87     509.00
 43.97     532.00
 44.07     511.00
 44.17     558.00
 44.27     479.71
 44.37     484.00
 44.47     515.00
 44.57     491.24
 44.67     483.00
 44.77     510.00
 44.87     507.00
 44.97     486.00
 45.07     519.00
 45.17     488.97
 45.27     486.00
 45.37     502.68
 45.47     516.00
 45.57     526.00
 45.67     481.00
 45.77     518.00
 45.87     469.00
 45.97     480.63
 46.07     476.00
 46.17     521.00
 46.27     536.13
 46.37     509.08
 46.47     527.00
 46.57     511.00
 46.67     518.00
 46.77     471.00
 46.87     513.00
 46.97     531.00
 47.07     527.83
 47.17     488.85
 47.27     524.00
 47.37     524.00
 47.47     510.00
 47.57     589.00
 47.67     586.78
 47.77     585.00
 47.87     621.19
 47.97     576.00
 48.07     608.00
 48.17     558.34
 48.27     544.00
 48.37     532.00
 48.47     506.00
 48.57     481.00
 48.67     516.88
 48.77     568.02
 48.87     558.91
 48.97     599.98
 49.07     534.00
 49.17     628.87
 49.27     600.12
 49.37     676.21
 49.47     698.00
 49.57     752.00
 49.67     909.07
 49.77    1140.00
 49.87    1409.00
 49.97    1737.64
 50.07    2174.00
 50.17    2499.00
 50.27    2355.00
 50.37    2195.00
 50.47    1874.72
 50.57    1420.88
 50.67    1081.00
 50.77     868.49
 50.87     729.00
 50.97     685.00
 51.07     604.00
 51.17     594.17
 51.27     561.00
 51.37     631.00
 51.47     582.00
 51.57     539.88
 51.67     523.48
 51.77     550.00
 51.87     584.00
 51.97     529.92
 52.07     562.00
 52.17     572.00
 52.27     542.00
 52.37     564.00
 52.47     577.36
 52.57     526.61
 52.67     551.00
 52.77     622.60
 52.87     631.00
 52.97     701.00
 53.07     775.00
 53.17     945.19
 53.27    1051.00
 53.37    1137.00
 53.47    1176.00
 53.57    1179.00
 53.67    1067.65
 53.77    1031.92
 53.87     852.53
 53.97     780.00
 54.07     717.00
 54.17     627.44
 54.27     609.00
 54.37     599.00
 54.47     604.00
 54.57     509.42
 54.67     559.00
 54.77     568.45
 54.87     586.51
 54.97     529.36
 55.07     552.00
 55.17     557.79
 55.27     559.00
 55.37     580.58
 55.47     509.53
 55.57     589.00
 55.67     607.37
 55.77     541.77
 55.87     561.65
 55.97     603.71
 56.07     645.00
 56.17     751.00
 56.27     940.64
 56.37    1108.00
 56.47    1485.00
 56.57    1785.00
 56.67    2202.00
 56.77    2588.00
 56.87    2639.00
 56.97    2567.00
 57.07    2308.83
 57.17    2079.00
 57.27    1699.00
 57.37    1285.63
 57.47    1053.56
 57.57     896.00
 57.67     751.01
 57.77     722.28
 57.87     712.53
 57.97     694.00
 58.07     662.00
 58.17     674.34
 58.27     776.00
 58.37     805.98
 58.47     928.00
 58.57    1004.00
 58.67    1263.64
 58.77    1331.00
 58.87    1470.01
 58.97    1542.57
 59.07    1499.00
 59.17    1541.00
 59.27    1398.00
 59.37    1381.00
 59.47    1201.55
 59.57    1132.00
 59.67    1132.00
 59.77    1203.00
 59.87    1160.62
 59.97    1354.00
 60.07    1470.00
 60.17    1434.37
 60.27    1611.00
 60.37    1539.00
 60.47    1443.65
 60.57    1190.00
 60.67    1014.15
 60.77     933.05
 60.87     836.00
 60.97     753.00
 61.07     686.00
 61.17     682.00
 61.27     643.02
 61.37     609.53
 61.47     642.40
 61.57     754.00
 61.67     813.00
 61.77     921.00
 61.87    1115.00
 61.97    1266.00
 62.07    1319.00
 62.17    1332.00
 62.27    1319.00
 62.37    1288.00
 62.47    1171.66
 62.57    1017.00
 62.67     925.00
 62.77     746.00
 62.87     628.00
 62.97     632.00
 63.07     575.02
 63.17     599.52
 63.27     591.00
 63.37     580.59
 63.47     572.00
 63.57     582.00
 63.67     550.94
 63.77     568.00
 63.87     582.00
 63.97     683.63
 64.07     644.13
 64.17     757.00
 64.27     872.00
 64.37     922.00
 64.47    1046.00
 64.57    1038.29
 64.67    1072.00
 64.77    1013.00
 64.87     957.00
 64.97     898.00
 65.07     863.00
 65.17     803.00
 65.27     713.73
 65.37     656.00
 65.47     681.95
 65.57     620.24
 65.67     590.00
 65.77     592.00
 65.87     551.00
 65.97     546.00
 66.07     526.00
 66.17     578.48
 66.27     546.00
 66.37     551.00
 66.47     505.00
 66.57     576.60
 66.67     546.00
 66.77     579.00
 66.87     586.08
 66.97     557.00
 67.07     654.00
 67.17     684.00
 67.27     730.00
 67.37     897.00
 67.47    1096.00
 67.57    1344.69
 67.67    1547.00
 67.77    1904.13
 67.87    2120.00
 67.97    2342.00
 68.07    2465.75
 68.17    2382.00
 68.27    2287.00
 68.37    1986.57
 68.47    1870.00
 68.57    1547.35
 68.67    1246.00
 68.77    1045.63
 68.87     910.00
 68.97     734.00
 69.07     711.91
 69.17     630.00
 69.27     652.30
 69.37     640.00
 69.47     612.00
 69.57     567.00
 69.67     552.20
 69.77     585.84
 69.87     574.00
 69.97     578.00
 70.07     600.70
 70.17     591.00
 70.27     574.00
 70.37     617.00
 70.47     605.00
 70.57     554.00
 70.67     580.58
 70.77     560.82
 70.87     599.00
 70.97     636.00
 71.07     641.00
 71.17     736.00
 71.27     875.73
 71.37    1006.36
 71.47    1092.00
 71.57    1199.00
 71.67    1394.15
 71.77    1671.00
 71.87    1814.97
 71.97    1828.50
 72.07    1989.00
 72.17    1919.00
 72.27    1772.28
 72.37    1656.42
 72.47    1444.00
 72.57    1337.00
 72.67    1163.00
 72.77    1072.00
 72.87     920.00
 72.97     902.59
 73.07     876.52
 73.17     708.00
 73.27     714.00
 73.37     646.00
 73.47     677.42
 73.57     599.00
 73.67     609.00
 73.77     611.00
 73.87     558.50
 73.97     585.22
 74.07     587.59
 74.17     653.00
 74.27     577.00
 74.37     545.79
 74.47     588.34
 74.57     540.03
 74.67     593.00
 74.77     602.09
 74.87     607.00
 74.97     588.00
 75.07     625.00
 75.17     587.00
 75.27     619.00
 75.37     589.00
 75.47     551.00
 75.57     573.91
 75.67     546.72
 75.77     587.00
 75.87     626.00
 75.97     571.00
 76.07     607.00
 76.17     612.00
 76.27     694.00
 76.37     692.00
 76.47     689.68
 76.57     738.00
 76.67     686.00
 76.77     700.42
 76.87     651.00
 76.97     629.00
 77.07     625.00
 77.17     652.64
 77.27     585.00
 77.37     595.62
 77.47     541.00
 77.57     520.00
 77.67     527.00
 77.77     524.00
 77.87     553.52
 77.97     534.00
 78.07     562.56
 78.17     573.63
 78.27     547.00
 78.37     497.00
 78.47     549.00
 78.57     509.00
 78.67     556.41
 78.77     537.00
 78.87     551.00
 78.97     488.00
 79.07     565.00
 79.17     510.00
 79.27     531.54
 79.37     528.00
 79.47     506.98
 79.57     533.43
 79.67     500.66
 79.77     544.00
 79.87     532.00
 79.97     566.00
 80.07     557.00
 80.17     553.21
 80.27     557.00
 80.37     542.00
 80.47     618.39
 80.57     652.71
 80.67     662.00
 80.77     698.45
 80.87     603.00
 80.97     724.00
 81.07     659.00
 81.17     709.00
 81.27     763.24
 81.37     715.36
 81.47     751.00
 81.57     817.00
 81.67     727.00
 81.77     766.44
 81.87     701.16
 81.97     691.55
 82.07     647.00
 82.17     603.05
 82.27     636.00
 82.37     633.26
 82.47     593.00
 82.57     581.00
 82.67     569.00
 82.77     599.31
 82.87     593.00
 82.97     533.86
 83.07     550.78
 83.17     575.10
 83.27     565.00
 83.37     545.50
 83.47     532.00
 83.57     540.84
 83.67     542.00
 83.77     559.64
 83.87     565.72
 83.97     529.00
 84.07     621.00
 84.17     591.49
 84.27     592.00
 84.37     598.37
 84.47     561.00
 84.57     566.27
 84.67     529.00
 84.77     551.00
 84.87     541.00
 84.97     522.40
 85.07     540.32
 85.17     531.00
 85.27     527.00
 85.37     525.59
 85.47     561.52
 85.57     485.24
 85.67     561.00
 85.77     565.00
 85.87     470.00
 85.97     531.88
 86.07     548.00
 86.17     516.00
 86.27     508.00
 86.37     532.00
 86.47     502.79
 86.57     549.00
 86.67     556.00
 86.77     585.00
 86.87     606.87
 86.97     606.00
 87.07     610.00
 87.17     609.00
 87.27     650.00
 87.37     666.00
 87.47     643.00
 87.57     651.00
 87.67     695.00
 87.77     644.59
 87.87     586.75
 87.97     606.00
 88.07     575.00
 88.17     533.90
 88.27     593.00
 88.37     587.00
 88.47     603.00
 88.57     561.27
 88.67     632.00
 88.77     555.00
 88.87     551.28
 88.97     555.00
 89.07     568.77
 89.17     624.00
 89.27     599.00
 89.37     593.00
 89.47     642.69
 89.57     565.00
 89.67     546.04
 89.77     554.39
 89.87     580.00
 89.97     559.00
 90.07     580.00
 90.17     521.00
 90.27     534.00
 90.37     504.00
 90.47     518.00
 90.57     513.00
 90.67     516.00
 90.77     502.98
 90.87     511.00
 90.97     518.00
 91.07     504.00
 91.17     556.00
 91.27     512.00
 91.37     537.93
 91.47     515.94
 91.57     567.55
 91.67     552.97
 91.77     535.00
 91.87     502.70
 91.97     551.00
 92.07     556.00
 92.17     561.05
 92.27     621.65
 92.37     523.00
 92.47     614.00
 92.57     609.00
 92.67     674.82
 92.77     662.81
 92.87     736.47
 92.97     732.28
 93.07     714.00
 93.17     709.00
 93.27     766.00
 93.37     830.00
 93.47     826.00
 93.57     808.85
 93.67     894.00
 93.77     833.00
 93.87     883.00
 93.97     805.90
 94.07     837.00
 94.17     822.83
 94.27     850.00
 94.37     879.00
 94.47     840.00
 94.57     939.00
 94.67     932.00
 94.77     881.00
 94.87     903.82
 94.97     930.00
 95.07     906.00
 95.17     869.00
 95.27     769.00
 95.37     796.00
 95.47     768.00
 95.57     783.00
 95.67     727.77
 95.77     669.32
 95.87     679.00
 95.97     695.14
 96.07     650.96
 96.17     699.00
 96.27     773.00
 96.37     770.00
 96.47     798.00
 96.57     835.64
 96.67     946.12
 96.77    1050.59
 96.87     989.00
 96.97    1120.39
 97.07    1216.90
 97.17    1308.12
 97.27    1288.00
 97.37    1426.00
 97.47    1409.00
 97.57    1441.00
 97.67    1482.42
 97.77    1416.00
 97.87    1341.00
 97.97    1288.00
 98.07    1261.00
 98.17    1162.00
 98.27    1126.84
 98.37    1027.72
 98.47     906.11
 98.57     899.00
 98.67     876.00
 98.77     758.00
 98.87     779.00
 98.97     755.00
 99.07     867.00
 99.17     874.00
 99.27     846.00
 99.37     941.95
 99.47    1008.00
 99.57    1130.00
 99.67    1164.38
 99.77    1324.00
 99.87    1409.00
 99.97    1576.00
100.07    1579.05
100.17    1737.50
100.27    1918.00
100.37    1915.00
100.47    2050.36
100.57    2181.00
100.67    2018.00
100.77    2050.00
100.87    2020.28
100.97    2042.00
101.07    1975.63
101.17    1852.17
101.27    1828.37
101.37    1747.77
101.47    1641.82
101.57    1471.29
101.67    1508.60
101.77    1437.81
101.87    1329.00
101.97    1285.68
102.07    1149.00
102.17    1190.69
102.27    1175.00
102.37    1085.00
102.47    1091.00
102.57    1121.00
102.67    1004.00
102.77    1030.00
102.87     957.00
102.97     939.00
103.07     980.00
103.17     880.88
103.27     855.24
103.37     795.00
103.47     776.00
103.57     725.81
103.67     677.00
103.77     691.00
103.87     609.00
103.97     593.00
104.07     596.90
104.17     584.00
104.27     523.02
104.37     534.33
104.47     575.00
104.57     565.91
104.67     578.53
104.77     555.00
104.87     610.00
104.97     552.79
105.07     540.00
105.17     528.00
105.27     528.00
105.37     553.00
105.47     538.00
105.57     519.00
105.67     569.86
105.77     544.00
105.87     522.00
105.97     598.70
106.07     595.00
106.17     611.87
106.27     610.00
106.37     601.00
106.47     651.46
106.57     635.00
106.67     652.00
106.77     626.00
106.87     679.00
106.97     660.00
107.07     655.00
107.17     676.00
107.27     640.00
107.37     656.00
107.47     661.44
107.57     680.00
107.67     662.43
107.77     682.00
107.87     673.89
107.97     647.62
108.07     679.65
108.17     683.00
108.27     673.67
108.37     676.00
108.47     689.00
108.57     657.00
108.67     727.23
108.77     708.00
108.87     703.00
108.97     700.00
109.07     651.00
109.17     659.00
109.27     636.44
109.37     633.00
109.47     628.00
109.57     642.00
109.67     659.00
109.77     631.47
109.87     598.00
109.97     568.27
110.07     619.00
110.17     599.00
110.27     553.00
110.37     581.00
110.47     563.00
110.57     506.40
110.67     556.00
110.77     548.00
110.87     559.00
110.97     564.68
111.07     532.00
111.17     521.00
111.27     506.04
111.37     532.00
111.47     531.43
111.57     600.00
111.67     550.00
111.77     572.00
111.87     585.98
111.97     577.00
112.07     570.00
112.17     548.00
112.27     538.63
112.37     592.89
112.47     554.00
112.57     606.00
112.67     595.00
112.77     621.00
112.87     633.00
112.97     634.00
113.07     727.13
113.17     714.00
113.27     732.00
113.37     733.99
113.47     817.73
113.57     827.00
113.67     796.82
113.77     880.00
113.87     921.00
113.97     920.00
114.07     986.00
114.17    1015.00
114.27    1124.00
114.37    1266.00
114.47    1299.65
114.57    1437.22
114.67    1616.34
114.77    1749.00
114.87    1873.00
114.97    2185.00
115.07    2401.00
115.17    2562.00
115.27    2825.00
115.37    3235.00
115.47    3456.42
115.57    3738.94
115.67    4166.00
115.77    4467.00
115.87    5022.23
115.97    5179.00
116.07    5616.00
116.17    5964.90
116.27    6383.00
116.37    6649.00
116.47    6868.00
116.57    6926.00
116.67    7021.00
116.77    7102.00
116.87    6777.20
116.97    6489.25
117.07    6392.00
117.17    6031.00
117.27    5507.00
117.37    5540.90
117.47    4912.00
117.57    4648.00
117.67    4234.00
117.77    3962.00
117.87    3639.95
117.97    3333.00
118.07    2999.00
118.17    2499.62
118.27    2260.00
118.37    1942.18
118.47    1766.00
118.57    1571.00
118.67    1399.00
118.77    1348.00
118.87    1131.00
118.97    1074.53
119.07    1027.75
119.17     925.30
119.27     819.30
119.37     867.00
119.47     707.25
119.57     719.00
119.67     687.00
119.77     676.50
119.87     694.82
119.97     625.00
120.07     580.00
120.17     579.00
120.27     581.00
120.37     552.00
120.47     561.74
120.57     567.00
120.67     606.22
120.77     537.00
120.87     568.37
120.97     612.84
121.07     581.00
121.17     632.00
121.27     619.00
121.37     563.00
121.47     624.60
121.57     602.00
121.67     615.00
121.77     607.00
121.87     652.87
121.97     606.16
122.07     657.12
122.17     636.00
122.27     586.00
122.37     636.00
122.47     662.52
122.57     607.00
122.67     672.49
122.77     677.00
122.87     654.00
122.97     656.08
123.07     619.00
123.17     676.03
123.27     674.21
123.37     639.99
123.47     634.00
123.57     658.00
123.67     652.00
123.77     660.14
123.87     600.59
123.97     649.00
124.07     611.49
124.17     614.00
124.27     599.10
124.37     591.00
124.47     601.00
124.57     582.00
124.67     613.00
124.77     625.00
124.87     617.00
124.97     598.45
