  9.97     730.00
 10.07     668.60
 10.17     690.00
 10.27     697.62
 10.37     693.89
 10.47     643.50
 10.57     731.00
 10.67     655.63
 10.77     739.00
 10.87     685.81
 10.97     685.72
 11.07     659.91
 11.17     714.00
 11.27     656.00
 11.37     711.00
 11.47     718.00
 11.57     681.00
 11.67     699.16
 11.77     765.00
 11.87     736.97
 11.97     762.00
 12.07     730.37
 12.17     816.00
 12.27     800.00
 12.37     826.00
 12.47     759.00
 12.57     778.00
 12.67     747.89
 12.77     613.00
 12.87     682.00
 12.97     687.00
 13.07     648.00
 13.17     673.00
 13.27     635.00
 13.37     672.00
 13.47     616.63
 13.57     632.00
 13.67     668.00
 13.77     633.60
 13.87     648.28
 13.97     665.00
 14.07     635.00
 14.17     676.00
 14.27     636.00
 14.37     686.00
 14.47     680.00
 14.57     626.44
 14.67     646.00
 14.77     600.00
 14.87     650.50
 14.97     604.00
 15.07     696.93
 15.17     645.39
 15.27     624.00
 15.37     619.00
 15.47     636.00
 15.57     611.00
 15.67     633.00
 15.77     610.00
 15.87     646.00
 15.97     633.00
 16.07     692.85
 16.17     606.12
 16.27     603.00
 16.37     600.00
 16.47     638.68
 16.57     658.00
 16.67     581.00
 16.77     621.00
 16.87     664.00
 16.97     602.00
 17.07     601.93
 17.17     607.00
 17.27     639.00
 17.37     667.00
 17.47     623.00
 17.57     614.00
 17.67     645.00
 17.77     673.00
 17.87     618.00
 17.97     590.00
 18.07     595.00
 18.17     582.18
 18.27     609.00
 18.37     641.49
 18.47     602.00
 18.57     618.00
 18.67     577.00
 18.77     662.83
 18.87     621.27
 18.97     630.00
 19.07     602.00
 19.17     623.00
 19.27     618.00
 19.37     652.37
 19.47     571.00
 19.57     597.00
 19.67     605.00
 19.77     665.83
 19.87     611.00
 19.97     660.24
 20.07     637.00
 20.17     628.00
 20.27     649.38
 20.37     584.30
 20.47     613.00
 20.57     650.00
 20.67     632.01
 20.77     598.00
 20.87     617.00
 20.97     647.00
 21.07     596.00
 21.17     660.29
 21.27     665.90
 21.37     631.00
 21.47     577.64
 21.57     585.35
 21.67     608.00
 21.77     583.00
 21.87     593.00
 21.97     636.00
 22.07     630.29
 22.17     589.00
 22.27     632.00
 22.37     580.00
 22.47     641.46
 22.57     661.63
 22.67     608.92
 22.77     566.64
 22.87     617.00
 22.97     619.00
 23.07     610.00
 23.17     614.57
 23.27     578.28
 23.37     575.81
 23.47     600.00
 23.57     630.00
 23.67     606.70
 23.77     604.00
 23.87     612.51
 23.97     600.61
 24.07     620.00
 24.17     580.11
 24.27     604.00
 24.37     635.00
 24.47     606.00
 24.57     688.00
 24.67     621.19
 24.77     690.00
 24.87     720.96
 24.97     738.00
 25.07     710.00
 25.17     690.00
 25.27     676.00
 25.37     680.40
 25.47     604.00
 25.57     638.46
 25.67     641.00
 25.77     665.21
 25.87     609.00
 25.97     616.00
 26.07     652.00
 26.17     636.77
 26.27     673.35
 26.37     654.65
 26.47     636.00
 26.57     627.00
 26.67     610.77
 26.77     638.00
 26.87     657.00
 26.97     720.00
 27.07     686.00
 27.17     673.00
 27.27     705.00
 27.37     730.72
 27.47     675.04
 27.57     720.00
 27.67     818.00
 27.77     815.33
 27.87    1016.00
 27.97    1387.67
 28.07    1872.00
 28.17    3034.00
 28.27    4673.27
 28.37    5754.87
 28.47    6307.00
 28.57    5221.67
 28.67    3861.66
 28.77    3004.00
 28.87    2759.00
 28.97    3040.00
 29.07    3603.00
 29.17    3446.65
 29.27    3062.00
 29.37    2254.18
 29.47    1577.00
 29.57    1201.00
 29.67    1016.00
 29.77     798.44
 29.87     818.91
 29.97     718.78
 30.07     686.28
 30.17     734.00
 30.27     663.00
 30.37     699.68
 30.47     679.00
 30.57     619.00
 30.67     703.00
 30.77     705.00
 30.87     692.11
 30.97     739.52
 31.07     719.50
 31.17     772.00
 31.27     735.00
 31.37     724.70
 31.47     668.86
 31.57     600.91
 31.67     579.14
 31.77     694.00
 31.87     646.00
 31.97     625.00
 32.07     609.00
 32.17     576.07
 32.27     657.00
 32.37     675.00
 32.47     625.00
 32.57     609.00
 32.67     563.00
 32.77     629.00
 32.87     624.18
 32.97     604.95
 33.07     642.00
 33.17     649.00
 33.27     597.00
 33.37     636.00
 33.47     601.00
 33.57     626.00
 33.67     685.06
 33.77     661.00
 33.87     744.00
 33.97     802.00
 34.07     938.86
 34.17    1121.00
 34.27    1221.00
 34.37    1168.00
 34.47    1038.73
 34.57     959.00
 34.67     767.00
 34.77     722.53
 34.87     691.75
 34.97     654.00
 35.07     657.00
 35.17     658.00
 35.27     646.00
 35.37     614.00
 35.47     576.00
 35.57     608.91
 35.67     587.02
 35.77     610.00
 35.87     582.00
 35.97     607.00
 36.07     628.97
 36.17     536.00
 36.27     559.00
 36.37     606.00
 36.47     576.92
 36.57     566.27
 36.67     591.00
 36.77     589.00
 36.87     554.74
 36.97     610.33
 37.07     554.97
 37.17     591.57
 37.27     601.87
 37.37     537.35
 37.47     560.00
 37.57     572.00
 37.67     575.00
 37.77     608.00
 37.87     608.51
 37.97     598.00
 38.07     717.63
 38.17     651.00
 38.27     722.08
 38.37     743.81
 38.47     649.00
 38.57     612.00
 38.67     589.00
 38.77     610.00
 38.87     643.09
 38.97     599.00
 39.07     574.00
 39.17     599.00
 39.27     594.00
 39.37     572.00
 39.47     584.00
 39.57     561.39
 39.67     560.00
 39.77     531.00
 39.87     525.39
 39.97     566.47
 40.07     556.00
 40.17     529.80
 40.27     530.00
 40.37     552.00
 40.47     564.00
 40.57     548.00
 40.67     578.00
 40.77     628.00
 40.87     574.00
 40.97     573.00
 41.07     550.89
 41.17     594.00
 41.27     559.81
 41.37     580.35
 41.47     573.00
 41.57     652.00
 41.67     582.00
 41.77     569.00
 41.87     580.00
 41.97     566.70
 42.07     582.00
 42.17     573.00
 42.27     560.00
 42.37     529.00
 42.47     574.27
 42.57     645.80
 42.67     598.00
 42.77     664.00
 42.87     638.00
 42.97     703.15
 43.07     600.00
 43.17     652.00
 43.27     631.13
 43.37     644.28
 43.47     616.00
 43.57     567.00
 43.67     609.00
 43.77     559.04
 43.87     576.00
 43.97     605.00
 44.07     616.00
 44.17     577.00
 44.27     550.00
 44.37     565.00
 44.47     580.00
 44.57     560.00
 44.67     516.00
 44.77     567.00
 44.87     616.47
 44.97     609.00
 45.07     576.00
 45.17     607.15
 45.27     563.77
 45.37     608.00
 45.47     566.00
 45.57     528.00
 45.67     607.00
 45.77     616.00
 45.87     567.43
 45.97     599.00
 46.07     575.43
 46.17     575.00
 46.27     589.00
 46.37     615.51
 46.47     552.37
 46.57     588.00
 46.67     583.00
 46.77     594.00
 46.87     540.27
 46.97     573.00
 47.07     609.82
 47.17     587.00
 47.27     601.27
 47.37     590.54
 47.47     601.00
 47.57     609.68
 47.67     579.00
 47.77     647.46
 47.87     620.00
 47.97     648.93
 48.07     635.00
 48.17     671.00
 48.27     664.00
 48.37     651.10
 48.47     616.00
 48.57     610.00
 48.67     604.00
 48.77     622.00
 48.87     599.00
 48.97     623.96
 49.07     649.00
 49.17     603.00
 49.27     617.00
 49.37     604.00
 49.47     611.14
 49.57     675.77
 49.67     690.42
 49.77     715.00
 49.87     793.00
 49.97    1022.81
 50.07    1338.23
 50.17    1700.00
 50.27    2080.00
 50.37    2515.95
 50.47    2836.00
 50.57    3048.00
 50.67    2624.16
 50.77    2379.01
 50.87    1875.14
 50.97    1526.69
 51.07    1154.00
 51.17     921.65
 51.27     806.00
 51.37     774.00
 51.47     752.00
 51.57     747.80
 51.67     733.00
 51.77     709.00
 51.87     656.00
 51.97     655.56
 52.07     704.00
 52.17     660.00
 52.27     685.51
 52.37     677.31
 52.47     668.24
 52.57     646.87
 52.67     655.47
 52.77     665.19
 52.87     679.00
 52.97     656.59
 53.07     725.00
 53.17     716.00
 53.27     769.00
 53.37     758.86
 53.47     944.39
 53.57    1000.00
 53.67    1176.00
 53.77    1176.00
 53.87    1315.17
 53.97    1268.00
 54.07    1255.70
 54.17    1108.91
 54.27     986.00
 54.37     879.31
 54.47     792.00
 54.57     765.00
 54.67     733.99
 54.77     703.00
 54.87     649.00
 54.97     670.00
 55.07     640.00
 55.17     682.70
 55.27     618.00
 55.37     642.00
 55.47     646.00
 55.57     653.85
 55.67     661.00
 55.77     679.81
 55.87     685.00
 55.97     718.00
 56.07     700.68
 56.17     682.00
 56.27     716.76
 56.37     784.00
 56.47     818.00
 56.57     975.00
 56.67    1170.58
 56.77    1404.00
 56.87    1604.30
 56.97    2012.00
 57.07    2288.10
 57.17    2564.00
 57.27    2664.93
 57.37    2670.18
 57.47    2286.36
 57.57    1987.75
 57.67    1742.49
 57.77    1396.00
 57.87    1204.42
 57.97    1028.00
 58.07     927.75
 58.17     879.33
 58.27     757.00
 58.37     772.00
 58.47     749.00
 58.57     833.00
 58.67     811.85
 58.77     895.93
 58.87     961.00
 58.97    1006.00
 59.07    1180.00
 59.17    1223.00
 59.27    1287.04
 59.37    1257.00
 59.47    1253.45
 59.57    1292.00
 59.67    1347.00
 59.77    1221.53
 59.87    1198.00
 59.97    1217.09
 60.07    1199.06
 60.17    1289.00
 60.27    1359.00
 60.37    1449.00
 60.47    1522.36
 60.57    1690.00
 60.67    1610.00
 60.77    1477.08
 60.87    1392.00
 60.97    1306.32
 61.07    1195.00
 61.17     968.82
 61.27     952.00
 61.37     805.00
 61.47     808.95
 61.57     764.00
 61.67     784.00
 61.77     776.00
 61.87     823.00
 61.97     910.00
 62.07    1014.00
 62.17    1168.38
 62.27    1267.56
 62.37    1423.00
 62.47    1543.00
 62.57    1610.00
 62.67    1567.00
 62.77    1549.98
 62.87    1498.54
 62.97    1252.00
 63.07    1104.00
 63.17    1046.30
 63.27     916.46
 63.37     837.00
 63.47     765.00
 63.57     740.00
 63.67     690.00
 63.77     685.11
 63.87     711.00
 63.97     712.00
 64.07     654.00
 64.17     751.00
 64.27     749.00
 64.37     810.00
 64.47     786.64
 64.57     903.02
 64.67    1006.14
 64.77    1069.49
 64.87    1274.00
 64.97    1294.00
 65.07    1318.86
 65.17    1427.00
 65.27    1394.75
 65.37    1386.00
 65.47    1186.24
 65.57    1231.00
 65.67    1105.00
 65.77    1006.01
 65.87     906.00
 65.97     833.42
 66.07     752.00
 66.17     733.00
 66.27     702.00
 66.37     759.84
 66.47     703.66
 66.57     640.00
 66.67     715.00
 66.77     646.00
 66.87     639.00
 66.97     661.00
 67.07     625.00
 67.17     638.00
 67.27     672.00
 67.37     775.67
 67.47     720.00
 67.57     792.00
 67.67     889.00
 67.77     933.23
 67.87    1129.00
 67.97    1308.21
 68.07    1527.33
 68.17    1707.43
 68.27    2008.32
 68.37    2143.80
 68.47    2482.80
 68.57    2619.00
 68.67    2360.84
 68.77    2297.00
 68.87    2126.00
 68.97    1895.00
 69.07    1635.28
 69.17    1432.00
 69.27    1260.00
 69.37    1091.18
 69.47    1000.00
 69.57     887.13
 69.67     855.00
 69.77     743.00
 69.87     720.59
 69.97     667.14
 70.07     688.00
 70.17     718.00
 70.27     657.00
 70.37     669.00
 70.47     715.00
 70.57     620.11
 70.67     667.00
 70.77     643.00
 70.87     743.00
 70.97     674.88
 71.07     676.00
 71.17     635.38
 71.27     723.00
 71.37     730.00
 71.47     749.00
 71.57     788.00
 71.67     826.78
 71.77     920.00
 71.87    1035.00
 71.97    1198.00
 72.07    1317.00
 72.17    1522.27
 72.27    1615.00
 72.37    1824.00
 72.47    1869.00
 72.57    1951.88
 72.67    1962.72
 72.77    1880.86
 72.87    1696.00
 72.97    1511.00
 73.07    1447.86
 73.17    1248.00
 73.27    1009.00
 73.37     957.28
 73.47     858.00
 73.57     837.00
 73.67     729.00
 73.77     709.00
 73.87     743.00
 73.97     646.00
 74.07     679.00
 74.17     651.00
 74.27     635.00
 74.37     619.16
 74.47     671.62
 74.57     588.00
 74.67     635.00
 74.77     665.00
 74.87     732.00
 74.97     664.00
 75.07     701.68
 75.17     692.00
 75.27     719.00
 75.37     709.00
 75.47     687.44
 75.57     706.00
 75.67     670.00
 75.77     640.36
 75.87     681.00
 75.97     618.88
 76.07     623.00
 76.17     610.00
 76.27     659.00
 76.37     664.24
 76.47     759.26
 76.57     739.00
 76.67     745.00
 76.77     877.00
 76.87     869.00
 76.97     876.00
 77.07     887.00
 77.17     957.26
 77.27     869.91
 77.37     921.18
 77.47     860.00
 77.57     814.00
 77.67     745.00
 77.77     736.00
 77.87     766.34
 77.97     685.00
 78.07     704.99
 78.17     661.00
 78.27     663.00
 78.37     557.00
 78.47     608.00
 78.57     650.94
 78.67     635.48
 78.77     605.59
 78.87     635.00
 78.97     629.00
 79.07     595.09
 79.17     589.00
 79.27     600.00
 79.37     552.00
 79.47     642.33
 79.57     620.00
 79.67     568.00
 79.77     628.00
 79.87     579.00
 79.97     602.00
 80.07     596.00
 80.17     579.73
 80.27     630.42
 80.37     684.00
 80.47     694.14
 80.57     728.68
 80.67     711.49
 80.77     774.00
 80.87     833.00
 80.97     868.24
 81.07     896.00
 81.17    1016.00
 81.27    1028.00
 81.37    1119.63
 81.47    1152.54
 81.57    1188.00
 81.67    1224.00
 81.77    1241.00
 81.87    1147.71
 81.97    1294.00
 82.07    1159.00
 82.17    1101.00
 82.27    1102.00
 82.37     938.62
 82.47     984.90
 82.57     862.00
 82.67     826.00
 82.77     823.00
 82.87     768.09
 82.97     745.00
 83.07     669.00
 83.17     675.28
 83.27     641.00
 83.37     576.00
 83.47     613.95
 83.57     619.00
 83.67     601.00
 83.77     583.00
 83.87     591.00
 83.97     611.00
 84.07     675.10
 84.17     664.00
 84.27     634.15
 84.37     632.00
 84.47     638.00
 84.57     570.00
 84.67     642.00
 84.77     626.70
 84.87     627.27
 84.97     667.00
 85.07     598.99
 85.17     614.51
 85.27     621.00
 85.37     594.00
 85.47     640.96
 85.57     619.84
 85.67     601.00
 85.77     632.42
 85.87     557.00
 85.97     598.00
 86.07     566.00
 86.17     598.00
 86.27     607.00
 86.37     582.87
 86.47     633.00
 86.57     576.00
 86.67     608.22
 86.77     633.25
 86.87     591.00
 86.97     645.00
 87.07     658.00
 87.17     601.48
 87.27     639.00
 87.37     692.00
 87.47     636.00
 87.57     663.85
 87.67     724.00
 87.77     661.00
 87.87     719.39
 87.97     730.00
 88.07     646.23
 88.17     701.25
 88.27     705.53
 88.37     705.05
 88.47     703.00
 88.57     632.00
 88.67     723.00
 88.77     709.00
 88.87     673.00
 88.97     687.02
 89.07     616.00
 89.17     594.04
 89.27     648.00
 89.37     622.60
 89.47     646.06
 89.57     589.47
 89.67     595.95
 89.77     679.00
 89.87     624.00
 89.97     658.82
 90.07     646.22
 90.17     663.00
 90.27     667.00
 90.37     643.00
 90.47     591.18
 90.57     627.00
 90.67     602.00
 90.77     645.00
 90.87     629.00
 90.97     615.00
 91.07     623.51
 91.17     548.00
 91.27     591.00
 91.37     573.00
 91.47     605.00
 91.57     574.00
 91.67     617.00
 91.77     523.30
 91.87     542.55
 91.97     550.61
 92.07     547.66
 92.17     608.00
 92.27     587.00
 92.37     612.75
 92.47     584.00
 92.57     636.05
 92.67     601.30
 92.77     617.00
 92.87     614.08
 92.97     648.00
 93.07     652.00
 93.17     684.00
 93.27     673.00
 93.37     653.00
 93.47     746.27
 93.57     709.00
 93.67     712.39
 93.77     746.00
 93.87     783.00
 93.97     774.21
 94.07     787.59
 94.17     846.77
 94.27     833.00
 94.37     828.00
 94.47     875.34
 94.57     907.00
 94.67     834.00
 94.77     894.00
 94.87     883.20
 94.97     974.00
 95.07     932.01
 95.17    1019.00
 95.27    1036.57
 95.37    1006.83
 95.47     971.00
 95.57    1074.00
 95.67    1023.67
 95.77     961.00
 95.87     957.36
 95.97     974.67
 96.07     925.00
 96.17     889.00
 96.27     868.00
 96.37     819.57
 96.47     782.00
 96.57     855.00
 96.67     782.97
 96.77     864.00
 96.87     758.04
 96.97     866.00
 97.07     784.75
 97.17     914.00
 97.27     893.67
 97.37     985.00
 97.47    1092.00
 97.57    1193.00
 97.67    1185.28
 97.77    1297.00
 97.87    1336.00
 97.97    1450.00
 98.07    1517.78
 98.17    1494.00
 98.27    1514.00
 98.37    1521.15
 98.47    1602.00
 98.57    1587.76
 98.67    1558.16
 98.77    1417.85
 98.87    1356.00
 98.97    1397.00
 99.07    1298.00
 99.17    1217.00
 99.27    1137.00
 99.37    1001.00
 99.47     989.00
 99.57     911.00
 99.67     981.84
 99.77     992.82
 99.87     952.00
 99.97    1004.80
100.07    1070.00
100.17    1008.90
100.27    1166.00
100.37    1219.00
100.47    1271.15
100.57    1284.00
100.67    1472.00
100.77    1564.78
100.87    1669.00
100.97    1776.00
101.07    1784.00
101.17    1942.71
101.27    1984.00
101.37    2013.00
101.47    2043.00
101.57    2068.00
101.67    2013.24
101.77    2048.17
101.87    2086.00
101.97    1973.00
102.07    1980.00
102.17    1828.23
102.27    1898.65
102.37    1675.07
102.47    1626.00
102.57    1600.36
102.67    1463.00
102.77    1467.00
102.87    1507.34
102.97    1369.84
103.07    1357.21
103.17    1239.00
103.27    1352.33
103.37    1217.00
103.47    1183.00
103.57    1108.00
103.67    1193.00
103.77    1099.00
103.87    1042.00
103.97    1045.00
104.07    1037.82
104.17     946.12
104.27     931.00
104.37     870.00
104.47     918.00
104.57     832.99
104.67     732.39
104.77     750.56
104.87     748.00
104.97     703.00
105.07     650.00
105.17     683.06
105.27     617.00
105.37     669.00
105.47     616.07
105.57     635.00
105.67     617.37
105.77     646.00
105.87     592.35
105.97     576.00
106.07     632.00
106.17     609.65
106.27     572.00
106.37     616.75
106.47     552.92
106.57     599.00
106.67     636.00
106.77     611.00
106.87     632.00
106.97     589.54
107.07     587.00
107.17     686.87
107.27     669.00
107.37     704.00
107.47     689.00
107.57     675.51
107.67     759.98
107.77     755.00
107.87     745.00
107.97     752.57
108.07     730.00
108.17     764.00
108.27     782.00
108.37     770.00
108.47     770.00
108.57     767.30
108.67     797.00
108.77     730.00
108.87     749.00
108.97     730.00
109.07     724.00
109.17     753.00
109.27     719.00
109.37     801.07
109.47     758.02
109.57     718.40
109.67     792.43
109.77     757.00
109.87     721.00
109.97     713.86
110.07     720.00
110.17     728.00
110.27     733.00
110.37     708.00
110.47     722.00
110.57     731.00
110.67     655.00
110.77     668.15
110.87     639.00
110.97     723.23
111.07     696.14
111.17     679.00
111.27     638.40
111.37     623.14
111.47     618.57
111.57     581.15
111.67     613.00
111.77     607.00
111.87     572.00
111.97     593.65
112.07     597.00
112.17     577.32
112.27     607.00
112.37     556.73
112.47     610.00
112.57     551.00
112.67     540.00
112.77     616.00
112.87     544.08
112.97     597.00
113.07     622.00
113.17     555.85
113.27     599.00
113.37     631.69
113.47     609.63
113.57     628.00
113.67     643.92
113.77     619.14
113.87     625.00
113.97     643.00
114.07     673.41
114.17     674.00
114.27     654.00
114.37     651.00
114.47     697.79
114.57     630.00
114.67     719.00
114.77     717.12
114.87     797.00
114.97     890.00
115.07     869.94
115.17     887.00
115.27    1009.00
115.37    1105.00
115.47    1199.00
115.57    1326.00
115.67    1443.17
115.77    1680.00
115.87    1898.00
115.97    2112.00
116.07    2344.00
116.17    2564.00
116.27    2867.00
116.37    3329.56
116.47    3715.00
116.57    4040.00
116.67    4286.48
116.77    4708.35
116.87    5168.00
116.97    5524.00
117.07    6096.19
117.17    6413.00
117.27    6635.00
117.37    6963.99
117.47    7147.00
117.57    7220.16
117.67    7281.56
117.77    7415.15
117.87    7470.51
117.97    7414.00
118.07    6982.70
118.17    6797.00
118.27    6618.00
118.37    6423.62
118.47    5923.00
118.57    5622.00
118.67    5242.00
118.77    4897.00
118.87    4563.93
118.97    4164.30
119.07    3709.00
119.17    3283.61
119.27    3078.00
119.37    2802.00
119.47    2547.29
119.57    2221.00
119.67    1926.14
119.77    1918.00
119.87    1697.29
119.97    1602.00
120.07    1501.00
120.17    1310.00
120.27    1194.60
120.37    1129.00
120.47     985.99
120.57     971.48
120.67     890.08
120.77     848.00
120.87     860.00
120.97     815.00
121.07     764.00
121.17     753.55
121.27     737.93
121.37     716.74
121.47     685.00
121.57     680.00
121.67     743.00
121.77     689.00
121.87     692.00
121.97     654.00
122.07     706.00
122.17     680.00
122.27     671.00
122.37     698.90
122.47     648.62
122.57     672.00
122.67     663.91
122.77     661.00
122.87     617.00
122.97     649.00
123.07     709.00
123.17     684.00
123.27     750.00
123.37     703.40
123.47     707.00
123.57     723.92
123.67     713.00
123.77     774.61
123.87     741.00
123.97     691.00
124.07     739.89
124.17     743.00
124.27     674.00
124.37     773.00
124.47     730.00
124.57     710.59
124.67     700.56
124.77     723.09
124.87     731.00
124.97     672.45
