  9.97     718.00
 10.07     758.74
 10.17     748.70
 10.27     794.00
 10.37     756.62
 10.47     758.73
 10.57     716.56
 10.67     811.03
 10.77     758.00
 10.87     749.89
 10.97     769.00
 11.07     753.00
 11.17     802.31
 11.27     784.52
 11.37     698.01
 11.47     747.00
 11.57     729.55
 11.67     798.98
 11.77     780.60
 11.87     819.02
 11.97     749.99
 12.07     857.00
 12.17     910.00
 12.27     912.23
 12.37     840.00
 12.47     794.96
 12.57     787.00
 12.67     761.89
 12.77     729.00
 12.87     739.00
 12.97     714.00
 13.07     795.59
 13.17     695.97
 13.27     723.00
 13.37     705.00
 13.47     695.34
 13.57     712.00
 13.67     718.75
 13.77     783.00
 13.87     740.00
 13.97     778.00
 14.07     748.00
 14.17     762.00
 14.27     755.99
 14.37     713.23
 14.47     722.23
 14.57     680.00
 14.67     690.00
 14.77     721.00
 14.87     743.00
 14.97     746.72
 15.07     660.00
 15.17     679.00
 15.27     693.30
 15.37     683.00
 15.47     687.00
 15.57     683.00
 15.67     671.00
 15.77     741.93
 15.87     735.00
 15.97     686.00
 16.07     675.00
 16.17     701.00
 16.27     671.00
 16.37     687.00
 16.47     713.00
 16.57     685.00
 16.67     673.00
 16.77     708.62
 16.87     731.82
 16.97     728.42
 17.07     739.94
 17.17     648.00
 17.27     719.85
 17.37     744.34
 17.47     727.00
 17.57     706.38
 17.67     705.00
 17.77     653.00
 17.87     729.28
 17.97     652.00
 18.07     713.00
 18.17     729.56
 18.27     677.00
 18.37     663.00
 18.47     714.00
 18.57     702.00
 18.67     658.00
 18.77     674.39
 18.87     737.00
 18.97     680.69
 19.07     734.00
 19.17     607.00
 19.27     691.00
 19.37     694.09
 19.47     691.00
 19.57     666.00
 19.67     692.00
 19.77     670.00
 19.87     688.00
 19.97     674.00
 20.07     661.00
 20.17     704.00
 20.27     711.71
 20.37     709.48
 20.47     671.39
 20.57     659.89
 20.67     635.00
 20.77     718.00
 20.87     664.00
 20.97     665.00
 21.07     677.00
 21.17     640.00
 21.27     668.00
 21.37     636.00
 21.47     718.92
 21.57     650.00
 21.67     691.00
 21.77     720.86
 21.87     660.00
 21.97     721.10
 22.07     674.50
 22.17     621.50
 22.27     698.00
 22.37     660.00
 22.47     709.34
 22.57     702.00
 22.67     660.08
 22.77     641.00
 22.87     640.00
 22.97     691.68
 23.07     686.00
 23.17     667.67
 23.27     618.90
 23.37     689.51
 23.47     643.00
 23.57     709.17
 23.67     666.00
 23.77     692.00
 23.87     685.00
 23.97     651.68
 24.07     675.00
 24.17     709.00
 24.27     673.00
 24.37     689.00
 24.47     671.00
 24.57     736.56
 24.67     703.00
 24.77     749.00
 24.87     721.00
 24.97     776.00
 25.07     720.96
 25.17     781.47
 25.27     708.00
 25.37     747.25
 25.47     733.00
 25.57     732.02
 25.67     715.00
 25.77     696.00
 25.87     684.55
 25.97     718.26
 26.07     694.00
 26.17     646.00
 26.27     685.98
 26.37     655.00
 26.47     711.00
 26.57     702.00
 26.67     706.23
 26.77     735.62
 26.87     709.00
 26.97     705.00
 27.07     719.00
 27.17     790.32
 27.27     775.00
 27.37     732.00
 27.47     815.00
 27.57     822.00
 27.67     838.00
 27.77     974.86
 27.87    1151.02
 27.97    1391.00
 28.07    2067.00
 28.17    3278.00
 28.27    5363.00
 28.37    7750.00
 28.47    9449.00
 28.57    9123.00
 28.67    7418.00
 28.77    5272.00
 28.87    4114.00
 28.97    4248.00
 29.07    4916.00
 29.17    5335.00
 29.27    4918.64
 29.37    3904.70
 29.47    2899.00
 29.57    1997.00
 29.67    1416.00
 29.77    1216.00
 29.87    1017.00
 29.97     934.00
 30.07     809.47
 30.17     840.47
 30.27     791.72
 30.37     806.00
 30.47     763.00
 30.57     748.00
 30.67     714.14
 30.77     716.89
 30.87     787.00
 30.97     810.00
 31.07     852.00
 31.17     835.00
 31.27     841.00
 31.37     839.00
 31.47     790.00
 31.57     767.00
 31.67     717.81
 31.77     711.51
 31.87     745.00
 31.97     655.12
 32.07     677.00
 32.17     651.16
 32.27     616.23
 32.37     664.00
 32.47     712.00
 32.57     639.82
 32.67     656.00
 32.77     671.94
 32.87     667.99
 32.97     711.00
 33.07     698.03
 33.17     719.00
 33.27     629.23
 33.37     734.00
 33.47     700.00
 33.57     707.00
 33.67     700.00
 33.77     711.00
 33.87     793.00
 33.97     915.00
 34.07    1008.00
 34.17    1100.26
 34.27    1326.16
 34.37    1362.00
 34.47    1272.34
 34.57    1198.00
 34.67     994.00
 34.77     930.34
 34.87     796.00
 34.97     767.00
 35.07     668.38
 35.17     738.00
 35.27     713.74
 35.37     666.00
 35.47     691.00
 35.57     640.20
 35.67     665.00
 35.77     643.00
 35.87     661.93
 35.97     646.00
 36.07     680.00
 36.17     636.01
 36.27     637.00
 36.37     611.30
 36.47     689.54
 36.57     670.00
 36.67     657.14
 36.77     632.00
 36.87     645.00
 36.97     593.89
 37.07     608.00
 37.17     648.00
 37.27     644.00
 37.37     636.00
 37.47     603.01
 37.57     656.00
 37.67     678.00
 37.77     680.00
 37.87     686.40
 37.97     708.59
 38.07     746.38
 38.17     765.00
 38.27     833.03
 38.37     843.97
 38.47     722.00
 38.57     804.00
 38.67     731.00
 38.77     659.00
 38.87     712.00
 38.97     660.00
 39.07     658.00
 39.17     623.00
 39.27     633.00
 39.37     632.00
 39.47     645.00
 39.57     658.00
 39.67     639.00
 39.77     645.00
 39.87     666.00
 39.97     595.00
 40.07     662.34
 40.17     656.38
 40.27     682.00
 40.37     686.14
 40.47     601.91
 40.57     608.53
 40.67     647.00
 40.77     675.07
 40.87     633.00
 40.97     642.00
 41.07     604.38
 41.17     599.11
 41.27     639.12
 41.37     656.00
 41.47     624.54
 41.57     645.00
 41.67     645.00
 41.77     675.00
 41.87     674.25
 41.97     659.00
 42.07     625.00
 42.17     650.00
 42.27     629.00
 42.37     698.00
 42.47     623.00
 42.57     654.00
 42.67     664.00
 42.77     685.00
 42.87     681.05
 42.97     713.73
 43.07     737.00
 43.17     713.00
 43.27     703.00
 43.37     715.00
 43.47     678.00
 43.57     715.29
 43.67     700.75
 43.77     723.00
 43.87     695.00
 43.97     692.00
 44.07     612.95
 44.17     689.00
 44.27     643.00
 44.37     672.61
 44.47     685.63
 44.57     630.00
 44.67     690.34
 44.77     666.10
 44.87     681.85
 44.97     637.14
 45.07     616.05
 45.17     625.00
 45.27     679.10
 45.37     637.00
 45.47     625.49
 45.57     639.10
 45.67     679.00
 45.77     682.93
 45.87     665.00
 45.97     673.46
 46.07     670.57
 46.17     629.08
 46.27     671.73
 46.37     670.00
 46.47     655.68
 46.57     605.00
 46.67     638.00
 46.77     623.57
 46.87     681.00
 46.97     611.36
 47.07     633.00
 47.17     654.11
 47.27     675.00
 47.37     616.00
 47.47     669.00
 47.57     691.34
 47.67     618.45
 47.77     696.17
 47.87     675.49
 47.97     680.84
 48.07     708.00
 48.17     791.00
 48.27     761.36
 48.37     757.78
 48.47     730.00
 48.57     748.00
 48.67     669.00
 48.77     664.00
 48.87     698.00
 48.97     659.69
 49.07     676.00
 49.17     716.43
 49.27     706.42
 49.37     706.00
 49.47     730.00
 49.57     724.91
 49.67     755.00
 49.77     750.00
 49.87     829.00
 49.97     970.00
 50.07    1151.11
 50.17    1524.00
 50.27    1873.00
 50.37    2408.12
 50.47    2889.00
 50.57    3381.69
 50.67    3221.00
 50.77    3182.00
 50.87    2630.00
 50.97    2084.00
 51.07    1694.93
 51.17    1250.00
 51.27    1030.00
 51.37     975.00
 51.47     817.90
 51.57     869.00
 51.67     780.00
 51.77     765.49
 51.87     828.00
 51.97     730.65
 52.07     790.00
 52.17     761.00
 52.27     779.00
 52.37     743.50
 52.47     784.73
 52.57     767.00
 52.67     708.12
 52.77     752.00
 52.87     735.29
 52.97     766.00
 53.07     707.04
 53.17     764.25
 53.27     745.00
 53.37     811.00
 53.47     863.53
 53.57     947.00
 53.67     991.28
 53.77    1097.00
 53.87    1230.00
 53.97    1290.55
 54.07    1369.00
 54.17    1301.00
 54.27    1251.82
 54.37    1171.03
 54.47    1059.00
 54.57     976.00
 54.67     846.00
 54.77     799.00
 54.87     757.04
 54.97     690.52
 55.07     747.00
 55.17     705.35
 55.27     741.00
 55.37     709.00
 55.47     728.28
 55.57     730.00
 55.67     713.00
 55.77     770.18
 55.87     714.00
 55.97     742.00
 56.07     752.00
 56.17     707.00
 56.27     747.00
 56.37     813.00
 56.47     787.00
 56.57     878.94
 56.67    1005.00
 56.77    1189.91
 56.87    1452.22
 56.97    1734.34
 57.07    2014.00
 57.17    2344.00
 57.27    2646.00
 57.37    2795.00
 57.47    2768.00
 57.57    2592.72
 57.67    2298.00
 57.77    1889.77
 57.87    1645.00
 57.97    1426.09
 58.07    1168.00
 58.17    1009.00
 58.27     888.00
 58.37     917.00
 58.47     828.00
 58.57     818.85
 58.67     890.00
 58.77     909.00
 58.87     974.18
 58.97    1009.00
 59.07    1112.16
 59.17    1234.00
 59.27    1305.00
 59.37    1323.00
 59.47    1338.00
 59.57    1367.00
 59.67    1390.00
 59.77    1356.00
 59.87    1277.00
 59.97    1296.89
 60.07    1264.00
 60.17    1329.00
 60.27    1267.32
 60.37    1458.00
 60.47    1556.00
 60.57    1528.12
 60.67    1616.00
 60.77    1647.53
 60.87    1567.00
 60.97    1562.69
 61.07    1450.09
 61.17    1211.23
 61.27    1124.83
 61.37     999.00
 61.47     913.00
 61.57     843.83
 61.67     909.20
 61.77     834.62
 61.87     894.00
 61.97     950.00
 62.07    1042.52
 62.17    1158.00
 62.27    1236.00
 62.37    1463.00
 62.47    1592.00
 62.57    1847.00
 62.67    1946.00
 62.77    1864.00
 62.87    1823.21
 62.97    1691.28
 63.07    1549.00
 63.17    1416.00
 63.27    1199.91
 63.37    1124.00
 63.47     990.87
 63.57     951.18
 63.67     800.00
 63.77     795.00
 63.87     739.00
 63.97     824.00
 64.07     828.68
 64.17     766.18
 64.27     781.45
 64.37     821.00
 64.47     881.00
 64.57     917.00
 64.67    1021.00
 64.77    1112.00
 64.87    1229.26
 64.97    1413.31
 65.07    1564.00
 65.17    1693.00
 65.27    1680.00
 65.37    1730.25
 65.47    1729.22
 65.57    1569.67
 65.67    1497.00
 65.77    1278.81
 65.87    1174.94
 65.97    1112.72
 66.07    1001.00
 66.17     951.74
 66.27     878.36
 66.37     895.71
 66.47     760.00
 66.57     769.00
 66.67     816.53
 66.77     702.00
 66.87     749.00
 66.97     737.00
 67.07     791.07
 67.17     672.00
 67.27     731.69
 67.37     802.16
 67.47     770.00
 67.57     795.00
 67.67     811.83
 67.77     973.00
 67.87     932.00
 67.97    1079.00
 68.07    1199.00
 68.17    1433.00
 68.27    1767.81
 68.37    1905.68
 68.47    2135.00
 68.57    2437.00
 68.67    2628.00
 68.77    2523.00
 68.87    2567.00
 68.97    2439.00
 69.07    2188.00
 69.17    1974.00
 69.27    1736.00
 69.37    1488.00
 69.47    1288.00
 69.57    1222.00
 69.67     999.86
 69.77     978.00
 69.87     892.00
 69.97     900.00
 70.07     866.00
 70.17     859.00
 70.27     795.00
 70.37     762.00
 70.47     754.92
 70.57     725.15
 70.67     763.55
 70.77     775.00
 70.87     733.91
 70.97     659.00
 71.07     737.00
 71.17     685.32
 71.27     732.00
 71.37     781.00
 71.47     784.17
 71.57     778.00
 71.67     811.00
 71.77     968.10
 71.87     986.34
 71.97    1080.00
 72.07    1159.03
 72.17    1302.00
 72.27    1476.00
 72.37    1620.00
 72.47    1855.30
 72.57    2004.00
 72.67    2120.00
 72.77    2120.50
 72.87    1968.35
 72.97    1823.00
 73.07    1711.15
 73.17    1604.00
 73.27    1398.61
 73.37    1233.00
 73.47    1142.00
 73.57     981.39
 73.67     943.00
 73.77     859.00
 73.87     828.00
 73.97     770.00
 74.07     747.00
 74.17     697.00
 74.27     754.00
 74.37     687.00
 74.47     712.00
 74.57     763.86
 74.67     719.02
 74.77     715.00
 74.87     700.00
 74.97     735.00
 75.07     677.00
 75.17     740.00
 75.27     761.00
 75.37     760.00
 75.47     791.00
 75.57     681.13
 75.67     773.00
 75.77     775.00
 75.87     716.00
 75.97     722.71
 76.07     667.68
 76.17     748.71
 76.27     754.00
 76.37     760.00
 76.47     796.00
 76.57     763.60
 76.67     890.00
 76.77     909.00
 76.87     930.00
 76.97     947.00
 77.07    1028.00
 77.17    1142.32
 77.27    1162.00
 77.37    1118.00
 77.47    1077.00
 77.57    1049.00
 77.67    1032.00
 77.77     974.66
 77.87     927.00
 77.97     886.00
 78.07     836.34
 78.17     772.00
 78.27     777.00
 78.37     764.03
 78.47     663.50
 78.57     695.00
 78.67     707.00
 78.77     675.00
 78.87     633.67
 78.97     679.00
 79.07     627.00
 79.17     706.00
 79.27     683.00
 79.37     701.00
 79.47     666.11
 79.57     682.00
 79.67     648.00
 79.77     661.00
 79.87     678.95
 79.97     718.21
 80.07     670.00
 80.17     729.01
 80.27     695.28
 80.37     659.00
 80.47     719.00
 80.57     805.00
 80.67     755.00
 80.77     803.12
 80.87     821.00
 80.97     901.66
 81.07    1045.00
 81.17    1042.00
 81.27    1154.00
 81.37    1170.03
 81.47    1419.00
 81.57    1459.00
 81.67    1534.00
 81.77    1651.00
 81.87    1643.00
 81.97    1513.31
 82.07    1585.00
 82.17    1547.00
 82.27    1507.00
 82.37    1332.10
 82.47    1280.03
 82.57    1237.00
 82.67    1148.00
 82.77    1052.00
 82.87     990.68
 82.97     890.00
 83.07     819.62
 83.17     816.00
 83.27     764.87
 83.37     761.17
 83.47     740.00
 83.57     702.00
 83.67     648.00
 83.77     686.17
 83.87     719.00
 83.97     690.47
 84.07     688.00
 84.17     685.00
 84.27     759.01
 84.37     692.84
 84.47     750.11
 84.57     750.00
 84.67     786.78
 84.77     710.00
 84.87     651.00
 84.97     701.91
 85.07     687.95
 85.17     773.32
 85.27     697.00
 85.37     702.00
 85.47     668.00
 85.57     655.00
 85.67     638.00
 85.77     638.14
 85.87     652.00
 85.97     654.00
 86.07     622.58
 86.17     632.83
 86.27     654.58
 86.37     742.00
 86.47     659.00
 86.57     695.00
 86.67     674.10
 86.77     660.00
 86.87     662.88
 86.97     699.27
 87.07     694.00
 87.17     677.74
 87.27     735.00
 87.37     719.04
 87.47     719.00
 87.57     709.00
 87.67     746.00
 87.77     726.00
 87.87     691.00
 87.97     766.00
 88.07     796.00
 88.17     774.00
 88.27     810.00
 88.37     804.45
 88.47     758.00
 88.57     705.18
 88.67     760.00
 88.77     719.00
 88.87     714.00
 88.97     748.81
 89.07     670.95
 89.17     711.00
 89.27     678.00
 89.37     728.77
 89.47     675.00
 89.57     676.67
 89.67     707.00
 89.77     657.00
 89.87     708.27
 89.97     672.00
 90.07     683.09
 90.17     764.65
 90.27     730.00
 90.37     705.00
 90.47     693.76
 90.57     674.00
 90.67     754.00
 90.77     694.00
 90.87     656.92
 90.97     633.00
 91.07     710.33
 91.17     665.00
 91.27     628.00
 91.37     616.00
 91.47     589.00
 91.57     642.00
 91.67     591.71
 91.77     622.93
 91.87     663.20
 91.97     613.00
 92.07     617.00
 92.17     652.00
 92.27     658.00
 92.37     612.00
 92.47     624.62
 92.57     644.00
 92.67     654.24
 92.77     601.79
 92.87     658.00
 92.97     622.00
 93.07     684.00
 93.17     727.00
 93.27     686.00
 93.37     720.00
 93.47     752.00
 93.57     737.00
 93.67     781.34
 93.77     827.56
 93.87     862.61
 93.97     792.00
 94.07     891.03
 94.17     807.38
 94.27     852.00
 94.37     908.76
 94.47     868.76
 94.57     931.00
 94.67     888.21
 94.77     974.19
 94.87     977.00
 94.97     967.00
 95.07    1035.00
 95.17    1007.00
 95.27    1053.00
 95.37    1078.00
 95.47    1104.30
 95.57    1073.00
 95.67    1137.00
 95.77    1101.95
 95.87    1115.00
 95.97    1131.00
 96.07    1118.00
 96.17    1003.00
 96.27     985.17
 96.37     988.00
 96.47     936.00
 96.57     930.00
 96.67     906.18
 96.77     925.00
 96.87     870.00
 96.97     866.00
 97.07     866.00
 97.17     965.00
 97.27     941.69
 97.37     873.00
 97.47     921.00
 97.57    1034.00
 97.67    1044.31
 97.77    1145.00
 97.87    1207.00
 97.97    1328.00
 98.07    1366.00
 98.17    1507.56
 98.27    1515.00
 98.37    1565.00
 98.47    1544.00
 98.57    1689.01
 98.67    1654.00
 98.77    1563.58
 98.87    1577.00
 98.97    1541.00
 99.07    1519.53
 99.17    1457.00
 99.27    1368.21
 99.37    1263.51
 99.47    1311.47
 99.57    1253.74
 99.67    1069.00
 99.77    1087.00
 99.87    1074.00
 99.97    1030.00
100.07    1070.00
100.17    1054.00
100.27    1120.00
100.37    1146.00
100.47    1109.00
100.57    1284.00
100.67    1303.00
100.77    1397.00
100.87    1519.00
100.97    1517.38
101.07    1630.00
101.17    1687.63
101.27    1860.00
101.37    1945.00
101.47    1947.00
101.57    1980.34
101.67    2156.00
101.77    2125.00
101.87    2245.94
101.97    2166.51
102.07    2189.00
102.17    2116.19
102.27    2080.53
102.37    2110.00
102.47    2049.38
102.57    1941.00
102.67    1851.00
102.77    1822.00
102.87    1695.24
102.97    1571.00
103.07    1532.82
103.17    1545.24
103.27    1469.02
103.37    1484.69
103.47    1354.00
103.57    1395.00
103.67    1283.29
103.77    1300.24
103.87    1257.00
103.97    1222.00
104.07    1206.00
104.17    1198.00
104.27    1141.00
104.37    1144.33
104.47     987.34
104.57    1039.00
104.67     973.25
104.77     909.00
104.87     870.98
104.97     930.00
105.07     899.00
105.17     784.74
105.27     775.00
105.37     699.44
105.47     771.00
105.57     702.45
105.67     722.00
105.77     718.05
105.87     654.17
105.97     661.08
106.07     690.00
106.17     682.94
106.27     602.60
106.37     702.00
106.47     712.00
106.57     679.00
106.67     623.74
106.77     655.00
106.87     639.00
106.97     769.00
107.07     681.00
107.17     686.00
107.27     717.27
107.37     693.86
107.47     701.00
107.57     752.00
107.67     746.00
107.77     748.00
107.87     767.00
107.97     785.00
108.07     758.50
108.17     803.00
108.27     840.91
108.37     773.00
108.47     773.00
108.57     824.09
108.67     862.56
108.77     820.00
108.87     840.00
108.97     812.00
109.07     847.98
109.17     823.76
109.27     865.04
109.37     788.00
109.47     785.00
109.57     768.00
109.67     799.47
109.77     768.00
109.87     854.88
109.97     796.00
110.07     883.06
110.17     784.00
110.27     795.00
110.37     818.00
110.47     865.00
110.57     860.00
110.67     867.87
110.77     825.00
110.87     809.00
110.97     803.08
111.07     725.53
111.17     746.39
111.27     754.00
111.37     705.88
111.47     709.00
111.57     659.00
111.67     728.00
111.77     717.00
111.87     715.30
111.97     643.16
112.07     667.00
112.17     641.89
112.27     680.00
112.37     721.00
112.47     699.00
112.57     632.00
112.67     678.00
112.77     693.00
112.87     643.00
112.97     694.00
113.07     640.00
113.17     656.00
113.27     626.00
113.37     675.00
113.47     647.33
113.57     706.52
113.67     683.45
113.77     666.00
113.87     652.00
113.97     729.59
114.07     682.00
114.17     694.00
114.27     688.00
114.37     722.00
114.47     690.00
114.57     777.76
114.67     802.11
114.77     713.00
114.87     745.33
114.97     811.00
115.07     794.00
115.17     924.45
115.27     862.00
115.37     970.00
115.47    1101.21
115.57    1171.40
115.67    1150.00
115.77    1326.00
115.87    1449.00
115.97    1537.91
116.07    1759.00
116.17    1940.00
116.27    2198.04
116.37    2421.00
116.47    2628.00
116.57    3073.00
116.67    3339.00
116.77    3806.66
116.87    3978.94
116.97    4302.00
117.07    4634.00
117.17    5234.62
117.27    5500.22
117.37    6126.40
117.47    6179.00
117.57    6623.00
117.67    7051.00
117.77    7330.00
117.87    7498.00
117.97    7481.00
118.07    7570.00
118.17    7763.73
118.27    7636.00
118.37    7427.01
118.47    7276.00
118.57    7010.00
118.67    6668.00
118.77    6486.30
118.87    5930.00
118.97    5723.00
119.07    5253.00
119.17    4947.00
119.27    4599.00
119.37    4308.00
119.47    3936.00
119.57    3628.00
119.67    3284.00
119.77    2943.73
119.87    2651.00
119.97    2356.00
120.07    2154.00
120.17    1866.28
120.27    1896.00
120.37    1635.51
120.47    1420.94
120.57    1422.00
120.67    1308.00
120.77    1268.00
120.87    1175.00
120.97    1062.53
121.07    1074.00
121.17     994.41
121.27     959.09
121.37     946.00
121.47     916.00
121.57     908.00
121.67     811.09
121.77     846.99
121.87     803.32
121.97     792.00
122.07     751.00
122.17     751.00
122.27     766.40
122.37     717.00
122.47     770.61
122.57     752.00
122.67     719.00
122.77     724.75
122.87     751.00
122.97     732.68
123.07     801.47
123.17     747.00
123.27     826.11
123.37     756.90
123.47     792.00
123.57     801.00
123.67     782.78
123.77     784.43
123.87     777.00
123.97     802.00
124.07     847.13
124.17     803.51
124.27     760.53
124.37     887.00
124.47     769.56
124.57     840.58
124.67     867.11
124.77     853.00
124.87     839.56
124.97     849.57
