  9.97     574.00
 10.07     561.00
 10.17     627.00
 10.27     591.00
 10.37     557.99
 10.47     575.79
 10.57     612.00
 10.67     615.00
 10.77     594.00
 10.87     581.00
 10.97     602.00
 11.07     598.00
 11.17     620.00
 11.27     589.00
 11.37     579.00
 11.47     608.69
 11.57     565.00
 11.67     565.32
 11.77     553.62
 11.87     606.00
 11.97     683.00
 12.07     682.00
 12.17     703.00
 12.27     671.00
 12.37     683.87
 12.47     685.51
 12.57     569.85
 12.67     561.00
 12.77     598.79
 12.87     561.00
 12.97     550.00
 13.07     583.00
 13.17     563.00
 13.27     546.38
 13.37     541.00
 13.47     544.72
 13.57     585.00
 13.67     599.80
 13.77     567.00
 13.87     576.77
 13.97     578.68
 14.07     579.68
 14.17     583.69
 14.27     604.20
 14.37     607.15
 14.47     557.00
 14.57     556.00
 14.67     570.00
 14.77     568.56
 14.87     552.77
 14.97     585.00
 15.07     552.44
 15.17     556.00
 15.27     563.00
 15.37     599.00
 15.47     543.00
 15.57     510.00
 15.67     557.05
 15.77     551.00
 15.87     580.00
 15.97     592.91
 16.07     570.00
 16.17     590.00
 16.27     527.76
 16.37     553.00
 16.47     567.00
 16.57     562.00
 16.67     550.00
 16.77     562.00
 16.87     580.49
 16.97     567.00
 17.07     552.00
 17.17     553.74
 17.27     532.00
 17.37     548.00
 17.47     588.04
 17.57     547.00
 17.67     548.38
 17.77     571.00
 17.87     580.85
 17.97     529.00
 18.07     507.00
 18.17     554.00
 18.27     555.70
 18.37     605.14
 18.47     568.84
 18.57     593.00
 18.67     560.73
 18.77     504.00
 18.87     543.00
 18.97     566.00
 19.07     577.50
 19.17     587.00
 19.27     491.00
 19.37     593.46
 19.47     558.00
 19.57     586.10
 19.67     605.00
 19.77     558.33
 19.87     563.00
 19.97     594.50
 20.07     564.00
 20.17     549.00
 20.27     531.00
 20.37     556.14
 20.47     543.00
 20.57     535.47
 20.67     549.00
 20.77     542.00
 20.87     551.00
 20.97     518.00
 21.07     582.00
 21.17     518.43
 21.27     539.53
 21.37     591.00
 21.47     572.00
 21.57     578.00
 21.67     561.00
 21.77     563.00
 21.87     577.00
 21.97     532.70
 22.07     513.00
 22.17     582.22
 22.27     552.00
 22.37     539.13
 22.47     568.00
 22.57     543.40
 22.67     574.00
 22.77     578.50
 22.87     562.00
 22.97     585.55
 23.07     541.00
 23.17     584.00
 23.27     551.00
 23.37     568.88
 23.47     556.00
 23.57     548.00
 23.67     518.00
 23.77     580.00
 23.87     579.71
 23.97     558.12
 24.07     577.73
 24.17     570.00
 24.27     535.32
 24.37     566.00
 24.47     622.00
 24.57     601.00
 24.67     583.23
 24.77     615.00
 24.87     633.00
 24.97     612.00
 25.07     555.00
 25.17     596.00
 25.27     541.89
 25.37     571.00
 25.47     577.00
 25.57     546.00
 25.67     560.00
 25.77     522.61
 25.87     537.01
 25.97     531.00
 26.07     525.00
 26.17     590.00
 26.27     566.69
 26.37     534.67
 26.47     590.00
 26.57     513.77
 26.67     538.00
 26.77     545.00
 26.87     545.00
 26.97     604.00
 27.07     525.02
 27.17     562.00
 27.27     598.00
 27.37     589.00
 27.47     571.00
 27.57     563.00
 27.67     583.99
 27.77     535.87
 27.87     596.00
 27.97     648.67
 28.07     815.79
 28.17     927.36
 28.27     928.00
 28.37     899.00
 28.47     815.09
 28.57     710.00
 28.67     737.41
 28.77     728.00
 28.87     795.00
 28.97     811.10
 29.07     854.19
 29.17     710.00
 29.27     597.00
 29.37     566.00
 29.47     618.00
 29.57     557.07
 29.67     639.00
 29.77     603.82
 29.87     573.00
 29.97     564.00
 30.07     522.15
 30.17     578.00
 30.27     611.00
 30.37     589.00
 30.47     622.00
 30.57     554.00
 30.67     580.00
 30.77     581.00
 30.87     645.35
 30.97     639.17
 31.07     659.00
 31.17     625.00
 31.27     542.00
 31.37     584.00
 31.47     548.09
 31.57     571.00
 31.67     523.78
 31.77     542.00
 31.87     536.00
 31.97     543.00
 32.07     548.00
 32.17     548.76
 32.27     538.00
 32.37     512.46
 32.47     588.00
 32.57     540.00
 32.67     584.00
 32.77     536.00
 32.87     549.24
 32.97     553.00
 33.07     575.00
 33.17     578.70
 33.27     552.00
 33.37     574.42
 33.47     573.99
 33.57     579.00
 33.67     633.43
 33.77     714.00
 33.87     892.49
 33.97    1029.00
 34.07    1085.00
 34.17    1060.00
 34.27     954.00
 34.37     735.00
 34.47     644.00
 34.57     556.74
 34.67     571.00
 34.77     561.00
 34.87     507.39
 34.97     509.46
 35.07     535.00
 35.17     508.00
 35.27     547.00
 35.37     565.87
 35.47     539.72
 35.57     513.00
 35.67     580.00
 35.77     481.58
 35.87     486.24
 35.97     543.96
 36.07     504.00
 36.17     495.00
 36.27     513.00
 36.37     525.00
 36.47     497.18
 36.57     539.00
 36.67     506.00
 36.77     533.00
 36.87     513.00
 36.97     509.00
 37.07     511.00
 37.17     524.00
 37.27     516.00
 37.37     532.00
 37.47     489.00
 37.57     504.23
 37.67     571.10
 37.77     527.50
 37.87     511.21
 37.97     537.00
 38.07     550.08
 38.17     522.95
 38.27     504.00
 38.37     499.00
 38.47     546.17
 38.57     489.67
 38.67     519.00
 38.77     551.65
 38.87     492.00
 38.97     483.00
 39.07     486.00
 39.17     511.33
 39.27     511.00
 39.37     503.00
 39.47     497.00
 39.57     472.76
 39.67     498.97
 39.77     478.00
 39.87     518.00
 39.97     523.00
 40.07     517.00
 40.17     493.00
 40.27     500.00
 40.37     500.00
 40.47     518.00
 40.57     523.09
 40.67     518.00
 40.77     536.00
 40.87     526.00
 40.97     450.00
 41.07     496.00
 41.17     499.00
 41.27     496.00
 41.37     500.67
 41.47     508.00
 41.57     516.00
 41.67     498.00
 41.77     549.50
 41.87     492.52
 41.97     522.56
 42.07     534.00
 42.17     550.45
 42.27     526.00
 42.37     518.42
 42.47     575.50
 42.57     579.00
 42.67     575.00
 42.77     609.00
 42.87     576.00
 42.97     530.00
 43.07     564.00
 43.17     492.00
 43.27     502.00
 43.37     550.78
 43.47     543.62
 43.57     508.00
 43.67     511.25
 43.77     460.00
 43.87     492.00
 43.97     470.87
 44.07     501.48
 44.17     539.41
 44.27     476.00
 44.37     488.10
 44.47     469.30
 44.57     487.00
 44.67     496.00
 44.77     521.00
 44.87     508.00
 44.97     512.75
 45.07     488.00
 45.17     517.77
 45.27     534.00
 45.37     545.00
 45.47     495.23
 45.57     462.00
 45.67     480.00
 45.77     520.00
 45.87     505.75
 45.97     505.00
 46.07     466.45
 46.17     498.16
 46.27     475.00
 46.37     484.00
 46.47     485.27
 46.57     530.58
 46.67     534.50
 46.77     477.94
 46.87     505.00
 46.97     498.00
 47.07     502.00
 47.17     514.00
 47.27     501.00
 47.37     527.00
 47.47     521.00
 47.57     571.00
 47.67     562.00
 47.77     639.00
 47.87     558.45
 47.97     604.00
 48.07     533.66
 48.17     568.57
 48.27     561.82
 48.37     570.85
 48.47     504.00
 48.57     560.00
 48.67     506.20
 48.77     552.00
 48.87     531.00
 48.97     566.00
 49.07     553.00
 49.17     591.00
 49.27     632.92
 49.37     669.00
 49.47     718.00
 49.57     764.27
 49.67     949.00
 49.77    1085.92
 49.87    1506.00
 49.97    1951.00
 50.07    2298.09
 50.17    2458.22
 50.27    2585.00
 50.37    2221.00
 50.47    1822.00
 50.57    1489.78
 50.67    1094.75
 50.77     850.00
 50.87     704.00
 50.97     686.71
 51.07     621.00
 51.17     655.93
 51.27     658.00
 51.37     613.00
 51.47     531.15
 51.57     569.00
 51.67     581.00
 51.77     541.00
 51.87     571.22
 51.97     539.29
 52.07     511.41
 52.17     567.00
 52.27     570.00
 52.37     546.03
 52.47     558.00
 52.57     563.00
 52.67     586.44
 52.77     570.59
 52.87     633.00
 52.97     643.15
 53.07     814.83
 53.17     954.00
 53.27     999.97
 53.37    1174.12
 53.47    1166.97
 53.57    1132.00
 53.67    1093.00
 53.77    1022.00
 53.87     843.00
 53.97     735.00
 54.07     700.00
 54.17     581.10
 54.27     619.70
 54.37     579.13
 54.47     616.00
 54.57     544.00
 54.67     533.00
 54.77     550.00
 54.87     591.00
 54.97     563.00
 55.07     559.00
 55.17     572.00
 55.27     550.00
 55.37     568.00
 55.47     568.61
 55.57     566.00
 55.67     585.00
 55.77     598.00
 55.87     600.08
 55.97     659.44
 56.07     666.25
 56.17     773.00
 56.27     885.00
 56.37    1126.00
 56.47    1501.53
 56.57    1868.99
 56.67    2212.00
 56.77    2568.00
 56.87    2574.00
 56.97    2683.32
 57.07    2431.00
 57.17    2004.00
 57.27    1691.00
 57.37    1284.81
 57.47    1092.56
 57.57     907.76
 57.67     732.00
 57.77     719.00
 57.87     712.30
 57.97     648.00
 58.07     665.00
 58.17     691.00
 58.27     759.00
 58.37     867.53
 58.47     926.70
 58.57    1124.00
 58.67    1280.00
 58.77    1337.99
 58.87    1541.00
 58.97    1510.00
 59.07    1497.00
 59.17    1501.00
 59.27    1429.67
 59.37    1355.69
 59.47    1268.00
 59.57    1131.86
 59.67    1076.00
 59.77    1140.00
 59.87    1198.00
 59.97    1321.00
 60.07    1462.00
 60.17    1528.73
 60.27    1544.00
 60.37    1557.00
 60.47    1413.00
 60.57    1201.00
 60.67    1114.00
 60.77     941.00
 60.87     818.14
 60.97     711.74
 61.07     628.06
 61.17     644.34
 61.27     622.00
 61.37     656.00
 61.47     682.00
 61.57     770.00
 61.67     804.00
 61.77     938.00
 61.87    1101.00
 61.97    1239.00
 62.07    1386.00
 62.17    1404.00
 62.27    1366.00
 62.37    1289.63
 62.47    1199.65
 62.57    1034.00
 62.67     914.75
 62.77     783.00
 62.87     680.15
 62.97     640.06
 63.07     565.00
 63.17     559.00
 63.27     570.59
 63.37     594.00
 63.47     604.00
 63.57     525.61
 63.67     587.78
 63.77     630.00
 63.87     628.00
 63.97     683.21
 64.07     690.00
 64.17     806.00
 64.27     832.70
 64.37     891.00
 64.47    1003.00
 64.57    1052.42
 64.67     958.80
 64.77    1055.15
 64.87     956.69
 64.97     939.00
 65.07     860.86
 65.17     751.48
 65.27     775.26
 65.37     727.00
 65.47     655.00
 65.57     583.00
 65.67     566.68
 65.77     579.00
 65.87     614.22
 65.97     606.62
 66.07     599.97
 66.17     533.94
 66.27     598.00
 66.37     540.00
 66.47     549.00
 66.57     521.00
 66.67     573.00
 66.77     532.00
 66.87     574.51
 66.97     587.85
 67.07     579.00
 67.17     699.00
 67.27     842.00
 67.37     848.00
 67.47    1107.00
 67.57    1247.00
 67.67    1498.00
 67.77    1770.00
 67.87    2039.00
 67.97    2331.27
 68.07    2378.00
 68.17    2498.00
 68.27    2327.00
 68.37    2121.67
 68.47    1757.62
 68.57    1490.00
 68.67    1252.00
 68.77    1043.28
 68.87     876.00
 68.97     733.85
 69.07     718.00
 69.17     726.00
 69.27     685.00
 69.37     584.00
 69.47     594.00
 69.57     616.00
 69.67     539.93
 69.77     578.00
 69.87     583.00
 69.97     548.98
 70.07     611.00
 70.17     540.00
 70.27     564.00
 70.37     561.00
 70.47     546.25
 70.57     590.00
 70.67     565.00
 70.77     621.00
 70.87     612.07
 70.97     623.00
 71.07     627.00
 71.17     709.00
 71.27     844.21
 71.37     903.00
 71.47    1092.00
 71.57    1221.00
 71.67    1488.55
 71.77    1682.06
 71.87    1824.42
 71.97    1805.09
 72.07    1932.96
 72.17    1891.00
 72.27    1760.00
 72.37    1671.00
 72.47    1474.00
 72.57    1254.30
 72.67    1177.70
 72.77    1081.24
 72.87     941.00
 72.97     925.09
 73.07     818.44
 73.17     741.00
 73.27     726.13
 73.37     668.00
 73.47     689.00
 73.57     617.00
 73.67     657.69
 73.77     612.00
 73.87     608.00
 73.97     545.38
 74.07     608.34
 74.17     585.00
 74.27     526.11
 74.37     606.00
 74.47     646.00
 74.57     561.93
 74.67     585.48
 74.77     651.00
 74.87     639.00
 74.97     565.94
 75.07     602.00
 75.17     556.00
 75.27     532.00
 75.37     545.18
 75.47     513.03
 75.57     554.00
 75.67     550.00
 75.77     578.86
 75.87     580.00
 75.97     612.03
 76.07     621.00
 76.17     625.00
 76.27     622.00
 76.37     691.00
 76.47     669.08
 76.57     652.00
 76.67     669.59
 76.77     675.00
 76.87     686.00
 76.97     671.00
 77.07     600.00
 77.17     571.00
 77.27     601.00
 77.37     550.41
 77.47     502.00
 77.57     516.25
 77.67     524.95
 77.77     541.21
 77.87     532.00
 77.97     506.18
 78.07     498.00
 78.17     525.00
 78.27     519.65
 78.37     525.29
 78.47     510.90
 78.57     505.00
 78.67     510.87
 78.77     513.00
 78.87     478.00
 78.97     514.00
 79.07     499.00
 79.17     494.14
 79.27     524.00
 79.37     502.36
 79.47     578.00
 79.57     506.00
 79.67     527.00
 79.77     602.00
 79.87     544.21
 79.97     561.00
 80.07     571.00
 80.17     559.00
 80.27     565.00
 80.37     594.00
 80.47     575.00
 80.57     633.82
 80.67     609.77
 80.77     625.00
 80.87     701.45
 80.97     724.54
 81.07     706.00
 81.17     748.00
 81.27     739.65
 81.37     723.00
 81.47     733.00
 81.57     761.00
 81.67     716.30
 81.77     730.00
 81.87     680.00
 81.97     699.00
 82.07     680.00
 82.17     653.00
 82.27     657.00
 82.37     637.69
 82.47     603.76
 82.57     595.00
 82.67     545.00
 82.77     596.00
 82.87     538.00
 82.97     546.00
 83.07     598.00
 83.17     536.00
 83.27     580.99
 83.37     521.94
 83.47     571.00
 83.57     574.73
 83.67     574.11
 83.77     613.35
 83.87     582.00
 83.97     588.18
 84.07     553.48
 84.17     561.51
 84.27     599.00
 84.37     539.00
 84.47     551.69
 84.57     560.06
 84.67     586.00
 84.77     554.00
 84.87     534.57
 84.97     569.02
 85.07     568.48
 85.17     497.52
 85.27     501.52
 85.37     556.83
 85.47     559.00
 85.57     518.00
 85.67     555.00
 85.77     546.08
 85.87     510.00
 85.97     491.14
 86.07     499.00
 86.17     498.52
 86.27     507.00
 86.37     580.70
 86.47     569.00
 86.57     513.32
 86.67     535.87
 86.77     621.00
 86.87     585.00
 86.97     575.21
 87.07     604.56
 87.17     649.00
 87.27     651.00
 87.37     623.00
 87.47     624.19
 87.57     674.00
 87.67     636.00
 87.77     668.00
 87.87     656.00
 87.97     564.61
 88.07     635.00
 88.17     600.00
 88.27     607.00
 88.37     536.00
 88.47     595.00
 88.57     590.26
 88.67     585.00
 88.77     574.00
 88.87     594.00
 88.97     633.00
 89.07     574.00
 89.17     563.65
 89.27     579.07
 89.37     616.00
 89.47     611.00
 89.57     569.31
 89.67     547.00
 89.77     572.51
 89.87     555.00
 89.97     552.60
 90.07     573.16
 90.17     547.00
 90.27     542.00
 90.37     584.36
 90.47     524.65
 90.57     576.00
 90.67     538.36
 90.77     528.00
 90.87     509.00
 90.97     547.27
 91.07     529.00
 91.17     529.00
 91.27     510.00
 91.37     523.00
 91.47     477.00
 91.57     535.00
 91.67     514.00
 91.77     547.00
 91.87     573.00
 91.97     550.00
 92.07     574.00
 92.17     613.25
 92.27     545.00
 92.37     583.00
 92.47     643.00
 92.57     627.03
 92.67     652.00
 92.77     683.96
 92.87     738.00
 92.97     731.00
 93.07     749.00
 93.17     725.00
 93.27     775.45
 93.37     757.82
 93.47     795.00
 93.57     815.00
 93.67     822.25
 93.77     871.00
 93.87     800.00
 93.97     817.00
 94.07     857.91
 94.17     842.00
 94.27     838.00
 94.37     871.00
 94.47     901.00
 94.57     918.00
 94.67     951.00
 94.77     913.33
 94.87     934.00
 94.97     909.00
 95.07     916.77
 95.17     898.00
 95.27     834.00
 95.37     814.00
 95.47     747.00
 95.57     767.00
 95.67     714.00
 95.77     708.00
 95.87     730.28
 95.97     636.06
 96.07     642.00
 96.17     679.00
 96.27     759.40
 96.37     713.00
 96.47     802.00
 96.57     839.49
 96.67     905.00
 96.77     968.00
 96.87    1013.01
 96.97    1154.00
 97.07    1163.00
 97.17    1293.00
 97.27    1308.17
 97.37    1459.05
 97.47    1456.00
 97.57    1376.93
 97.67    1410.32
 97.77    1441.50
 97.87    1353.00
 97.97    1312.39
 98.07    1269.03
 98.17    1124.07
 98.27    1138.00
 98.37    1035.00
 98.47     894.00
 98.57     940.34
 98.67     871.00
 98.77     809.00
 98.87     816.47
 98.97     728.00
 99.07     853.00
 99.17     875.00
 99.27     924.50
 99.37     894.88
 99.47    1053.56
 99.57    1096.00
 99.67    1226.00
 99.77    1302.00
 99.87    1356.26
 99.97    1445.00
100.07    1613.00
100.17    1776.00
100.27    1783.17
100.37    1896.76
100.47    2030.56
100.57    2025.00
100.67    2131.72
100.77    2118.53
100.87    2097.00
100.97    2001.95
101.07    1996.00
101.17    1893.00
101.27    1792.00
101.37    1642.00
101.47    1563.11
101.57    1583.00
101.67    1484.24
101.77    1422.58
101.87    1321.00
101.97    1288.00
102.07    1172.35
102.17    1142.00
102.27    1130.00
102.37    1056.00
102.47    1094.00
102.57    1050.00
102.67    1083.62
102.77    1020.00
102.87     996.00
102.97    1020.00
103.07     880.77
103.17     873.00
103.27     897.07
103.37     775.84
103.47     749.37
103.57     747.60
103.67     679.00
103.77     707.00
103.87     610.04
103.97     647.00
104.07     612.82
104.17     567.76
104.27     556.00
104.37     535.48
104.47     587.62
104.57     566.00
104.67     578.50
104.77     508.16
104.87     553.84
104.97     554.00
105.07     542.00
105.17     551.00
105.27     563.00
105.37     523.00
105.47     582.34
105.57     552.00
105.67     586.00
105.77     536.00
105.87     551.00
105.97     588.00
106.07     576.00
106.17     602.10
106.27     562.00
106.37     616.22
106.47     611.80
106.57     583.25
106.67     619.00
106.77     626.00
106.87     617.00
106.97     652.88
107.07     648.00
107.17     697.00
107.27     669.00
107.37     657.00
107.47     642.00
107.57     657.00
107.67     725.13
107.77     675.00
107.87     702.00
107.97     691.00
108.07     695.00
108.17     681.00
108.27     651.18
108.37     671.00
108.47     663.00
108.57     672.00
108.67     735.69
108.77     686.00
108.87     686.00
108.97     660.00
109.07     697.00
109.17     684.43
109.27     668.00
109.37     642.00
109.47     648.00
109.57     605.59
109.67     594.87
109.77     638.91
109.87     645.00
109.97     641.00
110.07     580.62
110.17     565.03
110.27     590.00
110.37     555.00
110.47     532.93
110.57     538.00
110.67     602.00
110.77     566.00
110.87     539.00
110.97     568.77
111.07     578.00
111.17     525.00
111.27     550.00
111.37     554.00
111.47     525.00
111.57     538.00
111.67     530.00
111.77     581.51
111.87     561.20
111.97     554.00
112.07     563.00
112.17     530.00
112.27     583.48
112.37     647.00
112.47     629.00
112.57     644.42
112.67     572.00
112.77     605.00
112.87     632.00
112.97     678.00
113.07     679.73
113.17     701.00
113.27     732.00
113.37     746.00
113.47     800.30
113.57     763.69
113.67     833.00
113.77     879.00
113.87     954.00
113.97     950.00
114.07     956.31
114.17    1066.00
114.27    1130.00
114.37    1191.00
114.47    1282.00
114.57    1353.69
114.67    1548.00
114.77    1706.00
114.87    1927.00
114.97    2150.00
115.07    2311.50
115.17    2556.00
115.27    2879.80
115.37    3189.83
115.47    3495.84
115.57    3692.11
115.67    4102.00
115.77    4481.23
115.87    4706.00
115.97    5268.00
116.07    5639.00
116.17    6042.00
116.27    6335.44
116.37    6546.00
116.47    6845.97
116.57    6704.00
116.67    7080.00
116.77    7050.00
116.87    6758.73
116.97    6754.00
117.07    6403.00
117.17    6205.00
117.27    5878.46
117.37    5316.00
117.47    4976.00
117.57    4756.75
117.67    4274.02
117.77    3973.00
117.87    3471.03
117.97    3221.00
118.07    2930.00
118.17    2565.00
118.27    2214.24
118.37    2010.00
118.47    1727.66
118.57    1500.00
118.67    1418.16
118.77    1281.62
118.87    1158.00
118.97    1024.00
119.07     965.00
119.17     861.03
119.27     857.00
119.37     805.58
119.47     703.00
119.57     669.00
119.67     717.62
119.77     620.24
119.87     664.00
119.97     630.70
120.07     612.00
120.17     572.96
120.27     590.00
120.37     585.00
120.47     605.75
120.57     582.00
120.67     558.00
120.77     555.00
120.87     535.00
120.97     568.00
121.07     610.34
121.17     531.00
121.27     616.37
121.37     534.75
121.47     622.33
121.57     613.00
121.67     571.00
121.77     636.09
121.87     568.00
121.97     575.00
122.07     583.48
122.17     610.00
122.27     563.00
122.37     598.00
122.47     602.08
122.57     609.00
122.67     593.52
122.77     615.00
122.87     675.98
122.97     657.04
123.07     683.18
123.17     677.00
123.27     656.34
123.37     626.54
123.47     639.00
123.57     637.00
123.67     664.00
123.77     670.04
123.87     598.00
123.97     641.00
124.07     639.84
124.17     639.82
124.27     607.00
124.37     619.00
124.47     601.00
124.57     592.00
124.67     543.53
124.77     558.35
124.87     587.00
124.97     567.00
