  9.97     690.00
 10.07     557.96
 10.17     625.03
 10.27     551.92
 10.37     617.00
 10.47     679.00
 10.57     656.27
 10.67     655.00
 10.77     713.00
 10.87     628.00
 10.97     635.19
 11.07     642.35
 11.17     652.00
 11.27     643.00
 11.37     635.00
 11.47     659.57
 11.57     590.69
 11.67     686.00
 11.77     610.60
 11.87     654.00
 11.97     679.00
 12.07     645.95
 12.17     736.00
 12.27     698.00
 12.37     761.00
 12.47     671.00
 12.57     714.00
 12.67     653.00
 12.77     619.00
 12.87     633.00
 12.97     605.00
 13.07     681.23
 13.17     561.00
 13.27     605.00
 13.37     605.00
 13.47     553.00
 13.57     562.00
 13.67     631.00
 13.77     619.00
 13.87     622.00
 13.97     668.39
 14.07     582.04
 14.17     615.95
 14.27     601.00
 14.37     578.00
 14.47     629.00
 14.57     648.00
 14.67     641.00
 14.77     609.00
 14.87     628.66
 14.97     639.23
 15.07     634.57
 15.17     602.02
 15.27     595.00
 15.37     617.00
 15.47     600.00
 15.57     584.00
 15.67     567.00
 15.77     620.00
 15.87     604.00
 15.97     563.00
 16.07     621.92
 16.17     611.23
 16.27     579.00
 16.37     634.00
 16.47     617.64
 16.57     618.74
 16.67     582.38
 16.77     563.00
 16.87     663.00
 16.97     629.56
 17.07     606.78
 17.17     574.06
 17.27     576.00
 17.37     606.00
 17.47     607.00
 17.57     582.00
 17.67     592.60
 17.77     558.00
 17.87     591.00
 17.97     563.00
 18.07     663.75
 18.17     581.01
 18.27     581.83
 18.37     603.00
 18.47     613.23
 18.57     609.00
 18.67     601.00
 18.77     602.00
 18.87     541.00
 18.97     586.00
 19.07     616.00
 19.17     563.00
 19.27     615.00
 19.37     562.00
 19.47     572.00
 19.57     658.11
 19.67     581.62
 19.77     625.11
 19.87     573.48
 19.97     606.00
 20.07     653.16
 20.17     577.65
 20.27     569.00
 20.37     626.46
 20.47     575.00
 20.57     633.00
 20.67     580.00
 20.77     601.29
 20.87     628.00
 20.97     575.00
 21.07     568.00
 21.17     600.00
 21.27     560.86
 21.37     600.16
 21.47     625.88
 21.57     636.37
 21.67     554.00
 21.77     576.00
 21.87     595.00
 21.97     629.62
 22.07     553.48
 22.17     552.00
 22.27     574.81
 22.37     605.72
 22.47     634.00
 22.57     558.62
 22.67     556.94
 22.77     604.00
 22.87     600.00
 22.97     645.93
 23.07     604.00
 23.17     577.80
 23.27     621.40
 23.37     565.09
 23.47     604.00
 23.57     615.00
 23.67     648.00
 23.77     625.00
 23.87     666.00
 23.97     586.85
 24.07     666.15
 24.17     665.00
 24.27     597.00
 24.37     646.34
 24.47     683.00
 24.57     624.23
 24.67     639.64
 24.77     667.00
 24.87     678.42
 24.97     724.00
 25.07     697.00
 25.17     709.00
 25.27     672.00
 25.37     650.00
 25.47     650.34
 25.57     604.77
 25.67     651.09
 25.77     646.00
 25.87     594.69
 25.97     652.00
 26.07     642.00
 26.17     675.00
 26.27     671.00
 26.37     575.79
 26.47     684.00
 26.57     625.00
 26.67     616.84
 26.77     671.00
 26.87     634.00
 26.97     638.00
 27.07     644.00
 27.17     563.12
 27.27     665.00
 27.37     651.00
 27.47     644.39
 27.57     661.00
 27.67     696.00
 27.77     684.30
 27.87     726.00
 27.97     725.00
 28.07     824.00
 28.17     906.00
 28.27     982.00
 28.37    1021.52
 28.47    1006.00
 28.57     805.51
 28.67     788.00
 28.77     763.12
 28.87     852.31
 28.97     791.33
 29.07     966.00
 29.17     788.43
 29.27     733.38
 29.37     741.00
 29.47     746.00
 29.57     674.64
 29.67     697.00
 29.77     656.60
 29.87     665.26
 29.97     692.00
 30.07     713.00
 30.17     623.21
 30.27     718.00
 30.37     601.93
 30.47     682.00
 30.57     642.00
 30.67     606.93
 30.77     715.00
 30.87     667.00
 30.97     658.40
 31.07     731.00
 31.17     734.00
 31.27     682.00
 31.37     681.00
 31.47     564.32
 31.57     644.00
 31.67     624.00
 31.77     655.00
 31.87     546.94
 31.97     641.00
 32.07     553.00
 32.17     597.00
 32.27     542.64
 32.37     605.00
 32.47     576.00
 32.57     585.00
 32.67     590.66
 32.77     642.00
 32.87     587.00
 32.97     577.16
 33.07     648.00
 33.17     590.00
 33.27     641.71
 33.37     572.90
 33.47     620.00
 33.57     633.00
 33.67     634.00
 33.77     687.00
 33.87     744.00
 33.97     905.73
 34.07    1008.00
 34.17    1044.00
 34.27    1042.00
 34.37     988.00
 34.47     805.00
 34.57     771.22
 34.67     644.64
 34.77     602.00
 34.87     610.00
 34.97     607.00
 35.07     555.00
 35.17     516.00
 35.27     595.00
 35.37     579.00
 35.47     576.00
 35.57     558.00
 35.67     582.00
 35.77     525.00
 35.87     576.00
 35.97     553.34
 36.07     582.00
 36.17     614.32
 36.27     531.00
 36.37     556.53
 36.47     587.05
 36.57     516.21
 36.67     544.00
 36.77     588.42
 36.87     522.00
 36.97     528.00
 37.07     527.21
 37.17     529.00
 37.27     596.83
 37.37     587.04
 37.47     505.08
 37.57     562.09
 37.67     550.40
 37.77     527.00
 37.87     564.00
 37.97     559.97
 38.07     561.00
 38.17     504.00
 38.27     596.28
 38.37     510.29
 38.47     530.00
 38.57     503.00
 38.67     579.18
 38.77     509.00
 38.87     545.87
 38.97     535.00
 39.07     594.89
 39.17     506.00
 39.27     562.00
 39.37     506.99
 39.47     505.00
 39.57     523.00
 39.67     546.00
 39.77     487.71
 39.87     535.00
 39.97     525.00
 40.07     503.00
 40.17     517.00
 40.27     523.93
 40.37     559.69
 40.47     471.00
 40.57     484.53
 40.67     542.52
 40.77     577.57
 40.87     519.00
 40.97     553.00
 41.07     524.15
 41.17     491.00
 41.27     553.76
 41.37     488.88
 41.47     487.65
 41.57     530.00
 41.67     501.03
 41.77     519.88
 41.87     500.00
 41.97     513.68
 42.07     531.05
 42.17     505.91
 42.27     538.00
 42.37     518.14
 42.47     540.00
 42.57     569.00
 42.67     592.00
 42.77     614.00
 42.87     600.00
 42.97     678.50
 43.07     568.00
 43.17     568.39
 43.27     528.71
 43.37     563.00
 43.47     605.49
 43.57     548.00
 43.67     584.10
 43.77     503.28
 43.87     549.02
 43.97     521.05
 44.07     544.00
 44.17     522.58
 44.27     548.00
 44.37     567.35
 44.47     521.00
 44.57     561.00
 44.67     496.17
 44.77     524.00
 44.87     579.22
 44.97     560.00
 45.07     527.00
 45.17     508.00
 45.27     552.46
 45.37     547.00
 45.47     533.58
 45.57     582.85
 45.67     499.74
 45.77     537.00
 45.87     533.00
 45.97     575.68
 46.07     503.83
 46.17     525.00
 46.27     561.53
 46.37     500.09
 46.47     571.00
 46.57     553.00
 46.67     514.00
 46.77     518.00
 46.87     567.00
 46.97     540.00
 47.07     535.00
 47.17     538.00
 47.27     584.63
 47.37     569.00
 47.47     499.45
 47.57     525.00
 47.67     553.00
 47.77     592.00
 47.87     581.41
 47.97     591.00
 48.07     596.00
 48.17     644.00
 48.27     611.00
 48.37     622.00
 48.47     597.00
 48.57     605.00
 48.67     611.57
 48.77     598.03
 48.87     536.00
 48.97     525.70
 49.07     577.05
 49.17     553.00
 49.27     580.11
 49.37     590.00
 49.47     615.00
 49.57     621.00
 49.67     724.00
 49.77     787.00
 49.87     915.00
 49.97    1195.00
 50.07    1486.13
 50.17    1834.00
 50.27    2222.07
 50.37    2351.00
 50.47    2364.00
 50.57    2087.00
 50.67    1699.00
 50.77    1360.00
 50.87    1035.00
 50.97     866.00
 51.07     748.00
 51.17     773.00
 51.27     738.00
 51.37     699.89
 51.47     672.00
 51.57     594.00
 51.67     634.00
 51.77     580.00
 51.87     569.00
 51.97     603.22
 52.07     598.00
 52.17     577.00
 52.27     609.00
 52.37     618.85
 52.47     579.00
 52.57     614.00
 52.67     631.00
 52.77     530.81
 52.87     608.19
 52.97     601.00
 53.07     694.34
 53.17     702.00
 53.27     742.90
 53.37     878.00
 53.47    1056.50
 53.57    1187.00
 53.67    1153.00
 53.77    1245.00
 53.87    1211.00
 53.97    1069.78
 54.07     990.65
 54.17     906.00
 54.27     800.00
 54.37     705.83
 54.47     643.75
 54.57     664.00
 54.67     630.72
 54.77     571.05
 54.87     605.00
 54.97     611.03
 55.07     621.00
 55.17     555.80
 55.27     565.98
 55.37     639.72
 55.47     612.00
 55.57     601.00
 55.67     630.00
 55.77     567.61
 55.87     599.00
 55.97     695.52
 56.07     669.00
 56.17     676.00
 56.27     738.00
 56.37     880.00
 56.47    1097.45
 56.57    1121.00
 56.67    1408.00
 56.77    1797.00
 56.87    2181.00
 56.97    2423.00
 57.07    2577.00
 57.17    2526.94
 57.27    2278.11
 57.37    2197.00
 57.47    1768.00
 57.57    1391.00
 57.67    1178.00
 57.77    1052.00
 57.87     937.97
 57.97     827.00
 58.07     799.00
 58.17     775.30
 58.27     715.00
 58.37     750.00
 58.47     697.48
 58.57     818.00
 58.67     930.54
 58.77     908.00
 58.87    1029.00
 58.97    1092.00
 59.07    1179.13
 59.17    1253.00
 59.27    1166.21
 59.37    1321.42
 59.47    1302.05
 59.57    1257.00
 59.67    1237.00
 59.77    1201.00
 59.87    1257.00
 59.97    1265.09
 60.07    1329.00
 60.17    1320.64
 60.27    1457.00
 60.37    1542.00
 60.47    1589.00
 60.57    1534.00
 60.67    1450.04
 60.77    1230.93
 60.87    1158.00
 60.97    1093.62
 61.07     884.00
 61.17     798.00
 61.27     813.51
 61.37     786.85
 61.47     724.00
 61.57     752.00
 61.67     718.00
 61.77     785.00
 61.87     926.00
 61.97     955.00
 62.07    1061.00
 62.17    1230.00
 62.27    1306.00
 62.37    1378.00
 62.47    1240.00
 62.57    1311.98
 62.67    1234.00
 62.77    1098.00
 62.87    1008.00
 62.97     850.00
 63.07     769.01
 63.17     680.00
 63.27     646.00
 63.37     639.00
 63.47     603.00
 63.57     653.29
 63.67     686.00
 63.77     580.18
 63.87     634.00
 63.97     601.00
 64.07     644.00
 64.17     696.00
 64.27     710.00
 64.37     796.00
 64.47     800.71
 64.57     865.00
 64.67     988.00
 64.77    1000.36
 64.87    1038.00
 64.97    1045.00
 65.07    1051.00
 65.17     969.00
 65.27     941.00
 65.37     890.00
 65.47     872.15
 65.57     708.96
 65.67     750.51
 65.77     651.00
 65.87     672.34
 65.97     660.00
 66.07     604.00
 66.17     615.00
 66.27     553.00
 66.37     566.34
 66.47     598.00
 66.57     609.00
 66.67     563.00
 66.77     634.00
 66.87     601.00
 66.97     623.00
 67.07     637.00
 67.17     698.59
 67.27     703.00
 67.37     691.00
 67.47     800.00
 67.57     860.34
 67.67    1062.00
 67.77    1226.00
 67.87    1375.77
 67.97    1689.12
 68.07    1874.66
 68.17    2036.86
 68.27    2260.26
 68.37    2374.00
 68.47    2364.00
 68.57    2233.00
 68.67    2022.00
 68.77    1780.10
 68.87    1526.00
 68.97    1368.00
 69.07    1101.00
 69.17     947.00
 69.27     878.00
 69.37     815.00
 69.47     744.00
 69.57     679.00
 69.67     681.00
 69.77     643.00
 69.87     618.00
 69.97     651.00
 70.07     619.00
 70.17     588.21
 70.27     602.28
 70.37     614.00
 70.47     577.41
 70.57     633.00
 70.67     679.00
 70.77     598.42
 70.87     637.00
 70.97     610.00
 71.07     681.78
 71.17     618.82
 71.27     641.57
 71.37     708.00
 71.47     815.00
 71.57     952.82
 71.67    1009.00
 71.77    1112.00
 71.87    1296.00
 71.97    1421.00
 72.07    1641.10
 72.17    1838.11
 72.27    1777.60
 72.37    1818.68
 72.47    1811.52
 72.57    1766.00
 72.67    1664.00
 72.77    1464.00
 72.87    1337.47
 72.97    1109.00
 73.07    1100.00
 73.17     814.53
 73.27     828.00
 73.37     775.81
 73.47     640.87
 73.57     588.66
 73.67     663.00
 73.77     634.00
 73.87     643.00
 73.97     607.85
 74.07     644.00
 74.17     525.37
 74.27     591.00
 74.37     586.00
 74.47     594.00
 74.57     652.00
 74.67     600.00
 74.77     611.47
 74.87     654.00
 74.97     640.68
 75.07     518.38
 75.17     660.00
 75.27     661.00
 75.37     649.00
 75.47     604.54
 75.57     648.00
 75.67     574.38
 75.77     663.00
 75.87     590.39
 75.97     583.00
 76.07     532.74
 76.17     664.69
 76.27     657.00
 76.37     658.00
 76.47     671.00
 76.57     694.00
 76.67     694.87
 76.77     813.00
 76.87     714.27
 76.97     793.00
 77.07     710.00
 77.17     659.00
 77.27     681.00
 77.37     597.32
 77.47     650.41
 77.57     603.18
 77.67     596.00
 77.77     565.00
 77.87     552.65
 77.97     572.00
 78.07     564.74
 78.17     547.00
 78.27     515.55
 78.37     544.00
 78.47     550.00
 78.57     490.81
 78.67     519.00
 78.77     589.42
 78.87     551.00
 78.97     526.00
 79.07     563.96
 79.17     525.61
 79.27     525.00
 79.37     503.68
 79.47     551.00
 79.57     560.15
 79.67     569.00
 79.77     568.00
 79.87     594.56
 79.97     548.00
 80.07     524.00
 80.17     545.00
 80.27     591.03
 80.37     584.00
 80.47     603.00
 80.57     567.00
 80.67     598.00
 80.77     632.00
 80.87     596.00
 80.97     654.00
 81.07     641.00
 81.17     650.00
 81.27     710.00
 81.37     757.17
 81.47     735.00
 81.57     782.00
 81.67     773.00
 81.77     772.56
 81.87     798.00
 81.97     785.39
 82.07     724.54
 82.17     744.00
 82.27     764.38
 82.37     712.14
 82.47     684.00
 82.57     665.00
 82.67     660.00
 82.77     616.82
 82.87     653.65
 82.97     640.82
 83.07     569.00
 83.17     643.52
 83.27     520.00
 83.37     603.16
 83.47     601.33
 83.57     561.00
 83.67     567.00
 83.77     578.00
 83.87     549.00
 83.97     610.76
 84.07     571.00
 84.17     582.00
 84.27     567.43
 84.37     534.00
 84.47     593.00
 84.57     575.00
 84.67     548.00
 84.77     536.81
 84.87     589.00
 84.97     586.00
 85.07     553.00
 85.17     558.64
 85.27     582.00
 85.37     570.00
 85.47     516.00
 85.57     532.00
 85.67     490.54
 85.77     554.00
 85.87     595.00
 85.97     524.00
 86.07     578.29
 86.17     549.00
 86.27     494.95
 86.37     574.81
 86.47     538.51
 86.57     523.00
 86.67     570.00
 86.77     542.00
 86.87     557.00
 86.97     541.56
 87.07     580.00
 87.17     617.00
 87.27     638.26
 87.37     604.00
 87.47     615.82
 87.57     601.00
 87.67     649.33
 87.77     618.72
 87.87     586.13
 87.97     657.00
 88.07     659.00
 88.17     667.00
 88.27     658.00
 88.37     633.00
 88.47     621.00
 88.57     593.00
 88.67     632.00
 88.77     560.00
 88.87     530.40
 88.97     623.00
 89.07     587.00
 89.17     586.00
 89.27     563.00
 89.37     569.59
 89.47     633.48
 89.57     607.38
 89.67     574.00
 89.77     645.96
 89.87     652.94
 89.97     590.00
 90.07     599.00
 90.17     604.00
 90.27     591.00
 90.37     541.00
 90.47     541.00
 90.57     506.00
 90.67     543.13
 90.77     539.00
 90.87     558.00
 90.97     583.00
 91.07     539.00
 91.17     516.75
 91.27     519.91
 91.37     594.98
 91.47     487.00
 91.57     553.00
 91.67     466.00
 91.77     530.00
 91.87     532.00
 91.97     514.00
 92.07     554.00
 92.17     536.00
 92.27     563.00
 92.37     591.02
 92.47     589.18
 92.57     567.70
 92.67     532.00
 92.77     605.93
 92.87     595.81
 92.97     592.68
 93.07     698.00
 93.17     680.84
 93.27     708.00
 93.37     731.00
 93.47     719.59
 93.57     774.00
 93.67     792.00
 93.77     760.14
 93.87     786.00
 93.97     761.45
 94.07     769.03
 94.17     835.52
 94.27     830.00
 94.37     880.00
 94.47     851.00
 94.57     841.00
 94.67     894.72
 94.77     868.00
 94.87     901.00
 94.97     949.00
 95.07     897.46
 95.17     855.76
 95.27     916.00
 95.37     927.30
 95.47     941.00
 95.57     885.00
 95.67     829.89
 95.77     834.00
 95.87     830.00
 95.97     740.34
 96.07     766.00
 96.17     733.00
 96.27     720.00
 96.37     703.00
 96.47     715.99
 96.57     768.00
 96.67     772.97
 96.77     782.65
 96.87     823.88
 96.97     897.00
 97.07     900.00
 97.17     967.00
 97.27    1023.00
 97.37    1165.00
 97.47    1265.00
 97.57    1220.11
 97.67    1373.00
 97.77    1427.00
 97.87    1433.82
 97.97    1496.00
 98.07    1491.00
 98.17    1402.50
 98.27    1454.32
 98.37    1442.54
 98.47    1395.56
 98.57    1302.00
 98.67    1171.00
 98.77    1166.00
 98.87    1119.00
 98.97    1027.00
 99.07     980.00
 99.17     945.00
 99.27     957.38
 99.37     862.81
 99.47     916.75
 99.57     961.48
 99.67     981.00
 99.77    1017.73
 99.87    1101.00
 99.97    1191.00
100.07    1203.00
100.17    1306.53
100.27    1345.05
100.37    1374.00
100.47    1561.00
100.57    1597.78
100.67    1782.91
100.77    1729.00
100.87    1793.08
100.97    1852.98
101.07    2005.20
101.17    2049.00
101.27    1976.00
101.37    2028.00
101.47    1966.91
101.57    1892.00
101.67    1862.19
101.77    1779.79
101.87    1707.00
101.97    1654.00
102.07    1540.06
102.17    1479.00
102.27    1500.00
102.37    1402.00
102.47    1345.72
102.57    1283.00
102.67    1314.36
102.77    1210.00
102.87    1252.00
102.97    1207.45
103.07    1134.03
103.17    1123.00
103.27    1078.00
103.37    1091.00
103.47     994.00
103.57     983.00
103.67     935.37
103.77     979.40
103.87     888.77
103.97     861.00
104.07     757.56
104.17     772.00
104.27     717.77
104.37     716.54
104.47     686.00
104.57     691.56
104.67     655.31
104.77     558.12
104.87     609.00
104.97     541.27
105.07     597.05
105.17     616.00
105.27     551.41
105.37     599.00
105.47     553.50
105.57     540.00
105.67     577.00
105.77     567.00
105.87     606.00
105.97     600.75
106.07     565.19
106.17     553.00
106.27     614.87
106.37     610.49
106.47     566.00
106.57     567.00
106.67     619.00
106.77     578.00
106.87     622.00
106.97     650.00
107.07     626.00
107.17     644.00
107.27     656.47
107.37     632.25
107.47     759.16
107.57     701.00
107.67     720.00
107.77     689.00
107.87     696.00
107.97     696.83
108.07     696.00
108.17     729.18
108.27     704.28
108.37     729.00
108.47     690.12
108.57     680.00
108.67     718.03
108.77     697.00
108.87     707.00
108.97     744.00
109.07     771.52
109.17     704.00
109.27     712.00
109.37     743.11
109.47     702.00
109.57     663.00
109.67     725.00
109.77     724.48
109.87     707.00
109.97     742.00
110.07     665.09
110.17     719.47
110.27     662.00
110.37     633.00
110.47     571.85
110.57     672.00
110.67     616.01
110.77     582.00
110.87     634.00
110.97     621.00
111.07     612.00
111.17     577.00
111.27     552.00
111.37     590.00
111.47     576.82
111.57     612.53
111.67     544.00
111.77     612.00
111.87     550.00
111.97     537.00
112.07     591.00
112.17     538.96
112.27     535.61
112.37     546.00
112.47     568.00
112.57     511.95
112.67     603.24
112.77     598.76
112.87     605.77
112.97     547.00
113.07     552.00
113.17     569.00
113.27     653.00
113.37     586.00
113.47     583.00
113.57     603.85
113.67     673.99
113.77     653.00
113.87     664.00
113.97     636.00
114.07     688.00
114.17     729.00
114.27     751.81
114.37     725.12
114.47     762.58
114.57     850.00
114.67     872.18
114.77     973.00
114.87    1018.00
114.97    1170.00
115.07    1223.00
115.17    1364.00
115.27    1534.00
115.37    1736.00
115.47    1902.18
115.57    2111.66
115.67    2447.00
115.77    2864.00
115.87    2970.94
115.97    3399.00
116.07    3589.00
116.17    4018.00
116.27    4396.00
116.37    4704.98
116.47    5166.00
116.57    5497.00
116.67    5788.00
116.77    6121.00
116.87    6489.00
116.97    6542.00
117.07    6789.00
117.17    7089.61
117.27    7146.26
117.37    6865.78
117.47    6988.00
117.57    6817.00
117.67    6417.00
117.77    6198.79
117.87    5817.00
117.97    5840.50
118.07    5291.00
118.17    4911.00
118.27    4633.48
118.37    4336.00
118.47    3848.24
118.57    3541.00
118.67    3266.48
118.77    2907.00
118.87    2597.00
118.97    2441.00
119.07    2256.57
119.17    1958.00
119.27    1675.62
119.37    1546.00
119.47    1447.00
119.57    1325.00
119.67    1212.00
119.77    1092.45
119.87    1085.00
119.97    1035.44
120.07     979.09
120.17     870.93
120.27     857.00
120.37     745.00
120.47     798.00
120.57     676.56
120.67     698.00
120.77     760.55
120.87     662.00
120.97     651.00
121.07     609.00
121.17     653.00
121.27     602.12
121.37     656.00
121.47     595.00
121.57     620.00
121.67     553.00
121.77     607.00
121.87     606.47
121.97     576.65
122.07     619.00
122.17     641.67
122.27     626.00
122.37     679.62
122.47     629.00
122.57     629.00
122.67     584.54
122.77     695.24
122.87     708.63
122.97     680.87
123.07     680.00
123.17     663.00
123.27     701.00
123.37     715.00
123.47     656.00
123.57     672.00
123.67     663.44
123.77     708.53
123.87     632.02
123.97     603.04
124.07     689.00
124.17     643.00
124.27     656.00
124.37     665.00
124.47     676.00
124.57     676.00
124.67     627.00
124.77     649.99
124.87     618.51
124.97     583.68
