  9.97     646.00
 10.07     563.97
 10.17     620.00
 10.27     647.00
 10.37     660.00
 10.47     628.00
 10.57     591.47
 10.67     666.00
 10.77     650.00
 10.87     624.73
 10.97     598.00
 11.07     615.00
 11.17     654.00
 11.27     549.50
 11.37     656.34
 11.47     611.25
 11.57     662.00
 11.67     655.00
 11.77     628.97
 11.87     689.00
 11.97     726.10
 12.07     642.11
 12.17     762.00
 12.27     777.50
 12.37     732.00
 12.47     662.00
 12.57     694.07
 12.67     641.00
 12.77     596.00
 12.87     654.00
 12.97     587.00
 13.07     636.00
 13.17     653.10
 13.27     589.00
 13.37     650.33
 13.47     560.00
 13.57     605.00
 13.67     596.02
 13.77     615.89
 13.87     574.00
 13.97     546.00
 14.07     580.00
 14.17     573.16
 14.27     604.00
 14.37     632.01
 14.47     604.00
 14.57     624.00
 14.67     634.53
 14.77     592.00
 14.87     604.00
 14.97     543.00
 15.07     576.00
 15.17     627.00
 15.27     600.00
 15.37     588.00
 15.47     599.46
 15.57     592.69
 15.67     626.00
 15.77     639.00
 15.87     598.00
 15.97     573.00
 16.07     659.49
 16.17     587.00
 16.27     609.00
 16.37     630.62
 16.47     598.00
 16.57     574.58
 16.67     602.00
 16.77     653.93
 16.87     602.00
 16.97     675.23
 17.07     572.58
 17.17     582.00
 17.27     622.00
 17.37     589.00
 17.47     568.26
 17.57     610.08
 17.67     655.18
 17.77     568.15
 17.87     558.00
 17.97     612.00
 18.07     612.00
 18.17     626.00
 18.27     599.00
 18.37     624.81
 18.47     611.00
 18.57     585.19
 18.67     634.00
 18.77     588.75
 18.87     629.73
 18.97     601.00
 19.07     598.00
 19.17     615.00
 19.27     621.41
 19.37     570.89
 19.47     587.00
 19.57     585.00
 19.67     588.00
 19.77     595.00
 19.87     589.00
 19.97     571.43
 20.07     595.12
 20.17     546.00
 20.27     605.00
 20.37     591.00
 20.47     602.00
 20.57     559.08
 20.67     658.61
 20.77     576.89
 20.87     625.00
 20.97     601.00
 21.07     645.00
 21.17     560.58
 21.27     587.77
 21.37     597.26
 21.47     584.00
 21.57     581.00
 21.67     622.55
 21.77     650.79
 21.87     578.02
 21.97     598.00
 22.07     589.00
 22.17     599.00
 22.27     604.63
 22.37     633.00
 22.47     584.00
 22.57     561.65
 22.67     631.66
 22.77     617.00
 22.87     617.00
 22.97     608.00
 23.07     580.00
 23.17     573.00
 23.27     662.00
 23.37     645.00
 23.47     624.00
 23.57     599.00
 23.67     560.00
 23.77     565.00
 23.87     608.00
 23.97     588.48
 24.07     626.00
 24.17     619.00
 24.27     658.00
 24.37     612.08
 24.47     628.51
 24.57     652.38
 24.67     702.11
 24.77     656.00
 24.87     658.00
 24.97     700.00
 25.07     689.00
 25.17     647.00
 25.27     666.00
 25.37     623.00
 25.47     667.15
 25.57     653.16
 25.67     685.00
 25.77     656.68
 25.87     632.00
 25.97     662.00
 26.07     598.39
 26.17     622.00
 26.27     656.00
 26.37     627.00
 26.47     603.11
 26.57     621.00
 26.67     647.00
 26.77     670.00
 26.87     690.00
 26.97     566.04
 27.07     658.00
 27.17     668.00
 27.27     617.00
 27.37     677.00
 27.47     687.00
 27.57     704.00
 27.67     587.95
 27.77     708.00
 27.87     690.00
 27.97     754.00
 28.07     789.00
 28.17     900.17
 28.27     978.25
 28.37     915.22
 28.47     995.00
 28.57     923.00
 28.67     858.00
 28.77     892.00
 28.87     848.00
 28.97     983.00
 29.07     802.52
 29.17     837.60
 29.27     853.00
 29.37     817.00
 29.47     697.45
 29.57     658.11
 29.67     692.00
 29.77     687.00
 29.87     687.00
 29.97     691.00
 30.07     691.00
 30.17     555.58
 30.27     544.16
 30.37     650.00
 30.47     551.46
 30.57     626.00
 30.67     576.68
 30.77     615.80
 30.87     739.00
 30.97     711.00
 31.07     680.00
 31.17     649.10
 31.27     665.44
 31.37     556.17
 31.47     633.00
 31.57     568.00
 31.67     647.00
 31.77     610.00
 31.87     599.00
 31.97     623.95
 32.07     576.00
 32.17     613.00
 32.27     628.00
 32.37     553.82
 32.47     548.59
 32.57     566.00
 32.67     559.00
 32.77     544.00
 32.87     595.51
 32.97     599.00
 33.07     535.79
 33.17     544.88
 33.27     608.00
 33.37     587.00
 33.47     639.91
 33.57     593.00
 33.67     698.05
 33.77     674.00
 33.87     791.00
 33.97     876.00
 34.07    1010.00
 34.17    1040.11
 34.27    1012.00
 34.37    1030.03
 34.47     876.00
 34.57     741.41
 34.67     686.00
 34.77     588.00
 34.87     644.30
 34.97     605.00
 35.07     601.00
 35.17     572.76
 35.27     571.00
 35.37     548.57
 35.47     582.13
 35.57     521.88
 35.67     584.04
 35.77     552.00
 35.87     546.76
 35.97     517.00
 36.07     505.00
 36.17     507.37
 36.27     518.03
 36.37     560.00
 36.47     563.38
 36.57     543.00
 36.67     504.00
 36.77     547.00
 36.87     587.00
 36.97     542.00
 37.07     528.00
 37.17     537.00
 37.27     530.00
 37.37     533.00
 37.47     530.00
 37.57     528.00
 37.67     579.00
 37.77     607.00
 37.87     606.45
 37.97     550.00
 38.07     550.42
 38.17     505.00
 38.27     535.00
 38.37     583.46
 38.47     509.00
 38.57     548.00
 38.67     521.00
 38.77     487.00
 38.87     535.00
 38.97     485.00
 39.07     522.00
 39.17     507.00
 39.27     526.00
 39.37     517.00
 39.47     491.36
 39.57     526.00
 39.67     521.00
 39.77     532.00
 39.87     549.00
 39.97     486.70
 40.07     493.55
 40.17     537.00
 40.27     547.03
 40.37     489.00
 40.47     545.00
 40.57     519.06
 40.67     466.00
 40.77     580.51
 40.87     481.00
 40.97     569.17
 41.07     519.00
 41.17     516.15
 41.27     515.00
 41.37     537.82
 41.47     529.00
 41.57     482.54
 41.67     564.00
 41.77     541.00
 41.87     558.69
 41.97     521.62
 42.07     483.00
 42.17     531.00
 42.27     518.00
 42.37     552.00
 42.47     536.01
 42.57     558.00
 42.67     567.61
 42.77     610.00
 42.87     643.00
 42.97     631.00
 43.07     621.00
 43.17     545.73
 43.27     582.39
 43.37     546.00
 43.47     519.00
 43.57     523.75
 43.67     492.31
 43.77     546.00
 43.87     549.94
 43.97     514.00
 44.07     518.00
 44.17     540.00
 44.27     536.00
 44.37     532.00
 44.47     506.00
 44.57     502.00
 44.67     557.80
 44.77     508.00
 44.87     553.42
 44.97     532.00
 45.07     544.00
 45.17     498.00
 45.27     563.00
 45.37     519.00
 45.47     496.36
 45.57     526.00
 45.67     489.78
 45.77     539.00
 45.87     508.24
 45.97     533.00
 46.07     551.00
 46.17     522.00
 46.27     504.00
 46.37     508.00
 46.47     515.00
 46.57     561.00
 46.67     519.00
 46.77     505.00
 46.87     517.00
 46.97     511.00
 47.07     514.21
 47.17     574.00
 47.27     497.46
 47.37     567.00
 47.47     538.00
 47.57     573.00
 47.67     536.00
 47.77     584.00
 47.87     574.62
 47.97     631.45
 48.07     590.00
 48.17     599.00
 48.27     585.00
 48.37     636.00
 48.47     569.20
 48.57     528.26
 48.67     548.00
 48.77     567.00
 48.87     546.00
 48.97     570.46
 49.07     551.00
 49.17     564.11
 49.27     593.00
 49.37     563.00
 49.47     591.00
 49.57     661.00
 49.67     671.00
 49.77     788.00
 49.87     983.00
 49.97    1231.89
 50.07    1464.00
 50.17    1931.00
 50.27    2170.00
 50.37    2439.00
 50.47    2292.94
 50.57    2093.00
 50.67    1764.00
 50.77    1411.67
 50.87    1199.39
 50.97     990.87
 51.07     892.45
 51.17     796.97
 51.27     768.46
 51.37     658.00
 51.47     658.00
 51.57     667.00
 51.67     648.00
 51.77     602.00
 51.87     612.00
 51.97     574.00
 52.07     570.00
 52.17     581.00
 52.27     571.00
 52.37     579.00
 52.47     594.00
 52.57     589.00
 52.67     587.00
 52.77     618.93
 52.87     590.00
 52.97     615.12
 53.07     720.38
 53.17     705.00
 53.27     769.59
 53.37     859.00
 53.47     939.37
 53.57    1107.00
 53.67    1159.00
 53.77    1174.00
 53.87    1259.58
 53.97    1069.56
 54.07    1060.53
 54.17     848.00
 54.27     860.00
 54.37     729.57
 54.47     675.00
 54.57     671.00
 54.67     613.00
 54.77     552.65
 54.87     618.00
 54.97     569.96
 55.07     587.00
 55.17     582.00
 55.27     580.00
 55.37     635.00
 55.47     633.00
 55.57     560.00
 55.67     623.00
 55.77     619.00
 55.87     675.20
 55.97     669.00
 56.07     687.00
 56.17     703.00
 56.27     791.57
 56.37     863.65
 56.47    1081.95
 56.57    1124.00
 56.67    1480.00
 56.77    1732.04
 56.87    2132.00
 56.97    2342.95
 57.07    2411.30
 57.17    2504.82
 57.27    2447.13
 57.37    2169.04
 57.47    1813.50
 57.57    1521.00
 57.67    1180.00
 57.77    1098.00
 57.87     889.77
 57.97     777.00
 58.07     766.76
 58.17     686.73
 58.27     702.00
 58.37     791.00
 58.47     745.00
 58.57     829.77
 58.67     862.41
 58.77     979.66
 58.87    1011.82
 58.97    1163.00
 59.07    1185.00
 59.17    1280.00
 59.27    1250.00
 59.37    1249.00
 59.47    1305.00
 59.57    1110.38
 59.67    1240.00
 59.77    1225.17
 59.87    1171.10
 59.97    1160.95
 60.07    1285.45
 60.17    1362.23
 60.27    1533.00
 60.37    1525.72
 60.47    1586.00
 60.57    1528.22
 60.67    1445.00
 60.77    1324.00
 60.87    1170.96
 60.97    1038.91
 61.07     929.00
 61.17     734.00
 61.27     746.29
 61.37     794.00
 61.47     750.00
 61.57     716.00
 61.67     787.00
 61.77     808.00
 61.87     954.78
 61.97    1005.32
 62.07    1117.01
 62.17    1250.67
 62.27    1255.00
 62.37    1366.00
 62.47    1427.73
 62.57    1318.00
 62.67    1245.25
 62.77    1172.02
 62.87     930.00
 62.97     869.00
 63.07     840.42
 63.17     700.00
 63.27     631.54
 63.37     619.00
 63.47     638.00
 63.57     648.00
 63.67     587.52
 63.77     617.36
 63.87     639.00
 63.97     631.00
 64.07     664.00
 64.17     723.28
 64.27     649.68
 64.37     838.00
 64.47     790.51
 64.57     931.00
 64.67    1011.00
 64.77    1038.00
 64.87    1099.22
 64.97    1070.95
 65.07     976.00
 65.17     962.00
 65.27     897.00
 65.37     882.90
 65.47     836.00
 65.57     777.00
 65.67     790.88
 65.77     641.00
 65.87     634.54
 65.97     655.40
 66.07     680.00
 66.17     669.16
 66.27     567.00
 66.37     651.09
 66.47     581.00
 66.57     554.00
 66.67     581.88
 66.77     600.00
 66.87     621.00
 66.97     596.00
 67.07     677.18
 67.17     654.00
 67.27     754.85
 67.37     695.00
 67.47     815.00
 67.57     970.19
 67.67    1030.45
 67.77    1336.25
 67.87    1334.00
 67.97    1727.00
 68.07    1906.00
 68.17    2074.00
 68.27    2282.00
 68.37    2367.00
 68.47    2354.00
 68.57    2280.00
 68.67    2203.00
 68.77    1736.63
 68.87    1571.00
 68.97    1318.00
 69.07    1090.00
 69.17    1029.00
 69.27     850.00
 69.37     824.90
 69.47     761.17
 69.57     632.00
 69.67     626.00
 69.77     620.00
 69.87     598.00
 69.97     660.92
 70.07     652.00
 70.17     610.22
 70.27     603.00
 70.37     588.00
 70.47     606.00
 70.57     620.03
 70.67     614.00
 70.77     588.00
 70.87     562.86
 70.97     648.00
 71.07     630.00
 71.17     649.48
 71.27     659.39
 71.37     742.00
 71.47     820.33
 71.57     893.14
 71.67    1033.00
 71.77    1175.10
 71.87    1252.06
 71.97    1475.24
 72.07    1595.00
 72.17    1737.21
 72.27    1844.00
 72.37    1924.00
 72.47    1867.00
 72.57    1652.21
 72.67    1603.00
 72.77    1480.00
 72.87    1290.00
 72.97    1061.83
 73.07     993.00
 73.17     860.16
 73.27     844.00
 73.37     802.00
 73.47     698.86
 73.57     697.00
 73.67     679.00
 73.77     624.00
 73.87     601.18
 73.97     615.00
 74.07     551.51
 74.17     586.00
 74.27     606.00
 74.37     553.56
 74.47     545.40
 74.57     547.29
 74.67     550.99
 74.77     571.71
 74.87     675.00
 74.97     688.00
 75.07     639.00
 75.17     575.46
 75.27     681.00
 75.37     594.00
 75.47     511.95
 75.57     620.00
 75.67     524.71
 75.77     580.00
 75.87     614.63
 75.97     576.75
 76.07     623.00
 76.17     556.40
 76.27     557.99
 76.37     646.00
 76.47     706.00
 76.57     693.00
 76.67     638.79
 76.77     696.00
 76.87     705.00
 76.97     726.00
 77.07     654.44
 77.17     686.00
 77.27     612.65
 77.37     651.59
 77.47     602.36
 77.57     615.00
 77.67     588.00
 77.77     546.38
 77.87     533.00
 77.97     557.00
 78.07     585.00
 78.17     497.80
 78.27     532.92
 78.37     509.00
 78.47     537.00
 78.57     519.00
 78.67     550.53
 78.77     508.00
 78.87     565.13
 78.97     519.00
 79.07     564.03
 79.17     502.00
 79.27     566.00
 79.37     556.00
 79.47     549.30
 79.57     543.45
 79.67     582.00
 79.77     568.76
 79.87     591.21
 79.97     543.35
 80.07     530.00
 80.17     504.65
 80.27     546.00
 80.37     580.00
 80.47     575.00
 80.57     587.00
 80.67     590.00
 80.77     618.71
 80.87     579.00
 80.97     669.30
 81.07     655.00
 81.17     747.98
 81.27     652.86
 81.37     680.88
 81.47     736.00
 81.57     820.78
 81.67     777.61
 81.77     718.00
 81.87     794.26
 81.97     810.02
 82.07     725.00
 82.17     809.00
 82.27     723.00
 82.37     762.01
 82.47     658.96
 82.57     672.00
 82.67     690.00
 82.77     601.75
 82.87     565.33
 82.97     588.75
 83.07     609.00
 83.17     564.00
 83.27     558.00
 83.37     569.97
 83.47     518.00
 83.57     612.87
 83.67     521.23
 83.77     616.88
 83.87     620.22
 83.97     561.00
 84.07     541.53
 84.17     571.00
 84.27     576.00
 84.37     620.86
 84.47     598.00
 84.57     528.00
 84.67     606.53
 84.77     520.00
 84.87     538.91
 84.97     537.21
 85.07     534.00
 85.17     504.00
 85.27     493.25
 85.37     549.00
 85.47     567.00
 85.57     491.68
 85.67     492.00
 85.77     552.00
 85.87     540.98
 85.97     531.00
 86.07     578.00
 86.17     522.00
 86.27     479.52
 86.37     567.00
 86.47     537.00
 86.57     554.00
 86.67     546.00
 86.77     528.00
 86.87     607.00
 86.97     569.24
 87.07     572.00
 87.17     591.00
 87.27     593.00
 87.37     612.86
 87.47     561.20
 87.57     646.08
 87.67     647.90
 87.77     623.77
 87.87     672.00
 87.97     672.00
 88.07     619.38
 88.17     572.02
 88.27     621.00
 88.37     609.00
 88.47     587.00
 88.57     588.00
 88.67     607.00
 88.77     545.71
 88.87     630.00
 88.97     589.00
 89.07     596.73
 89.17     615.40
 89.27     605.00
 89.37     619.00
 89.47     567.95
 89.57     647.00
 89.67     609.00
 89.77     660.29
 89.87     620.00
 89.97     661.42
 90.07     545.00
 90.17     594.00
 90.27     553.00
 90.37     622.30
 90.47     593.00
 90.57     501.00
 90.67     570.00
 90.77     559.00
 90.87     530.00
 90.97     527.00
 91.07     508.00
 91.17     517.63
 91.27     561.54
 91.37     564.96
 91.47     527.00
 91.57     503.64
 91.67     523.00
 91.77     544.50
 91.87     538.41
 91.97     520.00
 92.07     497.08
 92.17     522.56
 92.27     595.56
 92.37     515.00
 92.47     610.64
 92.57     595.00
 92.67     548.71
 92.77     583.80
 92.87     651.00
 92.97     648.00
 93.07     626.00
 93.17     690.00
 93.27     692.00
 93.37     740.00
 93.47     722.55
 93.57     748.00
 93.67     726.00
 93.77     760.00
 93.87     786.00
 93.97     769.00
 94.07     837.00
 94.17     807.00
 94.27     853.28
 94.37     853.00
 94.47     897.53
 94.57     823.00
 94.67     864.58
 94.77     897.00
 94.87     927.82
 94.97     967.91
 95.07     991.00
 95.17     910.00
 95.27     882.00
 95.37     964.00
 95.47     861.00
 95.57     897.00
 95.67     815.00
 95.77     837.00
 95.87     751.52
 95.97     713.00
 96.07     739.79
 96.17     718.00
 96.27     720.42
 96.37     750.00
 96.47     785.82
 96.57     735.00
 96.67     744.00
 96.77     755.34
 96.87     852.00
 96.97     912.00
 97.07     978.61
 97.17     954.00
 97.27    1051.00
 97.37    1108.50
 97.47    1163.00
 97.57    1261.00
 97.67    1327.00
 97.77    1335.00
 97.87    1396.00
 97.97    1382.83
 98.07    1434.00
 98.17    1490.53
 98.27    1489.00
 98.37    1372.00
 98.47    1277.00
 98.57    1227.00
 98.67    1226.00
 98.77    1142.00
 98.87    1046.00
 98.97    1019.00
 99.07    1028.56
 99.17     988.00
 99.27     906.12
 99.37     856.00
 99.47     896.00
 99.57     928.00
 99.67     965.00
 99.77     967.00
 99.87     997.00
 99.97    1126.92
100.07    1072.00
100.17    1286.00
100.27    1326.00
100.37    1436.00
100.47    1466.20
100.57    1648.00
100.67    1646.40
100.77    1785.00
100.87    1921.00
100.97    1943.38
101.07    1973.55
101.17    1965.23
101.27    1988.00
101.37    1965.44
101.47    1934.00
101.57    1953.00
101.67    1741.43
101.77    1767.34
101.87    1767.00
101.97    1569.00
102.07    1482.86
102.17    1446.00
102.27    1412.00
102.37    1342.23
102.47    1358.00
102.57    1271.62
102.67    1189.00
102.77    1208.00
102.87    1164.00
102.97    1200.39
103.07    1126.00
103.17    1055.00
103.27    1126.81
103.37     993.00
103.47    1029.00
103.57     977.00
103.67     909.00
103.77     904.00
103.87     839.00
103.97     849.00
104.07     850.68
104.17     763.00
104.27     774.73
104.37     748.00
104.47     762.00
104.57     586.95
104.67     672.32
104.77     665.00
104.87     626.00
104.97     624.47
105.07     621.00
105.17     574.00
105.27     639.00
105.37     564.00
105.47     625.00
105.57     612.00
105.67     542.00
105.77     586.00
105.87     571.00
105.97     507.12
106.07     571.11
106.17     528.00
106.27     581.00
106.37     574.00
106.47     550.74
106.57     546.00
106.67     570.00
106.77     594.00
106.87     655.00
106.97     645.14
107.07     592.35
107.17     669.00
107.27     640.00
107.37     663.00
107.47     715.05
107.57     714.00
107.67     745.00
107.77     688.00
107.87     687.00
107.97     692.00
108.07     683.92
108.17     700.00
108.27     736.00
108.37     684.00
108.47     688.25
108.57     679.00
108.67     673.20
108.77     698.00
108.87     690.00
108.97     675.00
109.07     683.00
109.17     653.73
109.27     715.00
109.37     726.21
109.47     706.00
109.57     742.72
109.67     715.81
109.77     739.00
109.87     716.63
109.97     711.00
110.07     683.66
110.17     663.79
110.27     653.00
110.37     689.00
110.47     631.89
110.57     643.00
110.67     588.70
110.77     586.52
110.87     638.00
110.97     615.00
111.07     601.00
111.17     544.36
111.27     593.00
111.37     525.71
111.47     579.43
111.57     546.61
111.67     554.00
111.77     538.00
111.87     557.00
111.97     509.40
112.07     580.00
112.17     573.00
112.27     549.00
112.37     576.00
112.47     512.33
112.57     563.00
112.67     646.00
112.77     547.00
112.87     599.00
112.97     635.00
113.07     588.11
113.17     612.33
113.27     589.00
113.37     552.00
113.47     570.44
113.57     636.00
113.67     648.00
113.77     670.00
113.87     649.05
113.97     686.00
114.07     719.00
114.17     737.00
114.27     743.00
114.37     747.00
114.47     827.34
114.57     845.79
114.67     920.00
114.77     991.19
114.87    1084.00
114.97    1179.73
115.07    1243.00
115.17    1396.66
115.27    1544.00
115.37    1806.00
115.47    1847.10
115.57    2191.00
115.67    2521.00
115.77    2729.00
115.87    2916.00
115.97    3362.00
116.07    3647.00
116.17    4039.00
116.27    4273.01
116.37    4747.00
116.47    5016.68
116.57    5502.10
116.67    5919.03
116.77    6186.00
116.87    6399.00
116.97    6707.19
117.07    6879.93
117.17    7026.00
117.27    7094.00
117.37    7055.00
117.47    6950.00
117.57    6672.62
117.67    6594.71
117.77    6128.37
117.87    6026.15
117.97    5537.00
118.07    5421.18
118.17    4932.00
118.27    4593.34
118.37    4230.43
118.47    3846.00
118.57    3512.73
118.67    3238.00
118.77    2803.00
118.87    2540.00
118.97    2258.00
119.07    2032.00
119.17    1851.00
119.27    1800.55
119.37    1529.00
119.47    1374.67
119.57    1306.00
119.67    1254.00
119.77    1122.00
119.87    1025.00
119.97     934.00
120.07     949.86
120.17     810.00
120.27     766.00
120.37     855.00
120.47     764.00
120.57     684.00
120.67     681.00
120.77     687.15
120.87     697.00
120.97     635.00
121.07     629.00
121.17     634.00
121.27     601.21
121.37     600.00
121.47     616.00
121.57     626.00
121.67     585.00
121.77     633.88
121.87     599.00
121.97     637.00
122.07     601.00
122.17     611.72
122.27     627.00
122.37     579.74
122.47     633.28
122.57     634.04
122.67     587.37
122.77     592.00
122.87     597.00
122.97     656.00
123.07     682.36
123.17     604.20
123.27     660.91
123.37     645.00
123.47     658.00
123.57     669.58
123.67     679.00
123.77     653.00
123.87     698.00
123.97     655.97
124.07     670.38
124.17     638.00
124.27     691.00
124.37     588.06
124.47     667.00
124.57     585.19
124.67     613.48
124.77     589.00
124.87     565.98
124.97     648.00
