  9.97     641.94
 10.07     702.00
 10.17     659.00
 10.27     697.00
 10.37     634.00
 10.47     665.00
 10.57     687.00
 10.67     568.87
 10.77     637.00
 10.87     665.08
 10.97     636.79
 11.07     661.92
 11.17     584.52
 11.27     674.00
 11.37     627.00
 11.47     602.00
 11.57     703.00
 11.67     604.88
 11.77     593.64
 11.87     691.37
 11.97     721.00
 12.07     723.00
 12.17     757.00
 12.27     769.00
 12.37     796.87
 12.47     666.39
 12.57     692.49
 12.67     677.00
 12.77     658.00
 12.87     684.02
 12.97     568.00
 13.07     617.00
 13.17     601.00
 13.27     634.00
 13.37     605.00
 13.47     620.00
 13.57     685.37
 13.67     624.45
 13.77     630.00
 13.87     590.00
 13.97     649.00
 14.07     617.00
 14.17     693.65
 14.27     635.79
 14.37     623.00
 14.47     609.00
 14.57     628.00
 14.67     631.71
 14.77     616.00
 14.87     622.00
 14.97     599.00
 15.07     661.00
 15.17     628.00
 15.27     623.00
 15.37     634.52
 15.47     697.90
 15.57     613.00
 15.67     638.00
 15.77     669.66
 15.87     604.13
 15.97     652.79
 16.07     690.03
 16.17     653.17
 16.27     556.00
 16.37     662.89
 16.47     610.00
 16.57     599.00
 16.67     609.00
 16.77     602.00
 16.87     676.69
 16.97     647.00
 17.07     620.83
 17.17     678.21
 17.27     584.00
 17.37     615.93
 17.47     641.35
 17.57     687.52
 17.67     606.00
 17.77     620.00
 17.87     586.97
 17.97     623.00
 18.07     647.00
 18.17     692.71
 18.27     599.29
 18.37     626.00
 18.47     607.18
 18.57     608.00
 18.67     675.09
 18.77     578.00
 18.87     606.00
 18.97     653.00
 19.07     643.00
 19.17     621.00
 19.27     688.47
 19.37     569.00
 19.47     569.00
 19.57     670.52
 19.67     618.27
 19.77     580.05
 19.87     567.00
 19.97     626.00
 20.07     600.00
 20.17     574.00
 20.27     602.00
 20.37     626.00
 20.47     600.00
 20.57     685.04
 20.67     621.00
 20.77     685.80
 20.87     604.00
 20.97     615.00
 21.07     683.99
 21.17     603.00
 21.27     660.00
 21.37     639.89
 21.47     631.00
 21.57     614.00
 21.67     598.00
 21.77     559.00
 21.87     671.88
 21.97     610.00
 22.07     602.00
 22.17     582.00
 22.27     683.92
 22.37     659.95
 22.47     663.10
 22.57     682.03
 22.67     556.00
 22.77     639.00
 22.87     614.00
 22.97     633.28
 23.07     600.00
 23.17     633.00
 23.27     642.38
 23.37     643.38
 23.47     576.71
 23.57     686.29
 23.67     608.00
 23.77     670.00
 23.87     611.00
 23.97     637.00
 24.07     630.24
 24.17     685.24
 24.27     628.00
 24.37     631.92
 24.47     676.00
 24.57     701.66
 24.67     684.39
 24.77     733.26
 24.87     711.00
 24.97     768.97
 25.07     696.00
 25.17     751.00
 25.27     628.40
 25.37     599.47
 25.47     614.25
 25.57     672.00
 25.67     582.65
 25.77     661.68
 25.87     645.86
 25.97     631.00
 26.07     664.69
 26.17     678.00
 26.27     681.60
 26.37     583.42
 26.47     661.00
 26.57     717.00
 26.67     683.01
 26.77     726.00
 26.87     645.00
 26.97     703.00
 27.07     674.96
 27.17     686.14
 27.27     716.00
 27.37     704.00
 27.47     757.00
 27.57     647.25
 27.67     745.00
 27.77     745.00
 27.87     744.00
 27.97     832.00
 28.07     841.00
 28.17     910.00
 28.27    1053.00
 28.37    1047.00
 28.47    1060.00
 28.57     831.54
 28.67     865.94
 28.77     930.00
 28.87     986.00
 28.97     946.00
 29.07     978.00
 29.17     988.00
 29.27     758.78
 29.37     752.68
 29.47     689.66
 29.57     697.68
 29.67     706.00
 29.77     587.51
 29.87     776.00
 29.97     723.00
 30.07     768.00
 30.17     726.00
 30.27     626.40
 30.37     633.50
 30.47     708.00
 30.57     644.00
 30.67     657.51
 30.77     727.00
 30.87     690.00
 30.97     749.00
 31.07     719.00
 31.17     660.52
 31.27     692.03
 31.37     684.00
 31.47     654.00
 31.57     634.00
 31.67     604.00
 31.77     655.00
 31.87     579.00
 31.97     607.00
 32.07     573.71
 32.17     629.00
 32.27     620.00
 32.37     632.00
 32.47     588.00
 32.57     605.88
 32.67     595.00
 32.77     606.00
 32.87     647.22
 32.97     589.00
 33.07     612.00
 33.17     548.75
 33.27     624.00
 33.37     587.00
 33.47     653.06
 33.57     620.00
 33.67     665.09
 33.77     706.00
 33.87     834.88
 33.97     864.75
 34.07     966.00
 34.17    1015.00
 34.27     994.73
 34.37    1012.00
 34.47     899.90
 34.57     825.59
 34.67     732.34
 34.77     661.00
 34.87     633.00
 34.97     573.00
 35.07     568.00
 35.17     627.00
 35.27     596.00
 35.37     645.39
 35.47     534.94
 35.57     551.00
 35.67     546.00
 35.77     531.00
 35.87     599.00
 35.97     527.16
 36.07     574.00
 36.17     566.00
 36.27     534.00
 36.37     552.00
 36.47     577.99
 36.57     529.00
 36.67     520.17
 36.77     551.00
 36.87     578.00
 36.97     541.00
 37.07     613.00
 37.17     516.00
 37.27     524.00
 37.37     534.23
 37.47     548.00
 37.57     599.81
 37.67     573.00
 37.77     564.00
 37.87     620.00
 37.97     565.00
 38.07     579.00
 38.17     528.00
 38.27     549.00
 38.37     561.00
 38.47     604.75
 38.57     561.00
 38.67     600.00
 38.77     567.00
 38.87     611.06
 38.97     560.00
 39.07     605.13
 39.17     519.00
 39.27     506.00
 39.37     590.96
 39.47     554.94
 39.57     529.00
 39.67     567.63
 39.77     559.00
 39.87     536.00
 39.97     499.10
 40.07     537.88
 40.17     548.00
 40.27     542.00
 40.37     534.00
 40.47     516.09
 40.57     535.00
 40.67     537.38
 40.77     531.89
 40.87     562.21
 40.97     552.00
 41.07     523.00
 41.17     577.00
 41.27     501.76
 41.37     511.57
 41.47     520.20
 41.57     526.00
 41.67     549.99
 41.77     558.00
 41.87     513.37
 41.97     516.00
 42.07     587.13
 42.17     613.68
 42.27     561.47
 42.37     524.00
 42.47     550.00
 42.57     624.53
 42.67     600.00
 42.77     606.00
 42.87     687.91
 42.97     603.00
 43.07     653.94
 43.17     570.18
 43.27     652.07
 43.37     529.00
 43.47     577.00
 43.57     553.00
 43.67     548.00
 43.77     546.79
 43.87     493.08
 43.97     531.00
 44.07     560.00
 44.17     539.00
 44.27     516.00
 44.37     539.00
 44.47     527.55
 44.57     541.00
 44.67     519.26
 44.77     541.00
 44.87     573.00
 44.97     494.31
 45.07     552.00
 45.17     560.05
 45.27     543.00
 45.37     566.43
 45.47     524.48
 45.57     547.12
 45.67     561.00
 45.77     517.04
 45.87     553.00
 45.97     553.00
 46.07     521.00
 46.17     501.01
 46.27     566.00
 46.37     568.00
 46.47     506.59
 46.57     555.00
 46.67     529.00
 46.77     489.00
 46.87     588.10
 46.97     557.00
 47.07     524.00
 47.17     572.59
 47.27     531.13
 47.37     575.21
 47.47     524.88
 47.57     567.00
 47.67     564.00
 47.77     597.00
 47.87     597.00
 47.97     666.00
 48.07     613.00
 48.17     590.33
 48.27     618.00
 48.37     579.00
 48.47     616.00
 48.57     550.00
 48.67     565.77
 48.77     610.00
 48.87     600.00
 48.97     616.00
 49.07     613.00
 49.17     560.53
 49.27     589.20
 49.37     578.00
 49.47     684.83
 49.57     627.00
 49.67     707.00
 49.77     897.41
 49.87     923.00
 49.97    1136.00
 50.07    1484.00
 50.17    1869.00
 50.27    2206.00
 50.37    2338.74
 50.47    2264.62
 50.57    2138.00
 50.67    1825.17
 50.77    1594.66
 50.87    1057.00
 50.97     976.00
 51.07     830.00
 51.17     726.05
 51.27     679.65
 51.37     686.00
 51.47     685.00
 51.57     656.00
 51.67     607.00
 51.77     643.36
 51.87     648.00
 51.97     652.00
 52.07     609.00
 52.17     623.00
 52.27     643.00
 52.37     591.00
 52.47     570.52
 52.57     607.00
 52.67     533.16
 52.77     582.00
 52.87     579.18
 52.97     689.00
 53.07     684.00
 53.17     725.00
 53.27     870.24
 53.37     841.22
 53.47    1026.00
 53.57    1093.98
 53.67    1192.00
 53.77    1198.00
 53.87    1228.00
 53.97    1127.00
 54.07    1040.00
 54.17     964.81
 54.27     866.98
 54.37     738.00
 54.47     709.00
 54.57     651.00
 54.67     642.00
 54.77     552.67
 54.87     604.00
 54.97     606.00
 55.07     553.65
 55.17     577.00
 55.27     560.61
 55.37     637.00
 55.47     549.83
 55.57     634.00
 55.67     631.00
 55.77     657.00
 55.87     621.00
 55.97     622.00
 56.07     684.00
 56.17     693.00
 56.27     800.00
 56.37     857.87
 56.47    1020.79
 56.57    1240.59
 56.67    1371.00
 56.77    1829.13
 56.87    2043.29
 56.97    2312.00
 57.07    2432.24
 57.17    2469.11
 57.27    2390.00
 57.37    2190.38
 57.47    1812.00
 57.57    1507.04
 57.67    1326.26
 57.77    1084.25
 57.87     936.00
 57.97     838.00
 58.07     740.00
 58.17     732.00
 58.27     748.00
 58.37     767.50
 58.47     807.00
 58.57     813.71
 58.67     904.31
 58.77     872.85
 58.87    1068.00
 58.97    1075.00
 59.07    1186.00
 59.17    1233.00
 59.27    1230.00
 59.37    1214.00
 59.47    1311.00
 59.57    1284.00
 59.67    1217.00
 59.77    1198.00
 59.87    1248.90
 59.97    1224.00
 60.07    1206.53
 60.17    1367.00
 60.27    1445.00
 60.37    1617.00
 60.47    1576.00
 60.57    1592.00
 60.67    1543.99
 60.77    1340.00
 60.87    1243.00
 60.97    1143.93
 61.07     947.00
 61.17     872.00
 61.27     811.00
 61.37     792.46
 61.47     723.00
 61.57     773.00
 61.67     760.00
 61.77     806.09
 61.87     858.00
 61.97    1019.00
 62.07    1016.00
 62.17    1145.00
 62.27    1341.40
 62.37    1323.00
 62.47    1457.86
 62.57    1344.00
 62.67    1200.81
 62.77    1122.00
 62.87     982.47
 62.97     908.00
 63.07     860.80
 63.17     752.20
 63.27     652.21
 63.37     673.00
 63.47     645.00
 63.57     629.09
 63.67     628.00
 63.77     629.00
 63.87     662.00
 63.97     611.00
 64.07     674.23
 64.17     694.73
 64.27     743.00
 64.37     778.00
 64.47     824.00
 64.57     959.12
 64.67     878.40
 64.77     960.89
 64.87     999.64
 64.97    1081.92
 65.07    1104.00
 65.17    1040.59
 65.27    1009.10
 65.37     885.26
 65.47     800.00
 65.57     775.00
 65.67     763.00
 65.77     726.00
 65.87     664.00
 65.97     653.72
 66.07     652.00
 66.17     606.87
 66.27     650.00
 66.37     601.00
 66.47     621.00
 66.57     665.00
 66.67     623.00
 66.77     629.00
 66.87     591.00
 66.97     642.00
 67.07     600.45
 67.17     723.07
 67.27     748.00
 67.37     733.00
 67.47     858.58
 67.57     932.42
 67.67    1009.56
 67.77    1153.50
 67.87    1500.93
 67.97    1581.00
 68.07    1852.39
 68.17    2086.00
 68.27    2277.00
 68.37    2325.00
 68.47    2343.00
 68.57    2178.00
 68.67    2124.00
 68.77    1851.86
 68.87    1564.90
 68.97    1347.52
 69.07    1219.00
 69.17    1022.86
 69.27     940.32
 69.37     777.00
 69.47     704.12
 69.57     734.00
 69.67     643.00
 69.77     601.15
 69.87     678.00
 69.97     648.00
 70.07     603.00
 70.17     627.00
 70.27     634.00
 70.37     642.00
 70.47     628.00
 70.57     586.02
 70.67     613.61
 70.77     591.31
 70.87     659.00
 70.97     681.73
 71.07     665.00
 71.17     638.00
 71.27     712.00
 71.37     783.00
 71.47     826.00
 71.57     907.02
 71.67    1077.23
 71.77    1102.00
 71.87    1362.12
 71.97    1470.00
 72.07    1564.00
 72.17    1656.93
 72.27    1894.35
 72.37    1906.00
 72.47    1781.99
 72.57    1817.60
 72.67    1532.16
 72.77    1509.00
 72.87    1371.00
 72.97    1216.00
 73.07    1066.00
 73.17     962.00
 73.27     861.00
 73.37     808.00
 73.47     732.00
 73.57     713.00
 73.67     682.17
 73.77     698.00
 73.87     615.83
 73.97     655.63
 74.07     606.00
 74.17     567.00
 74.27     611.89
 74.37     642.00
 74.47     560.74
 74.57     546.57
 74.67     623.66
 74.77     624.00
 74.87     573.13
 74.97     640.00
 75.07     537.70
 75.17     627.00
 75.27     647.00
 75.37     518.55
 75.47     645.00
 75.57     631.30
 75.67     605.00
 75.77     540.92
 75.87     611.00
 75.97     611.00
 76.07     661.00
 76.17     668.00
 76.27     610.53
 76.37     663.00
 76.47     726.55
 76.57     706.47
 76.67     665.00
 76.77     750.00
 76.87     715.00
 76.97     693.00
 77.07     747.00
 77.17     650.17
 77.27     691.00
 77.37     655.00
 77.47     680.00
 77.57     628.90
 77.67     643.73
 77.77     599.00
 77.87     555.00
 77.97     592.00
 78.07     589.59
 78.17     537.00
 78.27     552.00
 78.37     528.51
 78.47     533.00
 78.57     493.48
 78.67     579.00
 78.77     557.00
 78.87     564.00
 78.97     526.00
 79.07     558.00
 79.17     534.00
 79.27     533.64
 79.37     497.08
 79.47     496.00
 79.57     574.05
 79.67     539.00
 79.77     531.01
 79.87     538.00
 79.97     621.00
 80.07     599.88
 80.17     603.27
 80.27     526.98
 80.37     572.00
 80.47     606.44
 80.57     598.00
 80.67     655.00
 80.77     631.96
 80.87     649.02
 80.97     684.24
 81.07     711.00
 81.17     652.00
 81.27     660.00
 81.37     707.00
 81.47     754.71
 81.57     754.00
 81.67     739.00
 81.77     727.00
 81.87     756.00
 81.97     737.00
 82.07     753.52
 82.17     800.58
 82.27     731.00
 82.37     745.69
 82.47     685.00
 82.57     688.00
 82.67     663.23
 82.77     661.00
 82.87     586.48
 82.97     677.94
 83.07     607.00
 83.17     612.00
 83.27     635.38
 83.37     646.80
 83.47     591.12
 83.57     557.03
 83.67     576.85
 83.77     586.00
 83.87     575.00
 83.97     567.00
 84.07     606.00
 84.17     573.00
 84.27     639.95
 84.37     594.15
 84.47     562.00
 84.57     583.00
 84.67     585.16
 84.77     566.00
 84.87     604.00
 84.97     551.00
 85.07     598.00
 85.17     565.77
 85.27     595.50
 85.37     529.00
 85.47     574.00
 85.57     563.00
 85.67     517.00
 85.77     583.80
 85.87     547.00
 85.97     546.00
 86.07     546.00
 86.17     523.00
 86.27     553.00
 86.37     554.93
 86.47     499.00
 86.57     596.59
 86.67     586.81
 86.77     576.88
 86.87     611.00
 86.97     595.31
 87.07     578.00
 87.17     573.00
 87.27     611.00
 87.37     656.00
 87.47     598.00
 87.57     676.17
 87.67     626.45
 87.77     673.00
 87.87     635.00
 87.97     646.95
 88.07     659.00
 88.17     694.07
 88.27     650.91
 88.37     633.63
 88.47     573.16
 88.57     629.00
 88.67     606.00
 88.77     643.24
 88.87     562.20
 88.97     554.29
 89.07     562.00
 89.17     572.00
 89.27     650.24
 89.37     631.79
 89.47     660.00
 89.57     629.00
 89.67     648.00
 89.77     666.12
 89.87     623.00
 89.97     596.00
 90.07     626.00
 90.17     648.39
 90.27     600.00
 90.37     586.00
 90.47     567.00
 90.57     561.48
 90.67     537.00
 90.77     516.88
 90.87     551.25
 90.97     577.00
 91.07     520.73
 91.17     566.73
 91.27     524.00
 91.37     537.00
 91.47     540.00
 91.57     573.25
 91.67     514.63
 91.77     501.00
 91.87     565.00
 91.97     539.00
 92.07     532.00
 92.17     543.66
 92.27     515.00
 92.37     518.00
 92.47     579.00
 92.57     559.00
 92.67     574.00
 92.77     612.00
 92.87     601.00
 92.97     652.00
 93.07     616.00
 93.17     613.00
 93.27     694.00
 93.37     715.00
 93.47     726.97
 93.57     761.45
 93.67     767.00
 93.77     765.00
 93.87     812.00
 93.97     837.00
 94.07     808.00
 94.17     844.00
 94.27     863.00
 94.37     877.00
 94.47     882.00
 94.57     876.00
 94.67     917.00
 94.77     916.00
 94.87     909.00
 94.97     968.00
 95.07     896.00
 95.17     934.00
 95.27     976.04
 95.37     899.00
 95.47     933.00
 95.57     879.00
 95.67     875.00
 95.77     778.00
 95.87     829.00
 95.97     786.54
 96.07     722.42
 96.17     728.00
 96.27     789.00
 96.37     745.00
 96.47     748.00
 96.57     824.20
 96.67     775.00
 96.77     797.00
 96.87     852.28
 96.97     914.91
 97.07     945.00
 97.17     989.73
 97.27    1074.00
 97.37    1200.62
 97.47    1145.53
 97.57    1276.00
 97.67    1383.15
 97.77    1457.00
 97.87    1429.00
 97.97    1443.00
 98.07    1483.00
 98.17    1488.00
 98.27    1439.48
 98.37    1364.90
 98.47    1422.00
 98.57    1256.22
 98.67    1263.00
 98.77    1163.55
 98.87    1082.00
 98.97    1062.00
 99.07     969.00
 99.17     966.00
 99.27     962.00
 99.37     928.00
 99.47     901.00
 99.57     923.00
 99.67     986.00
 99.77     989.00
 99.87    1018.00
 99.97    1153.96
100.07    1177.00
100.17    1297.00
100.27    1265.00
100.37    1429.00
100.47    1556.35
100.57    1526.00
100.67    1580.02
100.77    1818.00
100.87    1848.00
100.97    1963.33
101.07    2063.00
101.17    1994.00
101.27    2040.00
101.37    1977.00
101.47    2031.00
101.57    1956.00
101.67    1867.00
101.77    1847.75
101.87    1669.98
101.97    1693.70
102.07    1572.00
102.17    1453.00
102.27    1473.00
102.37    1376.00
102.47    1356.00
102.57    1356.17
102.67    1313.00
102.77    1194.00
102.87    1202.67
102.97    1195.00
103.07    1175.36
103.17    1088.00
103.27    1124.00
103.37    1145.00
103.47    1065.92
103.57    1026.00
103.67     957.00
103.77     906.00
103.87     959.45
103.97     909.00
104.07     864.00
104.17     726.07
104.27     752.00
104.37     743.99
104.47     756.00
104.57     667.00
104.67     681.00
104.77     606.16
104.87     638.00
104.97     601.00
105.07     593.00
105.17     595.38
105.27     576.00
105.37     592.00
105.47     604.55
105.57     586.00
105.67     588.00
105.77     619.67
105.87     561.00
105.97     587.00
106.07     581.00
106.17     614.57
106.27     572.54
106.37     649.00
106.47     587.00
106.57     629.00
106.67     640.00
106.77     624.00
106.87     622.12
106.97     683.00
107.07     622.00
107.17     642.00
107.27     623.31
107.37     656.47
107.47     679.00
107.57     722.00
107.67     749.00
107.77     706.68
107.87     767.20
107.97     717.00
108.07     703.56
108.17     721.46
108.27     739.00
108.37     760.00
108.47     696.51
108.57     742.00
108.67     645.00
108.77     690.00
108.87     686.30
108.97     692.58
109.07     709.00
109.17     742.76
109.27     743.08
109.37     740.67
109.47     705.00
109.57     780.50
109.67     777.00
109.77     700.00
109.87     725.00
109.97     645.15
110.07     730.71
110.17     701.00
110.27     612.94
110.37     650.07
110.47     658.80
110.57     606.00
110.67     657.00
110.77     643.00
110.87     593.00
110.97     559.00
111.07     557.88
111.17     637.05
111.27     609.00
111.37     619.00
111.47     569.00
111.57     518.92
111.67     581.00
111.77     576.00
111.87     576.19
111.97     565.19
112.07     603.00
112.17     563.00
112.27     606.00
112.37     570.43
112.47     624.43
112.57     551.00
112.67     613.00
112.77     589.00
112.87     563.00
112.97     574.00
113.07     578.00
113.17     541.43
113.27     608.00
113.37     567.49
113.47     630.87
113.57     624.00
113.67     644.77
113.77     589.33
113.87     668.00
113.97     656.00
114.07     649.00
114.17     699.00
114.27     700.00
114.37     781.00
114.47     765.00
114.57     858.00
114.67     784.00
114.77     901.00
114.87     998.00
114.97    1136.64
115.07    1270.56
115.17    1314.00
115.27    1538.00
115.37    1681.16
115.47    1851.00
115.57    1952.49
115.67    2289.00
115.77    2647.00
115.87    2866.00
115.97    3238.00
116.07    3517.89
116.17    3978.00
116.27    4164.00
116.37    4664.00
116.47    5057.58
116.57    5414.61
116.67    5712.00
116.77    6268.00
116.87    6147.00
116.97    6416.34
117.07    6850.00
117.17    7139.88
117.27    6970.00
117.37    7138.00
117.47    7121.41
117.57    6798.82
117.67    6646.00
117.77    6381.30
117.87    5929.00
117.97    5775.22
118.07    5595.64
118.17    5208.00
118.27    4734.00
118.37    4565.00
118.47    4167.59
118.57    3826.00
118.67    3445.00
118.77    3199.69
118.87    2718.00
118.97    2546.00
119.07    2338.00
119.17    2009.00
119.27    1832.00
119.37    1656.00
119.47    1571.00
119.57    1354.92
119.67    1252.88
119.77    1182.00
119.87    1115.00
119.97    1000.00
120.07     975.00
120.17     921.00
120.27     867.00
120.37     769.00
120.47     854.74
120.57     815.88
120.67     708.70
120.77     664.58
120.87     761.00
120.97     711.00
121.07     619.00
121.17     686.00
121.27     649.00
121.37     675.70
121.47     602.00
121.57     587.00
121.67     632.41
121.77     630.00
121.87     596.12
121.97     596.00
122.07     572.77
122.17     652.00
122.27     651.00
122.37     640.00
122.47     611.00
122.57     657.00
122.67     676.00
122.77     656.00
122.87     684.00
122.97     613.93
123.07     653.00
123.17     651.00
123.27     656.00
123.37     668.00
123.47     658.00
123.57     700.72
123.67     707.00
123.77     699.00
123.87     677.81
123.97     622.88
124.07     688.42
124.17     638.00
124.27     668.32
124.37     671.10
124.47     662.95
124.57     664.00
124.67     616.00
124.77     589.73
124.87     632.96
124.97     642.00
