  9.97     612.00
 10.07     631.00
 10.17     624.99
 10.27     614.93
 10.37     626.00
 10.47     613.52
 10.57     580.00
 10.67     621.00
 10.77     669.00
 10.87     709.00
 10.97     611.50
 11.07     599.03
 11.17     590.09
 11.27     655.00
 11.37     614.66
 11.47     632.00
 11.57     676.00
 11.67     562.05
 11.77     577.11
 11.87     695.00
 11.97     618.33
 12.07     684.07
 12.17     740.00
 12.27     758.00
 12.37     755.48
 12.47     682.91
 12.57     659.00
 12.67     673.56
 12.77     582.00
 12.87     676.05
 12.97     526.00
 13.07     615.00
 13.17     585.00
 13.27     623.00
 13.37     604.88
 13.47     596.00
 13.57     624.00
 13.67     666.04
 13.77     652.00
 13.87     609.00
 13.97     596.00
 14.07     588.00
 14.17     598.00
 14.27     570.00
 14.37     643.00
 14.47     589.58
 14.57     567.00
 14.67     585.00
 14.77     659.17
 14.87     629.00
 14.97     574.00
 15.07     559.65
 15.17     548.00
 15.27     560.00
 15.37     599.00
 15.47     557.00
 15.57     638.29
 15.67     615.00
 15.77     615.00
 15.87     629.00
 15.97     583.00
 16.07     596.00
 16.17     618.00
 16.27     602.00
 16.37     568.00
 16.47     595.00
 16.57     630.00
 16.67     576.00
 16.77     623.17
 16.87     588.00
 16.97     578.00
 17.07     669.29
 17.17     613.00
 17.27     595.90
 17.37     625.00
 17.47     617.33
 17.57     604.00
 17.67     585.00
 17.77     599.00
 17.87     625.77
 17.97     624.13
 18.07     609.00
 18.17     577.00
 18.27     600.35
 18.37     549.00
 18.47     617.00
 18.57     615.16
 18.67     601.31
 18.77     624.00
 18.87     561.00
 18.97     619.35
 19.07     655.00
 19.17     644.14
 19.27     633.97
 19.37     567.00
 19.47     597.00
 19.57     561.00
 19.67     606.00
 19.77     553.00
 19.87     596.00
 19.97     573.00
 20.07     590.00
 20.17     574.00
 20.27     598.00
 20.37     649.27
 20.47     589.00
 20.57     639.18
 20.67     621.00
 20.77     578.00
 20.87     588.00
 20.97     639.70
 21.07     578.00
 21.17     564.00
 21.27     585.00
 21.37     606.00
 21.47     593.00
 21.57     574.00
 21.67     589.00
 21.77     619.00
 21.87     561.31
 21.97     570.00
 22.07     640.33
 22.17     595.00
 22.27     624.94
 22.37     598.57
 22.47     555.62
 22.57     657.69
 22.67     622.00
 22.77     608.00
 22.87     607.00
 22.97     641.00
 23.07     578.00
 23.17     593.42
 23.27     600.00
 23.37     596.00
 23.47     638.53
 23.57     556.28
 23.67     584.00
 23.77     622.00
 23.87     646.24
 23.97     553.16
 24.07     633.00
 24.17     593.00
 24.27     647.00
 24.37     618.51
 24.47     668.42
 24.57     634.00
 24.67     716.00
 24.77     696.10
 24.87     656.80
 24.97     726.00
 25.07     678.00
 25.17     668.74
 25.27     665.00
 25.37     580.00
 25.47     677.00
 25.57     597.63
 25.67     604.00
 25.77     570.15
 25.87     649.97
 25.97     601.00
 26.07     626.00
 26.17     609.86
 26.27     642.32
 26.37     624.00
 26.47     634.53
 26.57     562.37
 26.67     608.24
 26.77     613.00
 26.87     641.98
 26.97     639.00
 27.07     674.00
 27.17     667.00
 27.27     656.00
 27.37     695.00
 27.47     598.46
 27.57     565.10
 27.67     674.39
 27.77     682.00
 27.87     708.00
 27.97     726.00
 28.07     814.00
 28.17     825.02
 28.27     957.00
 28.37     971.00
 28.47     967.00
 28.57     857.00
 28.67     793.00
 28.77     801.00
 28.87     889.00
 28.97     800.53
 29.07     973.00
 29.17     937.00
 29.27     756.99
 29.37     672.43
 29.47     685.52
 29.57     712.00
 29.67     668.00
 29.77     643.00
 29.87     697.00
 29.97     693.00
 30.07     674.00
 30.17     655.00
 30.27     532.36
 30.37     667.00
 30.47     550.92
 30.57     630.00
 30.67     630.00
 30.77     689.00
 30.87     655.00
 30.97     703.00
 31.07     701.84
 31.17     689.00
 31.27     684.90
 31.37     665.00
 31.47     614.03
 31.57     623.00
 31.67     610.00
 31.77     547.40
 31.87     593.00
 31.97     592.00
 32.07     596.32
 32.17     580.62
 32.27     586.00
 32.37     572.00
 32.47     597.00
 32.57     576.00
 32.67     583.00
 32.77     607.00
 32.87     577.00
 32.97     619.00
 33.07     640.00
 33.17     565.27
 33.27     600.98
 33.37     608.00
 33.47     618.61
 33.57     610.72
 33.67     716.11
 33.77     693.00
 33.87     756.00
 33.97     883.00
 34.07     927.00
 34.17    1040.00
 34.27    1068.73
 34.37     931.00
 34.47     907.90
 34.57     797.74
 34.67     661.00
 34.77     653.45
 34.87     587.52
 34.97     625.00
 35.07     584.00
 35.17     554.00
 35.27     585.00
 35.37     539.16
 35.47     539.42
 35.57     599.51
 35.67     573.00
 35.77     533.53
 35.87     554.00
 35.97     486.00
 36.07     562.85
 36.17     561.90
 36.27     565.00
 36.37     511.40
 36.47     498.00
 36.57     573.00
 36.67     531.00
 36.77     507.00
 36.87     508.80
 36.97     596.88
 37.07     491.00
 37.17     563.35
 37.27     502.77
 37.37     575.00
 37.47     593.25
 37.57     505.00
 37.67     549.00
 37.77     559.00
 37.87     559.04
 37.97     501.00
 38.07     572.74
 38.17     522.00
 38.27     597.20
 38.37     524.00
 38.47     500.35
 38.57     542.01
 38.67     490.00
 38.77     485.00
 38.87     478.00
 38.97     515.00
 39.07     552.00
 39.17     503.00
 39.27     498.74
 39.37     565.24
 39.47     540.00
 39.57     509.00
 39.67     512.00
 39.77     576.17
 39.87     502.55
 39.97     481.00
 40.07     516.00
 40.17     529.00
 40.27     537.06
 40.37     556.43
 40.47     538.40
 40.57     555.48
 40.67     514.00
 40.77     483.09
 40.87     591.00
 40.97     516.00
 41.07     546.24
 41.17     498.00
 41.27     494.00
 41.37     567.52
 41.47     524.00
 41.57     514.00
 41.67     523.00
 41.77     497.00
 41.87     498.57
 41.97     515.00
 42.07     509.00
 42.17     490.00
 42.27     543.00
 42.37     534.35
 42.47     558.00
 42.57     590.70
 42.67     564.00
 42.77     602.00
 42.87     660.78
 42.97     571.00
 43.07     612.00
 43.17     605.22
 43.27     577.00
 43.37     529.00
 43.47     525.75
 43.57     502.90
 43.67     524.00
 43.77     532.00
 43.87     480.17
 43.97     525.85
 44.07     505.00
 44.17     505.00
 44.27     484.00
 44.37     570.62
 44.47     524.14
 44.57     535.63
 44.67     525.00
 44.77     500.00
 44.87     502.23
 44.97     537.00
 45.07     515.00
 45.17     510.00
 45.27     537.00
 45.37     522.00
 45.47     479.03
 45.57     559.00
 45.67     477.60
 45.77     521.07
 45.87     546.00
 45.97     549.00
 46.07     484.94
 46.17     521.00
 46.27     502.00
 46.37     552.78
 46.47     520.00
 46.57     472.42
 46.67     544.24
 46.77     574.79
 46.87     526.00
 46.97     524.07
 47.07     549.40
 47.17     532.00
 47.27     579.00
 47.37     572.37
 47.47     573.00
 47.57     508.30
 47.67     577.00
 47.77     601.00
 47.87     601.21
 47.97     633.00
 48.07     614.00
 48.17     610.00
 48.27     594.00
 48.37     589.81
 48.47     587.66
 48.57     581.00
 48.67     549.00
 48.77     585.00
 48.87     584.65
 48.97     564.00
 49.07     521.00
 49.17     522.35
 49.27     567.00
 49.37     607.01
 49.47     622.00
 49.57     601.96
 49.67     651.00
 49.77     810.00
 49.87     912.00
 49.97    1266.00
 50.07    1544.00
 50.17    1902.00
 50.27    2164.00
 50.37    2353.00
 50.47    2324.00
 50.57    2124.00
 50.67    1705.53
 50.77    1355.00
 50.87    1096.00
 50.97     895.85
 51.07     793.00
 51.17     737.00
 51.27     673.00
 51.37     635.00
 51.47     661.00
 51.57     615.00
 51.67     565.00
 51.77     545.95
 51.87     576.00
 51.97     594.00
 52.07     528.56
 52.17     613.41
 52.27     591.12
 52.37     565.00
 52.47     614.65
 52.57     588.00
 52.67     557.00
 52.77     666.00
 52.87     592.00
 52.97     585.71
 53.07     698.11
 53.17     791.49
 53.27     772.00
 53.37     917.23
 53.47    1029.00
 53.57    1113.14
 53.67    1155.29
 53.77    1223.00
 53.87    1163.00
 53.97    1081.00
 54.07     933.00
 54.17     836.73
 54.27     815.00
 54.37     739.00
 54.47     609.52
 54.57     633.00
 54.67     584.00
 54.77     566.00
 54.87     590.00
 54.97     544.00
 55.07     607.00
 55.17     631.70
 55.27     577.00
 55.37     573.00
 55.47     622.64
 55.57     611.00
 55.67     616.00
 55.77     688.00
 55.87     631.00
 55.97     642.00
 56.07     701.00
 56.17     693.00
 56.27     770.00
 56.37     970.46
 56.47     913.00
 56.57    1162.00
 56.67    1416.00
 56.77    1762.00
 56.87    2074.80
 56.97    2427.38
 57.07    2536.00
 57.17    2609.00
 57.27    2321.00
 57.37    2093.00
 57.47    1723.92
 57.57    1431.78
 57.67    1223.00
 57.77    1115.18
 57.87     868.89
 57.97     822.61
 58.07     755.00
 58.17     795.00
 58.27     777.08
 58.37     765.00
 58.47     782.75
 58.57     791.00
 58.67     797.24
 58.77     900.70
 58.87    1020.00
 58.97    1032.76
 59.07    1185.00
 59.17    1243.36
 59.27    1167.91
 59.37    1278.61
 59.47    1225.13
 59.57    1165.00
 59.67    1115.78
 59.77    1199.00
 59.87    1076.13
 59.97    1222.00
 60.07    1180.09
 60.17    1363.00
 60.27    1508.00
 60.37    1474.26
 60.47    1623.00
 60.57    1495.00
 60.67    1479.00
 60.77    1309.00
 60.87    1208.00
 60.97    1017.50
 61.07     948.62
 61.17     785.49
 61.27     781.00
 61.37     674.18
 61.47     764.69
 61.57     729.00
 61.67     764.00
 61.77     837.00
 61.87     863.68
 61.97     960.00
 62.07    1096.00
 62.17    1199.00
 62.27    1298.33
 62.37    1385.27
 62.47    1290.20
 62.57    1315.47
 62.67    1243.20
 62.77    1104.11
 62.87     956.00
 62.97     840.00
 63.07     800.61
 63.17     734.99
 63.27     736.30
 63.37     634.00
 63.47     596.47
 63.57     568.61
 63.67     626.00
 63.77     635.00
 63.87     600.00
 63.97     630.17
 64.07     602.03
 64.17     711.00
 64.27     680.00
 64.37     861.00
 64.47     865.00
 64.57     894.00
 64.67     997.93
 64.77     939.37
 64.87    1040.00
 64.97    1047.00
 65.07    1050.00
 65.17    1002.00
 65.27     983.51
 65.37     848.00
 65.47     774.82
 65.57     812.00
 65.67     709.00
 65.77     652.00
 65.87     635.54
 65.97     616.00
 66.07     641.00
 66.17     668.04
 66.27     603.00
 66.37     632.42
 66.47     549.77
 66.57     610.00
 66.67     593.00
 66.77     619.00
 66.87     598.00
 66.97     632.69
 67.07     577.00
 67.17     650.00
 67.27     705.59
 67.37     672.00
 67.47     846.05
 67.57     914.49
 67.67    1047.71
 67.77    1288.00
 67.87    1400.00
 67.97    1608.00
 68.07    1906.00
 68.17    2231.61
 68.27    2296.00
 68.37    2430.00
 68.47    2275.00
 68.57    2131.00
 68.67    2105.00
 68.77    1807.00
 68.87    1526.00
 68.97    1344.00
 69.07    1123.00
 69.17     932.00
 69.27     854.00
 69.37     765.94
 69.47     726.74
 69.57     741.60
 69.67     663.00
 69.77     579.99
 69.87     652.00
 69.97     614.00
 70.07     658.92
 70.17     590.02
 70.27     621.00
 70.37     637.00
 70.47     581.00
 70.57     619.00
 70.67     559.85
 70.77     594.94
 70.87     609.00
 70.97     618.00
 71.07     610.00
 71.17     705.00
 71.27     707.00
 71.37     683.00
 71.47     838.00
 71.57     912.00
 71.67    1012.00
 71.77    1234.36
 71.87    1309.44
 71.97    1575.98
 72.07    1660.00
 72.17    1798.00
 72.27    1897.49
 72.37    1860.00
 72.47    1819.00
 72.57    1704.72
 72.67    1610.40
 72.77    1466.00
 72.87    1280.64
 72.97    1116.72
 73.07    1004.00
 73.17     850.00
 73.27     824.00
 73.37     716.42
 73.47     624.72
 73.57     739.00
 73.67     641.99
 73.77     670.00
 73.87     614.42
 73.97     641.18
 74.07     567.63
 74.17     569.00
 74.27     680.00
 74.37     632.00
 74.47     564.41
 74.57     590.07
 74.67     620.89
 74.77     569.62
 74.87     596.53
 74.97     627.00
 75.07     641.00
 75.17     669.00
 75.27     636.00
 75.37     656.00
 75.47     637.00
 75.57     523.99
 75.67     577.00
 75.77     582.62
 75.87     590.00
 75.97     590.00
 76.07     575.16
 76.17     550.52
 76.27     671.05
 76.37     668.00
 76.47     652.13
 76.57     635.04
 76.67     704.00
 76.77     729.00
 76.87     693.00
 76.97     730.00
 77.07     688.00
 77.17     697.88
 77.27     644.98
 77.37     627.37
 77.47     645.93
 77.57     557.00
 77.67     546.00
 77.77     567.00
 77.87     560.00
 77.97     598.81
 78.07     597.88
 78.17     570.00
 78.27     544.00
 78.37     481.00
 78.47     551.00
 78.57     548.76
 78.67     529.00
 78.77     540.00
 78.87     537.00
 78.97     546.00
 79.07     507.46
 79.17     538.00
 79.27     540.00
 79.37     528.00
 79.47     529.00
 79.57     501.87
 79.67     558.00
 79.77     559.00
 79.87     553.01
 79.97     523.00
 80.07     561.00
 80.17     539.62
 80.27     541.22
 80.37     606.65
 80.47     556.00
 80.57     532.38
 80.67     614.19
 80.77     578.60
 80.87     604.00
 80.97     623.00
 81.07     646.86
 81.17     714.00
 81.27     690.00
 81.37     731.00
 81.47     751.00
 81.57     767.41
 81.67     793.80
 81.77     739.00
 81.87     790.00
 81.97     768.00
 82.07     754.92
 82.17     748.00
 82.27     717.00
 82.37     703.00
 82.47     682.00
 82.57     629.30
 82.67     654.34
 82.77     622.00
 82.87     582.00
 82.97     609.09
 83.07     563.00
 83.17     557.00
 83.27     598.00
 83.37     611.49
 83.47     534.00
 83.57     554.19
 83.67     621.20
 83.77     551.00
 83.87     548.00
 83.97     523.00
 84.07     593.00
 84.17     585.93
 84.27     590.66
 84.37     585.07
 84.47     598.00
 84.57     551.18
 84.67     511.00
 84.77     537.00
 84.87     536.00
 84.97     537.00
 85.07     550.00
 85.17     530.00
 85.27     545.00
 85.37     565.48
 85.47     539.98
 85.57     541.00
 85.67     539.00
 85.77     573.00
 85.87     485.27
 85.97     563.00
 86.07     533.20
 86.17     556.00
 86.27     536.00
 86.37     560.00
 86.47     550.00
 86.57     516.00
 86.67     547.00
 86.77     577.84
 86.87     526.74
 86.97     565.00
 87.07     580.25
 87.17     554.00
 87.27     598.00
 87.37     561.75
 87.47     661.06
 87.57     630.00
 87.67     688.00
 87.77     641.00
 87.87     650.00
 87.97     617.00
 88.07     589.24
 88.17     610.00
 88.27     675.50
 88.37     628.85
 88.47     579.00
 88.57     626.00
 88.67     635.66
 88.77     543.37
 88.87     569.00
 88.97     557.00
 89.07     569.05
 89.17     553.48
 89.27     606.00
 89.37     568.04
 89.47     620.00
 89.57     560.97
 89.67     646.00
 89.77     662.75
 89.87     595.00
 89.97     576.66
 90.07     631.50
 90.17     589.00
 90.27     573.00
 90.37     620.15
 90.47     571.00
 90.57     555.00
 90.67     548.00
 90.77     510.00
 90.87     548.00
 90.97     578.19
 91.07     579.00
 91.17     535.00
 91.27     510.00
 91.37     500.00
 91.47     583.33
 91.57     552.00
 91.67     569.84
 91.77     512.00
 91.87     538.86
 91.97     538.72
 92.07     520.08
 92.17     516.50
 92.27     516.00
 92.37     594.94
 92.47     598.35
 92.57     574.00
 92.67     577.00
 92.77     637.00
 92.87     613.00
 92.97     647.00
 93.07     628.00
 93.17     701.88
 93.27     670.00
 93.37     692.49
 93.47     735.00
 93.57     767.00
 93.67     702.00
 93.77     733.00
 93.87     800.00
 93.97     821.83
 94.07     751.32
 94.17     838.00
 94.27     830.00
 94.37     861.00
 94.47     814.00
 94.57     887.00
 94.67     823.74
 94.77     896.00
 94.87     842.53
 94.97     919.00
 95.07     843.05
 95.17     908.41
 95.27     932.00
 95.37     920.00
 95.47     897.00
 95.57     848.00
 95.67     826.00
 95.77     834.00
 95.87     790.00
 95.97     775.00
 96.07     701.68
 96.17     729.84
 96.27     794.49
 96.37     742.75
 96.47     715.00
 96.57     698.02
 96.67     774.00
 96.77     875.67
 96.87     798.27
 96.97     889.00
 97.07     894.04
 97.17    1026.00
 97.27    1068.90
 97.37    1120.00
 97.47    1279.00
 97.57    1281.65
 97.67    1288.00
 97.77    1360.00
 97.87    1468.00
 97.97    1472.00
 98.07    1481.38
 98.17    1422.00
 98.27    1384.85
 98.37    1363.00
 98.47    1285.66
 98.57    1292.00
 98.67    1169.00
 98.77    1083.69
 98.87    1065.00
 98.97    1046.00
 99.07     989.70
 99.17     937.00
 99.27     931.00
 99.37     906.00
 99.47     916.00
 99.57     954.10
 99.67     903.00
 99.77    1029.98
 99.87    1091.00
 99.97    1111.00
100.07    1174.00
100.17    1302.03
100.27    1401.14
100.37    1454.00
100.47    1593.00
100.57    1594.57
100.67    1715.00
100.77    1819.00
100.87    1874.00
100.97    1946.00
101.07    1963.00
101.17    2030.00
101.27    1980.00
101.37    1986.00
101.47    1978.00
101.57    1880.00
101.67    1862.00
101.77    1800.92
101.87    1737.00
101.97    1636.00
102.07    1582.00
102.17    1435.06
102.27    1425.00
102.37    1394.00
102.47    1335.00
102.57    1205.00
102.67    1235.47
102.77    1227.09
102.87    1271.39
102.97    1194.00
103.07    1156.00
103.17    1051.00
103.27    1063.00
103.37    1074.00
103.47    1044.00
103.57    1003.00
103.67     901.43
103.77     941.00
103.87     892.00
103.97     781.18
104.07     759.82
104.17     751.40
104.27     766.00
104.37     683.63
104.47     635.04
104.57     659.00
104.67     651.00
104.77     599.82
104.87     589.00
104.97     624.00
105.07     610.00
105.17     600.00
105.27     565.00
105.37     563.00
105.47     572.00
105.57     549.00
105.67     506.20
105.77     577.00
105.87     593.00
105.97     587.00
106.07     558.00
106.17     540.00
106.27     564.00
106.37     591.00
106.47     591.00
106.57     615.66
106.67     645.09
106.77     630.73
106.87     607.00
106.97     664.00
107.07     663.60
107.17     628.00
107.27     665.00
107.37     676.00
107.47     730.74
107.57     740.49
107.67     709.00
107.77     669.00
107.87     721.99
107.97     683.00
108.07     692.00
108.17     759.15
108.27     703.00
108.37     678.00
108.47     686.19
108.57     678.00
108.67     695.53
108.77     716.00
108.87     711.00
108.97     674.00
109.07     669.78
109.17     676.00
109.27     702.73
109.37     677.00
109.47     729.00
109.57     697.00
109.67     739.61
109.77     670.24
109.87     672.00
109.97     682.00
110.07     637.91
110.17     653.00
110.27     710.45
110.37     682.36
110.47     645.00
110.57     617.00
110.67     629.51
110.77     624.00
110.87     602.00
110.97     555.92
111.07     559.00
111.17     567.00
111.27     578.37
111.37     605.79
111.47     559.84
111.57     600.00
111.67     520.85
111.77     585.35
111.87     592.00
111.97     581.00
112.07     557.00
112.17     546.00
112.27     566.00
112.37     577.00
112.47     554.00
112.57     578.38
112.67     544.92
112.77     584.00
112.87     629.00
112.97     585.00
113.07     591.46
113.17     621.83
113.27     634.28
113.37     546.13
113.47     586.00
113.57     619.00
113.67     679.23
113.77     614.00
113.87     637.67
113.97     676.00
114.07     664.28
114.17     671.09
114.27     695.48
114.37     763.00
114.47     774.58
114.57     858.00
114.67     864.00
114.77     897.84
114.87    1010.92
114.97    1175.00
115.07    1289.00
115.17    1366.00
115.27    1503.73
115.37    1644.23
115.47    2017.00
115.57    2193.77
115.67    2458.00
115.77    2831.00
115.87    3086.00
115.97    3340.00
116.07    3789.00
116.17    3940.82
116.27    4273.92
116.37    4764.00
116.47    5198.00
116.57    5523.00
116.67    5863.17
116.77    6257.00
116.87    6567.46
116.97    6697.00
117.07    6744.00
117.17    6894.00
117.27    7059.12
117.37    7000.00
117.47    6739.50
117.57    6642.00
117.67    6464.00
117.77    6171.00
117.87    5777.44
117.97    5469.00
118.07    5111.00
118.17    4931.09
118.27    4489.00
118.37    4123.00
118.47    3957.00
118.57    3440.00
118.67    3268.67
118.77    2811.00
118.87    2605.00
118.97    2312.00
119.07    2028.00
119.17    1850.74
119.27    1639.00
119.37    1467.00
119.47    1368.59
119.57    1239.78
119.67    1144.00
119.77    1046.52
119.87    1058.29
119.97     993.00
120.07     953.74
120.17     913.84
120.27     864.13
120.37     764.00
120.47     726.74
120.57     753.00
120.67     668.00
120.77     704.31
120.87     723.81
120.97     610.25
121.07     609.00
121.17     636.00
121.27     629.00
121.37     662.00
121.47     584.00
121.57     660.57
121.67     593.00
121.77     594.00
121.87     647.38
121.97     654.05
122.07     646.00
122.17     625.00
122.27     582.00
122.37     611.00
122.47     626.21
122.57     602.00
122.67     593.00
122.77     670.34
122.87     651.00
122.97     613.00
123.07     638.38
123.17     675.00
123.27     655.00
123.37     652.00
123.47     597.48
123.57     679.00
123.67     708.00
123.77     623.00
123.87     638.00
123.97     663.00
124.07     665.00
124.17     645.00
124.27     632.00
124.37     641.00
124.47     572.81
124.57     612.00
124.67     637.00
124.77     570.00
124.87     576.69
124.97     686.00
