  9.97     618.68
 10.07     603.47
 10.17     565.23
 10.27     620.64
 10.37     554.92
 10.47     585.00
 10.57     596.13
 10.67     572.00
 10.77     589.00
 10.87     594.00
 10.97     597.00
 11.07     628.00
 11.17     585.00
 11.27     591.33
 11.37     631.00
 11.47     563.74
 11.57     637.00
 11.67     617.00
 11.77     579.00
 11.87     632.00
 11.97     648.00
 12.07     672.00
 12.17     700.00
 12.27     697.00
 12.37     652.00
 12.47     623.00
 12.57     581.00
 12.67     557.46
 12.77     569.00
 12.87     576.00
 12.97     603.47
 13.07     582.00
 13.17     544.09
 13.27     578.40
 13.37     569.00
 13.47     599.00
 13.57     540.43
 13.67     620.16
 13.77     566.38
 13.87     554.00
 13.97     560.75
 14.07     584.63
 14.17     566.00
 14.27     613.31
 14.37     543.85
 14.47     611.51
 14.57     608.90
 14.67     542.00
 14.77     555.79
 14.87     559.00
 14.97     598.32
 15.07     567.00
 15.17     577.00
 15.27     593.00
 15.37     556.00
 15.47     526.20
 15.57     556.00
 15.67     552.00
 15.77     560.00
 15.87     616.21
 15.97     566.00
 16.07     550.71
 16.17     572.00
 16.27     507.00
 16.37     567.00
 16.47     547.00
 16.57     567.83
 16.67     609.00
 16.77     540.00
 16.87     606.00
 16.97     547.30
 17.07     587.83
 17.17     599.00
 17.27     601.00
 17.37     570.76
 17.47     568.00
 17.57     574.00
 17.67     563.00
 17.77     499.00
 17.87     582.14
 17.97     599.48
 18.07     538.00
 18.17     570.19
 18.27     592.23
 18.37     562.00
 18.47     566.00
 18.57     532.62
 18.67     589.00
 18.77     566.00
 18.87     552.00
 18.97     542.00
 19.07     606.22
 19.17     541.00
 19.27     548.00
 19.37     608.00
 19.47     559.00
 19.57     524.77
 19.67     606.69
 19.77     575.00
 19.87     584.01
 19.97     519.64
 20.07     555.00
 20.17     575.76
 20.27     564.00
 20.37     576.00
 20.47     559.00
 20.57     529.50
 20.67     561.26
 20.77     570.97
 20.87     598.72
 20.97     546.00
 21.07     527.00
 21.17     526.58
 21.27     533.00
 21.37     543.00
 21.47     561.00
 21.57     564.00
 21.67     544.00
 21.77     560.00
 21.87     550.00
 21.97     553.00
 22.07     517.00
 22.17     557.00
 22.27     609.00
 22.37     562.93
 22.47     553.46
 22.57     514.84
 22.67     592.00
 22.77     557.09
 22.87     585.35
 22.97     539.00
 23.07     549.05
 23.17     603.00
 23.27     535.85
 23.37     573.19
 23.47     519.00
 23.57     522.00
 23.67     562.00
 23.77     550.00
 23.87     563.00
 23.97     589.00
 24.07     595.36
 24.17     541.00
 24.27     588.88
 24.37     581.00
 24.47     602.85
 24.57     576.00
 24.67     612.03
 24.77     608.00
 24.87     613.00
 24.97     616.00
 25.07     619.74
 25.17     582.00
 25.27     524.00
 25.37     528.00
 25.47     554.00
 25.57     534.00
 25.67     562.24
 25.77     509.43
 25.87     536.97
 25.97     518.20
 26.07     522.00
 26.17     589.33
 26.27     580.00
 26.37     539.00
 26.47     551.00
 26.57     571.00
 26.67     509.33
 26.77     527.00
 26.87     526.00
 26.97     578.00
 27.07     578.83
 27.17     555.20
 27.27     566.52
 27.37     582.59
 27.47     567.04
 27.57     541.00
 27.67     596.00
 27.77     607.00
 27.87     608.00
 27.97     669.00
 28.07     767.08
 28.17     879.15
 28.27     959.07
 28.37     867.52
 28.47     826.00
 28.57     705.00
 28.67     676.00
 28.77     709.99
 28.87     858.00
 28.97     824.10
 29.07     848.69
 29.17     702.00
 29.27     657.00
 29.37     593.00
 29.47     556.00
 29.57     571.00
 29.67     590.98
 29.77     613.13
 29.87     599.00
 29.97     512.04
 30.07     582.00
 30.17     559.00
 30.27     562.00
 30.37     569.00
 30.47     536.00
 30.57     581.00
 30.67     570.00
 30.77     610.00
 30.87     568.78
 30.97     639.00
 31.07     621.00
 31.17     569.13
 31.27     592.43
 31.37     528.00
 31.47     529.00
 31.57     520.00
 31.67     551.00
 31.77     548.00
 31.87     545.00
 31.97     572.46
 32.07     550.00
 32.17     486.84
 32.27     546.78
 32.37     554.41
 32.47     564.00
 32.57     547.00
 32.67     550.00
 32.77     552.94
 32.87     555.00
 32.97     548.00
 33.07     524.00
 33.17     516.48
 33.27     509.98
 33.37     603.00
 33.47     577.18
 33.57     602.56
 33.67     619.00
 33.77     780.00
 33.87     824.91
 33.97    1009.48
 34.07    1033.00
 34.17    1080.20
 34.27     936.00
 34.37     706.00
 34.47     658.00
 34.57     623.00
 34.67     574.00
 34.77     535.00
 34.87     533.00
 34.97     535.00
 35.07     499.00
 35.17     505.00
 35.27     536.77
 35.37     497.00
 35.47     492.01
 35.57     488.69
 35.67     558.00
 35.77     527.00
 35.87     521.00
 35.97     539.00
 36.07     533.00
 36.17     521.00
 36.27     522.06
 36.37     519.00
 36.47     545.99
 36.57     457.00
 36.67     552.85
 36.77     523.00
 36.87     512.00
 36.97     518.00
 37.07     519.00
 37.17     539.27
 37.27     525.00
 37.37     539.93
 37.47     519.00
 37.57     497.00
 37.67     546.00
 37.77     539.60
 37.87     531.00
 37.97     545.00
 38.07     458.00
 38.17     499.00
 38.27     475.03
 38.37     507.61
 38.47     547.00
 38.57     500.20
 38.67     539.00
 38.77     548.54
 38.87     501.00
 38.97     507.00
 39.07     497.00
 39.17     544.49
 39.27     472.62
 39.37     526.46
 39.47     516.00
 39.57     528.00
 39.67     478.17
 39.77     461.00
 39.87     501.00
 39.97     532.00
 40.07     506.00
 40.17     519.00
 40.27     509.02
 40.37     518.41
 40.47     495.00
 40.57     515.00
 40.67     490.00
 40.77     529.79
 40.87     484.00
 40.97     501.00
 41.07     514.00
 41.17     478.00
 41.27     503.11
 41.37     485.00
 41.47     542.45
 41.57     493.00
 41.67     498.96
 41.77     516.00
 41.87     534.28
 41.97     522.00
 42.07     477.25
 42.17     553.53
 42.27     578.34
 42.37     530.38
 42.47     578.00
 42.57     540.00
 42.67     657.18
 42.77     609.00
 42.87     599.96
 42.97     538.28
 43.07     559.00
 43.17     502.19
 43.27     503.00
 43.37     531.25
 43.47     508.00
 43.57     497.00
 43.67     525.00
 43.77     473.50
 43.87     462.00
 43.97     527.00
 44.07     492.00
 44.17     533.93
 44.27     478.00
 44.37     527.21
 44.47     482.43
 44.57     481.40
 44.67     536.00
 44.77     485.00
 44.87     507.00
 44.97     515.00
 45.07     518.42
 45.17     520.00
 45.27     533.00
 45.37     514.79
 45.47     556.00
 45.57     519.00
 45.67     474.00
 45.77     531.50
 45.87     477.00
 45.97     466.43
 46.07     537.54
 46.17     515.00
 46.27     541.13
 46.37     493.00
 46.47     550.01
 46.57     497.00
 46.67     487.01
 46.77     540.00
 46.87     515.00
 46.97     527.90
 47.07     515.00
 47.17     463.00
 47.27     491.00
 47.37     516.00
 47.47     545.89
 47.57     528.36
 47.67     538.00
 47.77     595.00
 47.87     613.00
 47.97     670.00
 48.07     573.00
 48.17     588.00
 48.27     518.00
 48.37     519.08
 48.47     537.00
 48.57     536.00
 48.67     533.20
 48.77     560.39
 48.87     527.00
 48.97     560.00
 49.07     595.00
 49.17     605.61
 49.27     584.00
 49.37     669.00
 49.47     679.00
 49.57     783.00
 49.67     904.00
 49.77    1094.88
 49.87    1402.90
 49.97    1817.00
 50.07    2213.00
 50.17    2521.00
 50.27    2476.00
 50.37    2319.12
 50.47    1892.72
 50.57    1484.00
 50.67    1006.00
 50.77     838.00
 50.87     688.34
 50.97     690.75
 51.07     615.00
 51.17     633.00
 51.27     572.00
 51.37     578.00
 51.47     597.52
 51.57     597.00
 51.67     592.00
 51.77     526.00
 51.87     526.00
 51.97     565.00
 52.07     540.00
 52.17     527.00
 52.27     545.00
 52.37     577.81
 52.47     598.00
 52.57     521.59
 52.67     583.00
 52.77     626.00
 52.87     651.44
 52.97     716.84
 53.07     812.00
 53.17     873.00
 53.27    1008.59
 53.37    1162.00
 53.47    1203.00
 53.57    1185.43
 53.67    1052.00
 53.77     980.09
 53.87     885.00
 53.97     725.00
 54.07     681.00
 54.17     594.07
 54.27     573.00
 54.37     598.00
 54.47     573.00
 54.57     565.46
 54.67     564.00
 54.77     555.00
 54.87     568.00
 54.97     507.44
 55.07     548.03
 55.17     588.00
 55.27     526.00
 55.37     572.00
 55.47     584.14
 55.57     563.00
 55.67     587.00
 55.77     571.00
 55.87     607.34
 55.97     615.00
 56.07     671.00
 56.17     724.71
 56.27     869.00
 56.37    1081.00
 56.47    1505.65
 56.57    1726.00
 56.67    2149.00
 56.77    2471.00
 56.87    2504.00
 56.97    2651.00
 57.07    2432.11
 57.17    2041.35
 57.27    1712.00
 57.37    1309.00
 57.47    1009.00
 57.57     819.00
 57.67     719.67
 57.77     743.00
 57.87     619.50
 57.97     656.03
 58.07     752.00
 58.17     699.00
 58.27     812.52
 58.37     850.44
 58.47     962.00
 58.57    1098.79
 58.67    1136.00
 58.77    1369.00
 58.87    1456.00
 58.97    1571.45
 59.07    1542.00
 59.17    1543.00
 59.27    1455.00
 59.37    1371.00
 59.47    1226.03
 59.57    1193.00
 59.67    1189.00
 59.77    1190.00
 59.87    1189.31
 59.97    1337.00
 60.07    1442.00
 60.17    1553.00
 60.27    1564.31
 60.37    1481.23
 60.47    1449.00
 60.57    1269.00
 60.67    1109.00
 60.77     865.81
 60.87     826.00
 60.97     658.24
 61.07     613.00
 61.17     676.00
 61.27     663.18
 61.37     644.00
 61.47     708.65
 61.57     738.00
 61.67     802.18
 61.77     981.17
 61.87    1015.00
 61.97    1238.00
 62.07    1358.00
 62.17    1352.00
 62.27    1391.00
 62.37    1297.00
 62.47    1141.75
 62.57    1049.00
 62.67     861.17
 62.77     741.57
 62.87     638.00
 62.97     653.00
 63.07     628.00
 63.17     566.00
 63.27     565.00
 63.37     603.00
 63.47     526.44
 63.57     589.00
 63.67     582.00
 63.77     555.88
 63.87     620.00
 63.97     673.00
 64.07     741.00
 64.17     762.03
 64.27     843.00
 64.37     862.44
 64.47    1015.97
 64.57     975.79
 64.67     971.62
 64.77     996.00
 64.87     905.44
 64.97     966.00
 65.07     855.00
 65.17     778.80
 65.27     753.28
 65.37     661.00
 65.47     576.00
 65.57     609.00
 65.67     624.00
 65.77     548.00
 65.87     595.00
 65.97     533.00
 66.07     589.20
 66.17     561.00
 66.27     557.00
 66.37     560.00
 66.47     580.00
 66.57     563.00
 66.67     579.59
 66.77     609.68
 66.87     544.00
 66.97     623.73
 67.07     626.00
 67.17     736.72
 67.27     785.43
 67.37     901.00
 67.47    1066.38
 67.57    1284.91
 67.67    1517.00
 67.77    1798.47
 67.87    2049.65
 67.97    2254.59
 68.07    2423.97
 68.17    2349.10
 68.27    2442.00
 68.37    2045.00
 68.47    1857.00
 68.57    1507.87
 68.67    1332.00
 68.77    1024.00
 68.87     856.00
 68.97     772.00
 69.07     710.00
 69.17     602.16
 69.27     640.00
 69.37     589.00
 69.47     592.00
 69.57     613.65
 69.67     598.00
 69.77     595.55
 69.87     579.23
 69.97     579.00
 70.07     557.00
 70.17     583.79
 70.27     610.28
 70.37     550.42
 70.47     533.12
 70.57     565.00
 70.67     549.00
 70.77     580.00
 70.87     604.00
 70.97     593.00
 71.07     620.00
 71.17     755.00
 71.27     834.46
 71.37     965.00
 71.47    1137.79
 71.57    1264.20
 71.67    1457.18
 71.77    1618.92
 71.87    1791.00
 71.97    1838.51
 72.07    1907.00
 72.17    1938.00
 72.27    1859.97
 72.37    1664.00
 72.47    1478.00
 72.57    1319.00
 72.67    1167.00
 72.77    1018.74
 72.87     940.09
 72.97     851.00
 73.07     804.68
 73.17     766.86
 73.27     753.58
 73.37     673.00
 73.47     614.00
 73.57     600.00
 73.67     638.00
 73.77     589.00
 73.87     569.67
 73.97     599.00
 74.07     618.00
 74.17     572.00
 74.27     584.46
 74.37     543.26
 74.47     575.00
 74.57     580.13
 74.67     614.00
 74.77     654.00
 74.87     655.00
 74.97     569.00
 75.07     600.00
 75.17     613.00
 75.27     541.00
 75.37     543.25
 75.47     555.00
 75.57     568.00
 75.67     558.00
 75.77     601.00
 75.87     573.32
 75.97     613.00
 76.07     610.00
 76.17     675.00
 76.27     627.00
 76.37     668.00
 76.47     700.00
 76.57     688.00
 76.67     692.00
 76.77     707.00
 76.87     657.11
 76.97     647.00
 77.07     654.21
 77.17     561.00
 77.27     568.00
 77.37     559.67
 77.47     535.00
 77.57     564.00
 77.67     558.00
 77.77     548.54
 77.87     544.00
 77.97     498.57
 78.07     543.61
 78.17     565.49
 78.27     553.00
 78.37     487.00
 78.47     529.00
 78.57     504.20
 78.67     498.00
 78.77     516.50
 78.87     501.00
 78.97     518.04
 79.07     482.00
 79.17     555.39
 79.27     561.84
 79.37     521.00
 79.47     527.83
 79.57     584.00
 79.67     536.04
 79.77     573.51
 79.87     516.00
 79.97     537.16
 80.07     534.00
 80.17     601.72
 80.27     584.03
 80.37     626.33
 80.47     628.00
 80.57     672.00
 80.67     652.00
 80.77     625.58
 80.87     658.00
 80.97     713.00
 81.07     735.00
 81.17     735.00
 81.27     725.00
 81.37     731.46
 81.47     764.00
 81.57     788.01
 81.67     748.00
 81.77     776.00
 81.87     704.00
 81.97     703.55
 82.07     688.00
 82.17     668.00
 82.27     655.00
 82.37     656.00
 82.47     611.00
 82.57     613.74
 82.67     579.00
 82.77     609.00
 82.87     610.00
 82.97     567.00
 83.07     576.99
 83.17     518.00
 83.27     574.66
 83.37     526.01
 83.47     545.00
 83.57     531.00
 83.67     566.00
 83.77     521.00
 83.87     552.00
 83.97     591.36
 84.07     577.00
 84.17     567.80
 84.27     529.59
 84.37     588.00
 84.47     575.00
 84.57     566.00
 84.67     525.21
 84.77     533.35
 84.87     576.66
 84.97     517.24
 85.07     518.00
 85.17     501.73
 85.27     531.23
 85.37     505.00
 85.47     542.00
 85.57     543.50
 85.67     518.00
 85.77     558.46
 85.87     545.00
 85.97     545.00
 86.07     515.34
 86.17     512.00
 86.27     574.37
 86.37     508.00
 86.47     589.66
 86.57     549.00
 86.67     627.00
 86.77     559.00
 86.87     594.99
 86.97     584.00
 87.07     618.00
 87.17     645.35
 87.27     659.20
 87.37     669.00
 87.47     674.00
 87.57     671.28
 87.67     579.00
 87.77     610.87
 87.87     626.05
 87.97     549.67
 88.07     568.00
 88.17     590.00
 88.27     602.00
 88.37     613.00
 88.47     554.85
 88.57     611.00
 88.67     534.77
 88.77     587.00
 88.87     550.00
 88.97     614.30
 89.07     570.33
 89.17     581.00
 89.27     594.78
 89.37     625.98
 89.47     608.00
 89.57     571.00
 89.67     547.00
 89.77     574.00
 89.87     600.73
 89.97     550.00
 90.07     569.00
 90.17     548.00
 90.27     507.75
 90.37     505.00
 90.47     546.63
 90.57     508.00
 90.67     533.00
 90.77     554.00
 90.87     542.00
 90.97     563.29
 91.07     553.00
 91.17     508.00
 91.27     553.20
 91.37     532.00
 91.47     528.00
 91.57     543.00
 91.67     579.60
 91.77     570.72
 91.87     517.14
 91.97     517.00
 92.07     574.23
 92.17     572.00
 92.27     566.00
 92.37     572.00
 92.47     624.00
 92.57     669.76
 92.67     655.00
 92.77     691.00
 92.87     701.00
 92.97     711.66
 93.07     738.00
 93.17     756.00
 93.27     787.00
 93.37     818.00
 93.47     806.00
 93.57     778.30
 93.67     857.00
 93.77     860.00
 93.87     819.00
 93.97     812.46
 94.07     820.02
 94.17     839.00
 94.27     848.72
 94.37     895.00
 94.47     881.00
 94.57     894.00
 94.67     924.66
 94.77     892.00
 94.87     888.65
 94.97     841.38
 95.07     904.84
 95.17     798.04
 95.27     846.44
 95.37     784.53
 95.47     764.59
 95.57     791.00
 95.67     739.00
 95.77     708.29
 95.87     680.75
 95.97     686.09
 96.07     652.47
 96.17     684.50
 96.27     697.00
 96.37     744.00
 96.47     838.58
 96.57     793.00
 96.67     965.72
 96.77    1004.07
 96.87    1040.00
 96.97    1141.00
 97.07    1258.40
 97.17    1292.00
 97.27    1346.01
 97.37    1330.88
 97.47    1433.00
 97.57    1468.44
 97.67    1396.00
 97.77    1314.00
 97.87    1343.69
 97.97    1330.00
 98.07    1276.00
 98.17    1193.00
 98.27    1102.70
 98.37    1016.00
 98.47     918.00
 98.57     879.00
 98.67     902.00
 98.77     838.00
 98.87     797.00
 98.97     844.18
 99.07     823.00
 99.17     869.00
 99.27     832.00
 99.37     959.00
 99.47    1031.00
 99.57    1012.00
 99.67    1190.00
 99.77    1252.00
 99.87    1492.00
 99.97    1501.61
100.07    1659.00
100.17    1674.18
100.27    1892.00
100.37    1940.00
100.47    2025.00
100.57    2005.77
100.67    2114.97
100.77    2066.57
100.87    2033.00
100.97    2028.00
101.07    1876.86
101.17    1930.00
101.27    1838.00
101.37    1734.00
101.47    1605.06
101.57    1472.00
101.67    1441.00
101.77    1346.96
101.87    1252.12
101.97    1236.00
102.07    1194.00
102.17    1114.00
102.27    1113.00
102.37    1076.00
102.47    1164.00
102.57    1034.00
102.67    1092.00
102.77    1000.00
102.87     986.00
102.97     939.70
103.07     898.00
103.17     873.64
103.27     842.49
103.37     789.11
103.47     765.53
103.57     686.54
103.67     747.00
103.77     630.00
103.87     600.00
103.97     575.88
104.07     621.00
104.17     651.00
104.27     582.00
104.37     572.00
104.47     519.00
104.57     520.00
104.67     561.00
104.77     547.00
104.87     544.00
104.97     495.49
105.07     577.00
105.17     560.06
105.27     530.00
105.37     515.45
105.47     559.00
105.57     578.00
105.67     508.83
105.77     570.30
105.87     530.34
105.97     514.89
106.07     538.00
106.17     563.81
106.27     575.00
106.37     566.00
106.47     597.00
106.57     599.00
106.67     637.00
106.77     633.23
106.87     649.91
106.97     638.00
107.07     642.25
107.17     688.53
107.27     672.00
107.37     631.00
107.47     705.62
107.57     725.69
107.67     698.34
107.77     655.00
107.87     655.00
107.97     699.83
108.07     709.00
108.17     703.00
108.27     730.32
108.37     698.14
108.47     726.25
108.57     741.68
108.67     737.37
108.77     656.65
108.87     665.00
108.97     692.00
109.07     684.00
109.17     687.36
109.27     635.36
109.37     620.00
109.47     635.61
109.57     666.00
109.67     676.00
109.77     612.00
109.87     615.48
109.97     616.00
110.07     557.00
110.17     572.51
110.27     592.00
110.37     536.00
110.47     584.00
110.57     572.05
110.67     515.00
110.77     559.78
110.87     507.50
110.97     540.38
111.07     530.00
111.17     569.00
111.27     528.00
111.37     531.00
111.47     521.32
111.57     564.00
111.67     527.61
111.77     570.00
111.87     550.00
111.97     585.00
112.07     554.84
112.17     538.00
112.27     583.00
112.37     599.00
112.47     613.00
112.57     562.00
112.67     607.00
112.77     674.70
112.87     666.00
112.97     695.79
113.07     715.55
113.17     686.00
113.27     651.00
113.37     751.00
113.47     790.00
113.57     811.00
113.67     900.00
113.77     960.00
113.87     934.00
113.97     936.96
114.07    1006.00
114.17    1074.72
114.27    1133.00
114.37    1230.53
114.47    1333.00
114.57    1437.43
114.67    1481.42
114.77    1769.86
114.87    1914.00
114.97    2040.00
115.07    2412.00
115.17    2614.00
115.27    2874.00
115.37    3107.24
115.47    3484.64
115.57    3697.00
115.67    4068.00
115.77    4365.00
115.87    4810.00
115.97    5038.00
116.07    5625.00
116.17    6079.93
116.27    6294.00
116.37    6633.00
116.47    6714.00
116.57    6713.31
116.67    7053.00
116.77    6916.00
116.87    6818.00
116.97    6620.00
117.07    6236.17
117.17    6144.00
117.27    5693.00
117.37    5219.00
117.47    5153.05
117.57    4525.00
117.67    4340.00
117.77    3899.00
117.87    3629.00
117.97    3271.00
118.07    3051.00
118.17    2612.00
118.27    2289.00
118.37    1984.00
118.47    1750.00
118.57    1528.33
118.67    1383.00
118.77    1224.00
118.87    1130.00
118.97    1054.15
119.07     959.00
119.17     849.10
119.27     849.00
119.37     757.00
119.47     752.00
119.57     669.00
119.67     702.00
119.77     644.00
119.87     608.35
119.97     581.83
120.07     636.00
120.17     584.00
120.27     588.32
120.37     569.00
120.47     606.00
120.57     551.00
120.67     577.00
120.77     557.00
120.87     589.00
120.97     592.00
121.07     535.06
121.17     526.00
121.27     531.00
121.37     554.00
121.47     590.00
121.57     584.00
121.67     586.00
121.77     603.09
121.87     593.00
121.97     638.27
122.07     623.41
122.17     641.41
122.27     611.00
122.37     584.13
122.47     658.00
122.57     648.10
122.67     601.26
122.77     672.00
122.87     662.00
122.97     687.08
123.07     590.00
123.17     695.00
123.27     669.50
123.37     619.00
123.47     666.00
123.57     674.00
123.67     680.14
123.77     627.00
123.87     652.00
123.97     653.00
124.07     639.00
124.17     656.71
124.27     570.03
124.37     592.00
124.47     608.17
124.57     565.00
124.67     600.00
124.77     570.14
124.87     565.43
124.97     622.00
