  9.97     600.00
 10.07     603.00
 10.17     548.01
 10.27     601.09
 10.37     571.00
 10.47     604.00
 10.57     613.00
 10.67     599.00
 10.77     616.27
 10.87     597.00
 10.97     597.00
 11.07     597.00
 11.17     537.25
 11.27     583.88
 11.37     603.08
 11.47     595.57
 11.57     566.00
 11.67     627.00
 11.77     595.22
 11.87     637.00
 11.97     653.00
 12.07     627.54
 12.17     684.35
 12.27     654.00
 12.37     634.00
 12.47     586.00
 12.57     626.00
 12.67     591.00
 12.77     582.94
 12.87     558.00
 12.97     575.10
 13.07     611.00
 13.17     565.00
 13.27     556.04
 13.37     567.00
 13.47     524.00
 13.57     558.00
 13.67     604.29
 13.77     569.00
 13.87     562.00
 13.97     537.30
 14.07     603.00
 14.17     561.00
 14.27     587.00
 14.37     575.17
 14.47     549.99
 14.57     540.00
 14.67     553.88
 14.77     559.00
 14.87     562.00
 14.97     581.00
 15.07     582.06
 15.17     544.52
 15.27     588.00
 15.37     509.00
 15.47     541.00
 15.57     611.77
 15.67     567.00
 15.77     569.00
 15.87     565.00
 15.97     536.00
 16.07     540.00
 16.17     549.00
 16.27     599.46
 16.37     538.80
 16.47     528.00
 16.57     578.14
 16.67     539.00
 16.77     560.00
 16.87     572.01
 16.97     564.00
 17.07     588.19
 17.17     593.98
 17.27     519.58
 17.37     592.89
 17.47     572.00
 17.57     572.83
 17.67     542.00
 17.77     539.42
 17.87     526.00
 17.97     553.00
 18.07     590.13
 18.17     600.00
 18.27     514.00
 18.37     573.00
 18.47     541.00
 18.57     534.99
 18.67     583.00
 18.77     595.00
 18.87     545.00
 18.97     541.00
 19.07     515.21
 19.17     561.27
 19.27     515.31
 19.37     559.00
 19.47     559.00
 19.57     546.00
 19.67     521.00
 19.77     576.00
 19.87     539.00
 19.97     544.00
 20.07     547.00
 20.17     545.40
 20.27     535.00
 20.37     564.00
 20.47     599.00
 20.57     515.51
 20.67     591.24
 20.77     528.00
 20.87     526.00
 20.97     541.00
 21.07     549.12
 21.17     540.00
 21.27     511.86
 21.37     560.00
 21.47     566.48
 21.57     582.20
 21.67     526.57
 21.77     573.00
 21.87     573.72
 21.97     567.64
 22.07     574.00
 22.17     577.24
 22.27     512.38
 22.37     580.00
 22.47     569.00
 22.57     538.00
 22.67     526.00
 22.77     587.12
 22.87     576.00
 22.97     546.53
 23.07     524.00
 23.17     530.00
 23.27     562.00
 23.37     574.72
 23.47     587.99
 23.57     539.00
 23.67     546.99
 23.77     543.00
 23.87     553.04
 23.97     565.00
 24.07     550.00
 24.17     515.00
 24.27     544.00
 24.37     549.00
 24.47     620.57
 24.57     566.00
 24.67     585.00
 24.77     616.80
 24.87     659.70
 24.97     626.00
 25.07     632.20
 25.17     589.00
 25.27     575.72
 25.37     536.00
 25.47     549.00
 25.57     567.00
 25.67     564.00
 25.77     548.64
 25.87     552.26
 25.97     595.00
 26.07     555.00
 26.17     547.59
 26.27     585.00
 26.37     496.10
 26.47     531.00
 26.57     499.66
 26.67     523.00
 26.77     590.00
 26.87     498.94
 26.97     563.00
 27.07     532.00
 27.17     573.00
 27.27     541.00
 27.37     512.89
 27.47     580.00
 27.57     580.14
 27.67     520.73
 27.77     568.60
 27.87     603.00
 27.97     607.57
 28.07     704.00
 28.17     886.00
 28.27     982.00
 28.37     929.00
 28.47     818.00
 28.57     718.35
 28.67     679.00
 28.77     728.00
 28.87     848.46
 28.97     795.00
 29.07     750.48
 29.17     649.00
 29.27     620.95
 29.37     604.00
 29.47     606.00
 29.57     590.03
 29.67     586.06
 29.77     578.00
 29.87     549.00
 29.97     585.94
 30.07     535.65
 30.17     595.00
 30.27     568.00
 30.37     568.00
 30.47     565.00
 30.57     583.10
 30.67     603.00
 30.77     617.00
 30.87     619.00
 30.97     561.53
 31.07     546.00
 31.17     560.00
 31.27     589.28
 31.37     553.00
 31.47     520.76
 31.57     553.00
 31.67     521.59
 31.77     539.00
 31.87     540.75
 31.97     562.04
 32.07     544.00
 32.17     524.61
 32.27     520.65
 32.37     566.00
 32.47     490.00
 32.57     508.00
 32.67     537.00
 32.77     550.00
 32.87     511.00
 32.97     532.99
 33.07     572.00
 33.17     564.00
 33.27     505.00
 33.37     502.60
 33.47     562.00
 33.57     611.89
 33.67     665.10
 33.77     760.55
 33.87     876.00
 33.97     910.94
 34.07    1073.59
 34.17    1024.24
 34.27     897.00
 34.37     775.00
 34.47     638.00
 34.57     609.00
 34.67     566.00
 34.77     590.65
 34.87     540.00
 34.97     560.00
 35.07     563.00
 35.17     483.00
 35.27     528.00
 35.37     493.00
 35.47     529.00
 35.57     549.00
 35.67     533.88
 35.77     505.00
 35.87     542.00
 35.97     518.00
 36.07     539.00
 36.17     536.39
 36.27     504.00
 36.37     524.00
 36.47     485.00
 36.57     535.00
 36.67     534.00
 36.77     481.00
 36.87     481.00
 36.97     519.00
 37.07     543.00
 37.17     495.00
 37.27     546.00
 37.37     551.00
 37.47     522.00
 37.57     498.00
 37.67     525.28
 37.77     558.00
 37.87     510.00
 37.97     493.00
 38.07     484.00
 38.17     493.00
 38.27     506.00
 38.37     548.35
 38.47     493.74
 38.57     453.00
 38.67     523.00
 38.77     506.84
 38.87     559.00
 38.97     517.00
 39.07     480.00
 39.17     469.00
 39.27     499.00
 39.37     520.00
 39.47     553.00
 39.57     557.00
 39.67     508.00
 39.77     525.00
 39.87     545.00
 39.97     479.00
 40.07     480.09
 40.17     493.60
 40.27     547.31
 40.37     495.00
 40.47     472.00
 40.57     501.45
 40.67     523.10
 40.77     453.00
 40.87     514.46
 40.97     527.15
 41.07     504.00
 41.17     493.00
 41.27     535.94
 41.37     497.81
 41.47     521.00
 41.57     506.32
 41.67     531.05
 41.77     501.00
 41.87     474.74
 41.97     513.88
 42.07     485.45
 42.17     517.00
 42.27     563.00
 42.37     544.77
 42.47     549.00
 42.57     606.52
 42.67     659.90
 42.77     578.00
 42.87     588.00
 42.97     551.00
 43.07     541.00
 43.17     527.00
 43.27     543.00
 43.37     553.19
 43.47     529.00
 43.57     475.00
 43.67     476.00
 43.77     500.00
 43.87     516.00
 43.97     500.00
 44.07     482.00
 44.17     509.00
 44.27     492.00
 44.37     472.64
 44.47     499.00
 44.57     477.98
 44.67     467.00
 44.77     529.00
 44.87     492.00
 44.97     501.00
 45.07     505.00
 45.17     477.24
 45.27     499.00
 45.37     524.00
 45.47     517.00
 45.57     483.00
 45.67     504.00
 45.77     512.00
 45.87     481.00
 45.97     474.00
 46.07     501.00
 46.17     501.02
 46.27     531.44
 46.37     515.00
 46.47     484.00
 46.57     516.78
 46.67     512.00
 46.77     460.59
 46.87     519.00
 46.97     476.00
 47.07     552.00
 47.17     515.00
 47.27     537.66
 47.37     515.00
 47.47     547.53
 47.57     529.00
 47.67     537.00
 47.77     560.29
 47.87     587.00
 47.97     625.00
 48.07     565.00
 48.17     533.00
 48.27     526.19
 48.37     535.86
 48.47     511.00
 48.57     551.00
 48.67     558.00
 48.77     553.00
 48.87     539.11
 48.97     527.00
 49.07     511.93
 49.17     557.00
 49.27     613.00
 49.37     543.85
 49.47     587.00
 49.57     770.00
 49.67     786.54
 49.77     996.42
 49.87    1358.00
 49.97    1634.77
 50.07    2135.00
 50.17    2345.00
 50.27    2383.00
 50.37    2187.00
 50.47    1885.00
 50.57    1524.00
 50.67    1113.03
 50.77     848.21
 50.87     777.00
 50.97     641.13
 51.07     638.00
 51.17     603.00
 51.27     566.30
 51.37     541.41
 51.47     584.00
 51.57     550.00
 51.67     572.00
 51.77     551.32
 51.87     582.00
 51.97     539.00
 52.07     545.31
 52.17     543.00
 52.27     528.00
 52.37     561.00
 52.47     590.00
 52.57     539.41
 52.67     583.12
 52.77     612.27
 52.87     676.00
 52.97     723.70
 53.07     755.10
 53.17     891.70
 53.27    1011.76
 53.37    1127.00
 53.47    1179.61
 53.57    1249.02
 53.67    1133.00
 53.77     976.02
 53.87     883.00
 53.97     799.00
 54.07     656.00
 54.17     651.00
 54.27     563.00
 54.37     612.00
 54.47     611.00
 54.57     528.00
 54.67     583.00
 54.77     600.00
 54.87     562.00
 54.97     542.00
 55.07     643.00
 55.17     571.88
 55.27     575.00
 55.37     580.78
 55.47     524.75
 55.57     540.28
 55.67     583.29
 55.77     617.00
 55.87     607.22
 55.97     623.00
 56.07     660.84
 56.17     765.00
 56.27     874.63
 56.37    1070.00
 56.47    1350.00
 56.57    1668.00
 56.67    2032.00
 56.77    2454.13
 56.87    2551.34
 56.97    2505.24
 57.07    2372.01
 57.17    2142.00
 57.27    1762.99
 57.37    1477.55
 57.47    1087.87
 57.57     928.00
 57.67     810.00
 57.77     707.00
 57.87     666.83
 57.97     683.00
 58.07     672.38
 58.17     706.00
 58.27     754.00
 58.37     785.91
 58.47     870.00
 58.57     968.00
 58.67    1131.63
 58.77    1131.00
 58.87    1220.00
 58.97    1270.07
 59.07    1289.86
 59.17    1325.04
 59.27    1288.08
 59.37    1257.86
 59.47    1265.00
 59.57    1087.05
 59.67    1109.00
 59.77    1190.00
 59.87    1138.62
 59.97    1250.78
 60.07    1427.00
 60.17    1548.00
 60.27    1600.04
 60.37    1519.00
 60.47    1430.00
 60.57    1213.00
 60.67    1099.00
 60.77     937.98
 60.87     838.59
 60.97     748.00
 61.07     723.00
 61.17     641.69
 61.27     630.53
 61.37     697.38
 61.47     656.00
 61.57     739.82
 61.67     790.40
 61.77     918.00
 61.87    1125.85
 61.97    1239.93
 62.07    1372.98
 62.17    1381.43
 62.27    1384.21
 62.37    1253.00
 62.47    1272.00
 62.57    1025.00
 62.67    1013.18
 62.77     796.46
 62.87     691.00
 62.97     674.00
 63.07     618.00
 63.17     573.00
 63.27     556.00
 63.37     530.86
 63.47     557.00
 63.57     574.00
 63.67     584.00
 63.77     549.87
 63.87     639.00
 63.97     673.00
 64.07     665.00
 64.17     782.00
 64.27     839.00
 64.37     881.79
 64.47     911.95
 64.57     945.88
 64.67    1007.00
 64.77    1058.03
 64.87     994.00
 64.97     943.00
 65.07     830.32
 65.17     797.00
 65.27     745.00
 65.37     663.00
 65.47     641.00
 65.57     647.00
 65.67     631.00
 65.77     568.00
 65.87     587.96
 65.97     598.16
 66.07     527.00
 66.17     537.00
 66.27     576.00
 66.37     586.00
 66.47     562.59
 66.57     605.90
 66.67     558.00
 66.77     556.00
 66.87     577.19
 66.97     571.00
 67.07     598.00
 67.17     702.00
 67.27     764.00
 67.37     874.46
 67.47    1033.94
 67.57    1269.32
 67.67    1490.00
 67.77    1734.99
 67.87    1986.00
 67.97    2168.00
 68.07    2326.00
 68.17    2384.19
 68.27    2270.03
 68.37    2113.00
 68.47    1979.00
 68.57    1589.00
 68.67    1330.21
 68.77    1133.00
 68.87     975.00
 68.97     830.18
 69.07     744.00
 69.17     706.41
 69.27     663.00
 69.37     639.00
 69.47     564.00
 69.57     595.49
 69.67     608.77
 69.77     548.00
 69.87     602.00
 69.97     556.00
 70.07     549.00
 70.17     558.66
 70.27     606.00
 70.37     588.00
 70.47     590.00
 70.57     545.00
 70.67     544.80
 70.77     616.12
 70.87     601.77
 70.97     641.00
 71.07     643.00
 71.17     730.00
 71.27     850.00
 71.37     904.00
 71.47    1057.00
 71.57    1208.22
 71.67    1462.30
 71.77    1528.00
 71.87    1691.00
 71.97    1881.00
 72.07    1923.00
 72.17    1894.00
 72.27    1807.00
 72.37    1663.00
 72.47    1513.57
 72.57    1337.00
 72.67    1153.86
 72.77    1015.84
 72.87     973.38
 72.97     815.00
 73.07     757.00
 73.17     708.79
 73.27     666.16
 73.37     666.00
 73.47     680.59
 73.57     587.46
 73.67     601.64
 73.77     615.00
 73.87     580.00
 73.97     623.00
 74.07     583.00
 74.17     574.00
 74.27     593.00
 74.37     584.00
 74.47     609.00
 74.57     627.00
 74.67     602.00
 74.77     654.00
 74.87     628.00
 74.97     670.00
 75.07     611.00
 75.17     641.00
 75.27     594.00
 75.37     588.00
 75.47     561.00
 75.57     570.52
 75.67     548.00
 75.77     526.00
 75.87     634.00
 75.97     651.00
 76.07     639.00
 76.17     630.00
 76.27     685.00
 76.37     671.00
 76.47     643.00
 76.57     699.59
 76.67     655.52
 76.77     706.00
 76.87     701.21
 76.97     673.59
 77.07     604.00
 77.17     615.00
 77.27     594.16
 77.37     558.91
 77.47     544.57
 77.57     521.00
 77.67     553.00
 77.77     526.34
 77.87     483.00
 77.97     506.00
 78.07     523.00
 78.17     516.38
 78.27     488.85
 78.37     522.00
 78.47     544.00
 78.57     514.00
 78.67     494.00
 78.77     558.00
 78.87     507.00
 78.97     532.00
 79.07     502.00
 79.17     505.59
 79.27     514.00
 79.37     528.03
 79.47     507.00
 79.57     547.00
 79.67     574.00
 79.77     547.00
 79.87     526.00
 79.97     520.00
 80.07     539.00
 80.17     532.59
 80.27     545.68
 80.37     606.39
 80.47     582.84
 80.57     571.00
 80.67     592.00
 80.77     612.48
 80.87     641.00
 80.97     739.21
 81.07     707.00
 81.17     737.00
 81.27     766.00
 81.37     762.00
 81.47     698.13
 81.57     766.00
 81.67     770.88
 81.77     738.55
 81.87     676.00
 81.97     696.00
 82.07     713.00
 82.17     619.00
 82.27     670.00
 82.37     648.00
 82.47     622.00
 82.57     621.00
 82.67     597.00
 82.77     607.63
 82.87     525.00
 82.97     573.53
 83.07     556.15
 83.17     556.31
 83.27     564.00
 83.37     502.00
 83.47     549.00
 83.57     561.00
 83.67     609.68
 83.77     581.63
 83.87     612.00
 83.97     558.00
 84.07     530.39
 84.17     550.00
 84.27     532.00
 84.37     599.00
 84.47     585.13
 84.57     516.89
 84.67     588.88
 84.77     551.00
 84.87     503.00
 84.97     529.00
 85.07     499.00
 85.17     557.55
 85.27     548.00
 85.37     548.40
 85.47     515.00
 85.57     522.00
 85.67     539.00
 85.77     492.00
 85.87     518.00
 85.97     496.00
 86.07     487.72
 86.17     498.00
 86.27     525.98
 86.37     532.08
 86.47     581.70
 86.57     587.60
 86.67     602.00
 86.77     530.93
 86.87     552.25
 86.97     614.00
 87.07     639.00
 87.17     654.00
 87.27     586.00
 87.37     656.00
 87.47     652.00
 87.57     645.00
 87.67     618.00
 87.77     596.00
 87.87     643.69
 87.97     631.21
 88.07     599.00
 88.17     594.00
 88.27     604.00
 88.37     594.00
 88.47     606.75
 88.57     552.00
 88.67     551.00
 88.77     637.00
 88.87     570.00
 88.97     610.19
 89.07     613.00
 89.17     597.00
 89.27     618.00
 89.37     633.74
 89.47     611.00
 89.57     558.13
 89.67     557.34
 89.77     599.48
 89.87     551.00
 89.97     528.00
 90.07     537.00
 90.17     567.27
 90.27     518.00
 90.37     501.00
 90.47     520.00
 90.57     512.00
 90.67     549.00
 90.77     524.42
 90.87     473.00
 90.97     526.00
 91.07     552.29
 91.17     505.49
 91.27     522.00
 91.37     476.00
 91.47     496.00
 91.57     558.00
 91.67     565.00
 91.77     548.89
 91.87     519.00
 91.97     573.00
 92.07     520.37
 92.17     531.49
 92.27     577.00
 92.37     625.06
 92.47     648.10
 92.57     628.00
 92.67     672.00
 92.77     668.00
 92.87     677.14
 92.97     742.67
 93.07     734.00
 93.17     761.00
 93.27     780.51
 93.37     772.00
 93.47     738.00
 93.57     774.80
 93.67     818.27
 93.77     770.67
 93.87     808.58
 93.97     816.17
 94.07     820.00
 94.17     860.95
 94.27     809.46
 94.37     881.00
 94.47     831.00
 94.57     937.00
 94.67     833.29
 94.77     904.07
 94.87     905.00
 94.97     915.00
 95.07     891.00
 95.17     869.00
 95.27     852.00
 95.37     838.00
 95.47     801.00
 95.57     832.00
 95.67     720.41
 95.77     696.00
 95.87     690.14
 95.97     738.00
 96.07     678.74
 96.17     695.00
 96.27     699.24
 96.37     785.00
 96.47     812.00
 96.57     804.02
 96.67     906.00
 96.77    1025.53
 96.87    1052.39
 96.97    1065.00
 97.07    1212.55
 97.17    1225.00
 97.27    1369.14
 97.37    1346.00
 97.47    1403.00
 97.57    1478.00
 97.67    1402.53
 97.77    1390.00
 97.87    1397.00
 97.97    1372.00
 98.07    1333.00
 98.17    1221.00
 98.27    1148.00
 98.37    1088.12
 98.47    1032.31
 98.57     982.31
 98.67     880.76
 98.77     904.46
 98.87     824.64
 98.97     815.98
 99.07     806.93
 99.17     866.00
 99.27     893.26
 99.37     897.00
 99.47    1016.60
 99.57    1040.73
 99.67    1160.00
 99.77    1294.57
 99.87    1364.00
 99.97    1510.71
100.07    1590.00
100.17    1670.00
100.27    1742.00
100.37    1784.94
100.47    1921.00
100.57    1992.00
100.67    1969.00
100.77    1940.11
100.87    2024.69
100.97    1894.00
101.07    1957.00
101.17    1891.00
101.27    1848.29
101.37    1702.40
101.47    1690.00
101.57    1599.32
101.67    1423.00
101.77    1436.00
101.87    1417.00
101.97    1266.90
102.07    1278.00
102.17    1213.00
102.27    1180.79
102.37    1171.29
102.47    1184.00
102.57    1178.04
102.67    1073.00
102.77    1047.94
102.87    1068.00
102.97     944.64
103.07     959.00
103.17     916.00
103.27     898.00
103.37     809.33
103.47     752.05
103.57     835.00
103.67     714.27
103.77     741.34
103.87     658.40
103.97     595.92
104.07     644.00
104.17     628.00
104.27     578.00
104.37     604.00
104.47     581.00
104.57     597.00
104.67     574.12
104.77     563.00
104.87     532.74
104.97     577.00
105.07     510.00
105.17     560.73
105.27     541.00
105.37     513.42
105.47     507.60
105.57     502.11
105.67     563.11
105.77     501.00
105.87     569.00
105.97     554.00
106.07     527.00
106.17     611.15
106.27     607.00
106.37     598.00
106.47     624.12
106.57     615.00
106.67     611.00
106.77     611.17
106.87     628.00
106.97     642.00
107.07     660.00
107.17     646.63
107.27     715.08
107.37     640.00
107.47     672.01
107.57     698.84
107.67     659.00
107.77     740.59
107.87     695.00
107.97     654.00
108.07     632.00
108.17     683.00
108.27     712.40
108.37     651.00
108.47     729.00
108.57     685.00
108.67     681.00
108.77     693.34
108.87     655.92
108.97     680.04
109.07     678.00
109.17     699.00
109.27     669.28
109.37     670.00
109.47     627.62
109.57     657.00
109.67     667.06
109.77     615.00
109.87     635.09
109.97     591.00
110.07     611.00
110.17     615.63
110.27     557.10
110.37     562.00
110.47     581.00
110.57     591.00
110.67     559.27
110.77     587.00
110.87     544.38
110.97     553.00
111.07     538.00
111.17     564.00
111.27     513.55
111.37     513.67
111.47     545.78
111.57     505.09
111.67     503.99
111.77     543.00
111.87     529.39
111.97     559.00
112.07     582.00
112.17     577.00
112.27     573.24
112.37     574.00
112.47     535.00
112.57     628.96
112.67     586.30
112.77     609.00
112.87     605.00
112.97     643.25
113.07     640.82
113.17     597.93
113.27     623.00
113.37     651.00
113.47     689.61
113.57     666.00
113.67     717.00
113.77     710.00
113.87     771.44
113.97     823.00
114.07     914.36
114.17     970.86
114.27     948.00
114.37     960.00
114.47    1106.00
114.57    1193.24
114.67    1415.00
114.77    1563.00
114.87    1739.00
114.97    1787.52
115.07    2172.00
115.17    2377.00
115.27    2656.06
115.37    2827.74
115.47    3229.19
115.57    3498.70
115.67    4015.00
115.77    4334.30
115.87    4633.00
115.97    5033.00
116.07    5380.63
116.17    5759.00
116.27    6113.00
116.37    6404.23
116.47    6363.93
116.57    6723.00
116.67    6844.00
116.77    6861.00
116.87    6640.00
116.97    6577.01
117.07    6373.00
117.17    6219.25
117.27    5873.00
117.37    5556.56
117.47    5205.00
117.57    4783.00
117.67    4595.00
117.77    4311.73
117.87    3826.43
117.97    3622.00
118.07    3078.00
118.17    2766.75
118.27    2369.00
118.37    2318.48
118.47    1957.00
118.57    1796.74
118.67    1617.00
118.77    1445.00
118.87    1263.00
118.97    1200.71
119.07    1021.00
119.17    1026.00
119.27     890.77
119.37     835.00
119.47     799.73
119.57     705.00
119.67     717.91
119.77     715.00
119.87     704.00
119.97     700.00
120.07     644.72
120.17     598.00
120.27     598.00
120.37     568.00
120.47     598.00
120.57     586.00
120.67     605.86
120.77     596.00
120.87     543.23
120.97     565.00
121.07     542.00
121.17     606.62
121.27     560.00
121.37     626.04
121.47     610.00
121.57     617.00
121.67     578.57
121.77     571.00
121.87     640.00
121.97     571.00
122.07     582.00
122.17     621.68
122.27     615.00
122.37     602.02
122.47     621.00
122.57     661.00
122.67     637.00
122.77     649.00
122.87     630.00
122.97     623.00
123.07     628.00
123.17     623.00
123.27     626.77
123.37     635.00
123.47     611.00
123.57     628.00
123.67     600.02
123.77     631.09
123.87     634.00
123.97     581.45
124.07     606.00
124.17     590.00
124.27     624.00
124.37     612.00
124.47     641.00
124.57     590.00
124.67     591.00
124.77     572.93
124.87     619.94
124.97     586.00
