  9.97     606.00
 10.07     616.00
 10.17     580.52
 10.27     616.00
 10.37     580.00
 10.47     535.00
 10.57     601.00
 10.67     572.84
 10.77     560.00
 10.87     532.10
 10.97     579.00
 11.07     605.00
 11.17     533.49
 11.27     593.00
 11.37     600.00
 11.47     555.00
 11.57     604.00
 11.67     569.14
 11.77     634.00
 11.87     655.00
 11.97     626.84
 12.07     659.00
 12.17     699.00
 12.27     683.52
 12.37     667.00
 12.47     644.00
 12.57     591.00
 12.67     531.00
 12.77     578.69
 12.87     552.00
 12.97     561.00
 13.07     596.00
 13.17     547.00
 13.27     618.22
 13.37     549.40
 13.47     527.33
 13.57     528.29
 13.67     566.00
 13.77     576.49
 13.87     533.66
 13.97     602.00
 14.07     579.00
 14.17     561.00
 14.27     524.00
 14.37     599.30
 14.47     552.00
 14.57     564.00
 14.67     537.00
 14.77     580.00
 14.87     517.00
 14.97     598.26
 15.07     595.88
 15.17     533.00
 15.27     548.22
 15.37     550.00
 15.47     561.86
 15.57     589.00
 15.67     521.59
 15.77     528.00
 15.87     591.00
 15.97     598.00
 16.07     566.01
 16.17     575.00
 16.27     556.00
 16.37     606.00
 16.47     542.00
 16.57     571.59
 16.67     532.00
 16.77     579.00
 16.87     563.00
 16.97     539.00
 17.07     603.00
 17.17     662.00
 17.27     566.45
 17.37     591.00
 17.47     534.00
 17.57     584.85
 17.67     555.00
 17.77     576.39
 17.87     535.00
 17.97     580.34
 18.07     563.00
 18.17     583.09
 18.27     539.00
 18.37     546.00
 18.47     573.00
 18.57     595.00
 18.67     575.00
 18.77     587.94
 18.87     602.00
 18.97     523.26
 19.07     536.37
 19.17     561.00
 19.27     536.00
 19.37     594.52
 19.47     590.00
 19.57     527.00
 19.67     558.00
 19.77     596.00
 19.87     541.00
 19.97     603.10
 20.07     577.83
 20.17     552.32
 20.27     584.75
 20.37     535.13
 20.47     568.47
 20.57     570.00
 20.67     560.00
 20.77     478.00
 20.87     542.00
 20.97     566.59
 21.07     548.04
 21.17     556.00
 21.27     535.00
 21.37     524.00
 21.47     540.04
 21.57     564.00
 21.67     591.78
 21.77     527.00
 21.87     575.00
 21.97     542.76
 22.07     519.00
 22.17     557.00
 22.27     548.00
 22.37     555.00
 22.47     564.00
 22.57     537.00
 22.67     576.96
 22.77     515.26
 22.87     561.00
 22.97     571.00
 23.07     541.00
 23.17     560.00
 23.27     525.65
 23.37     507.00
 23.47     563.00
 23.57     561.00
 23.67     555.17
 23.77     536.00
 23.87     508.51
 23.97     555.16
 24.07     551.00
 24.17     546.00
 24.27     537.00
 24.37     601.39
 24.47     561.00
 24.57     561.54
 24.67     648.28
 24.77     653.08
 24.87     673.92
 24.97     642.00
 25.07     583.00
 25.17     563.00
 25.27     602.62
 25.37     601.00
 25.47     498.00
 25.57     539.00
 25.67     555.00
 25.77     509.80
 25.87     507.31
 25.97     524.00
 26.07     577.00
 26.17     544.00
 26.27     556.00
 26.37     535.24
 26.47     511.59
 26.57     571.39
 26.67     567.01
 26.77     522.75
 26.87     534.00
 26.97     547.42
 27.07     571.94
 27.17     586.65
 27.27     522.97
 27.37     547.00
 27.47     569.00
 27.57     590.71
 27.67     574.00
 27.77     583.13
 27.87     626.92
 27.97     705.22
 28.07     832.00
 28.17     899.00
 28.27     971.00
 28.37     881.00
 28.47     763.70
 28.57     704.00
 28.67     710.67
 28.77     744.00
 28.87     844.43
 28.97     795.36
 29.07     763.00
 29.17     707.00
 29.27     690.95
 29.37     574.00
 29.47     594.00
 29.57     615.00
 29.67     629.00
 29.77     636.00
 29.87     618.00
 29.97     584.00
 30.07     572.00
 30.17     550.00
 30.27     573.00
 30.37     525.00
 30.47     567.00
 30.57     567.24
 30.67     592.15
 30.77     556.08
 30.87     591.00
 30.97     608.00
 31.07     620.00
 31.17     574.00
 31.27     528.32
 31.37     525.00
 31.47     552.00
 31.57     515.27
 31.67     528.00
 31.77     499.53
 31.87     484.00
 31.97     511.00
 32.07     532.99
 32.17     488.50
 32.27     504.00
 32.37     536.00
 32.47     574.00
 32.57     575.00
 32.67     494.37
 32.77     570.00
 32.87     539.00
 32.97     554.00
 33.07     563.86
 33.17     498.33
 33.27     562.31
 33.37     568.00
 33.47     545.31
 33.57     596.00
 33.67     603.61
 33.77     768.00
 33.87     904.25
 33.97     984.24
 34.07    1051.00
 34.17    1014.00
 34.27     911.00
 34.37     757.00
 34.47     637.00
 34.57     572.00
 34.67     567.00
 34.77     579.08
 34.87     564.00
 34.97     506.00
 35.07     550.00
 35.17     518.00
 35.27     504.00
 35.37     482.02
 35.47     544.00
 35.57     527.00
 35.67     494.63
 35.77     474.00
 35.87     522.00
 35.97     519.00
 36.07     504.00
 36.17     556.37
 36.27     543.00
 36.37     527.37
 36.47     530.00
 36.57     528.84
 36.67     529.52
 36.77     480.27
 36.87     518.00
 36.97     526.02
 37.07     502.08
 37.17     498.00
 37.27     520.00
 37.37     485.86
 37.47     521.00
 37.57     567.97
 37.67     526.00
 37.77     496.57
 37.87     504.00
 37.97     529.00
 38.07     559.49
 38.17     516.00
 38.27     493.00
 38.37     538.00
 38.47     502.00
 38.57     551.61
 38.67     503.00
 38.77     513.00
 38.87     473.00
 38.97     527.00
 39.07     481.00
 39.17     534.00
 39.27     483.00
 39.37     517.00
 39.47     524.00
 39.57     551.84
 39.67     532.00
 39.77     527.20
 39.87     492.26
 39.97     497.27
 40.07     532.69
 40.17     482.92
 40.27     505.00
 40.37     526.39
 40.47     509.45
 40.57     474.00
 40.67     506.00
 40.77     475.05
 40.87     469.83
 40.97     478.51
 41.07     507.23
 41.17     477.00
 41.27     549.00
 41.37     549.91
 41.47     507.97
 41.57     483.37
 41.67     518.00
 41.77     484.00
 41.87     502.00
 41.97     485.20
 42.07     507.00
 42.17     537.00
 42.27     548.00
 42.37     558.00
 42.47     634.82
 42.57     572.56
 42.67     579.00
 42.77     556.00
 42.87     550.00
 42.97     543.61
 43.07     535.00
 43.17     543.00
 43.27     512.00
 43.37     527.51
 43.47     535.00
 43.57     540.00
 43.67     535.00
 43.77     482.16
 43.87     515.00
 43.97     493.00
 44.07     495.00
 44.17     489.00
 44.27     542.68
 44.37     492.00
 44.47     507.45
 44.57     481.82
 44.67     499.67
 44.77     509.00
 44.87     533.63
 44.97     504.00
 45.07     491.00
 45.17     495.00
 45.27     528.00
 45.37     492.31
 45.47     495.00
 45.57     546.00
 45.67     517.92
 45.77     516.00
 45.87     508.63
 45.97     497.00
 46.07     521.00
 46.17     500.00
 46.27     482.00
 46.37     519.75
 46.47     521.00
 46.57     484.52
 46.67     531.00
 46.77     502.00
 46.87     502.00
 46.97     535.86
 47.07     526.00
 47.17     526.00
 47.27     534.00
 47.37     493.00
 47.47     537.00
 47.57     594.71
 47.67     576.00
 47.77     616.00
 47.87     596.36
 47.97     605.00
 48.07     557.00
 48.17     542.15
 48.27     585.89
 48.37     495.00
 48.47     559.60
 48.57     539.00
 48.67     580.27
 48.77     558.00
 48.87     538.10
 48.97     559.00
 49.07     616.63
 49.17     580.00
 49.27     625.00
 49.37     657.48
 49.47     735.78
 49.57     849.00
 49.67     888.54
 49.77    1078.21
 49.87    1458.00
 49.97    1807.49
 50.07    2177.00
 50.17    2442.00
 50.27    2514.74
 50.37    2292.00
 50.47    1836.26
 50.57    1366.00
 50.67    1077.00
 50.77     826.00
 50.87     748.59
 50.97     624.87
 51.07     634.13
 51.17     616.54
 51.27     629.00
 51.37     552.00
 51.47     584.00
 51.57     606.00
 51.67     576.00
 51.77     573.44
 51.87     570.00
 51.97     581.86
 52.07     497.75
 52.17     545.00
 52.27     572.00
 52.37     557.00
 52.47     564.29
 52.57     543.00
 52.67     610.00
 52.77     583.00
 52.87     631.00
 52.97     691.40
 53.07     813.61
 53.17     903.00
 53.27    1019.00
 53.37    1227.00
 53.47    1256.46
 53.57    1239.19
 53.67    1131.78
 53.77    1035.00
 53.87     880.00
 53.97     768.05
 54.07     716.00
 54.17     636.00
 54.27     585.00
 54.37     554.79
 54.47     535.06
 54.57     556.13
 54.67     543.10
 54.77     581.38
 54.87     512.61
 54.97     515.36
 55.07     553.00
 55.17     535.00
 55.27     540.80
 55.37     579.85
 55.47     599.11
 55.57     601.00
 55.67     571.00
 55.77     597.00
 55.87     575.00
 55.97     601.00
 56.07     703.00
 56.17     767.00
 56.27     927.00
 56.37    1123.00
 56.47    1354.00
 56.57    1717.00
 56.67    2134.00
 56.77    2554.00
 56.87    2535.00
 56.97    2559.24
 57.07    2415.69
 57.17    1927.16
 57.27    1565.22
 57.37    1350.00
 57.47    1042.00
 57.57     866.00
 57.67     771.78
 57.77     651.00
 57.87     679.00
 57.97     712.00
 58.07     672.00
 58.17     749.00
 58.27     781.00
 58.37     858.67
 58.47     940.00
 58.57    1080.00
 58.67    1149.01
 58.77    1287.26
 58.87    1365.00
 58.97    1440.43
 59.07    1550.00
 59.17    1546.00
 59.27    1464.00
 59.37    1403.00
 59.47    1195.76
 59.57    1188.00
 59.67    1080.37
 59.77    1117.00
 59.87    1165.36
 59.97    1331.79
 60.07    1410.00
 60.17    1545.00
 60.27    1550.00
 60.37    1566.00
 60.47    1351.44
 60.57    1303.00
 60.67    1085.76
 60.77     883.00
 60.87     810.00
 60.97     733.78
 61.07     683.00
 61.17     657.00
 61.27     606.00
 61.37     632.90
 61.47     683.00
 61.57     774.00
 61.67     877.00
 61.77     922.66
 61.87    1048.00
 61.97    1218.00
 62.07    1309.00
 62.17    1427.00
 62.27    1324.00
 62.37    1380.09
 62.47    1208.00
 62.57    1029.00
 62.67     882.00
 62.77     762.00
 62.87     661.91
 62.97     664.00
 63.07     652.16
 63.17     572.00
 63.27     546.00
 63.37     564.00
 63.47     560.72
 63.57     552.00
 63.67     600.12
 63.77     590.00
 63.87     634.00
 63.97     681.24
 64.07     686.98
 64.17     712.00
 64.27     816.00
 64.37     885.50
 64.47    1012.00
 64.57    1012.00
 64.67     975.16
 64.77    1034.00
 64.87     996.00
 64.97     862.01
 65.07     836.02
 65.17     799.00
 65.27     716.48
 65.37     716.00
 65.47     687.00
 65.57     581.00
 65.67     627.00
 65.77     574.45
 65.87     565.00
 65.97     569.00
 66.07     585.52
 66.17     598.52
 66.27     558.67
 66.37     598.10
 66.47     589.73
 66.57     555.00
 66.67     595.00
 66.77     621.28
 66.87     566.25
 66.97     573.48
 67.07     677.49
 67.17     637.00
 67.27     736.92
 67.37     865.00
 67.47    1028.81
 67.57    1313.00
 67.67    1574.00
 67.77    1848.22
 67.87    1982.00
 67.97    2406.00
 68.07    2371.00
 68.17    2414.00
 68.27    2272.41
 68.37    1995.13
 68.47    1876.00
 68.57    1519.00
 68.67    1239.00
 68.77    1050.00
 68.87     901.00
 68.97     744.00
 69.07     698.00
 69.17     663.00
 69.27     580.15
 69.37     632.00
 69.47     620.00
 69.57     550.70
 69.67     527.76
 69.77     536.25
 69.87     563.00
 69.97     576.00
 70.07     603.00
 70.17     564.00
 70.27     616.00
 70.37     548.00
 70.47     613.01
 70.57     550.22
 70.67     583.31
 70.77     569.00
 70.87     597.00
 70.97     608.00
 71.07     592.00
 71.17     771.12
 71.27     811.28
 71.37     898.16
 71.47    1054.30
 71.57    1312.00
 71.67    1476.00
 71.77    1607.00
 71.87    1830.00
 71.97    1968.96
 72.07    1942.00
 72.17    1951.00
 72.27    1856.00
 72.37    1640.00
 72.47    1479.76
 72.57    1321.61
 72.67    1141.48
 72.77    1109.00
 72.87    1013.57
 72.97     857.00
 73.07     830.38
 73.17     767.39
 73.27     684.00
 73.37     603.00
 73.47     672.35
 73.57     602.00
 73.67     592.00
 73.77     604.00
 73.87     611.00
 73.97     614.00
 74.07     585.00
 74.17     601.00
 74.27     594.00
 74.37     550.29
 74.47     611.11
 74.57     634.00
 74.67     602.59
 74.77     522.43
 74.87     655.00
 74.97     615.00
 75.07     527.24
 75.17     579.00
 75.27     575.00
 75.37     506.60
 75.47     580.00
 75.57     580.00
 75.67     593.00
 75.77     531.28
 75.87     584.00
 75.97     634.00
 76.07     644.00
 76.17     676.00
 76.27     696.00
 76.37     662.66
 76.47     723.38
 76.57     681.00
 76.67     654.00
 76.77     665.00
 76.87     658.00
 76.97     669.00
 77.07     626.00
 77.17     626.64
 77.27     549.00
 77.37     482.00
 77.47     514.00
 77.57     488.00
 77.67     520.64
 77.77     538.43
 77.87     508.00
 77.97     509.00
 78.07     550.26
 78.17     518.00
 78.27     522.00
 78.37     536.53
 78.47     525.16
 78.57     522.63
 78.67     513.00
 78.77     512.00
 78.87     564.00
 78.97     554.00
 79.07     535.00
 79.17     511.00
 79.27     529.00
 79.37     528.79
 79.47     489.00
 79.57     500.00
 79.67     564.08
 79.77     510.81
 79.87     558.00
 79.97     550.00
 80.07     576.07
 80.17     598.00
 80.27     513.00
 80.37     552.55
 80.47     580.00
 80.57     583.00
 80.67     662.36
 80.77     645.00
 80.87     644.00
 80.97     722.00
 81.07     718.00
 81.17     762.00
 81.27     698.95
 81.37     739.00
 81.47     772.08
 81.57     727.00
 81.67     762.00
 81.77     808.00
 81.87     737.12
 81.97     707.00
 82.07     640.07
 82.17     674.00
 82.27     653.00
 82.37     594.16
 82.47     635.00
 82.57     626.00
 82.67     619.23
 82.77     617.88
 82.87     545.00
 82.97     558.00
 83.07     547.00
 83.17     592.00
 83.27     592.58
 83.37     514.93
 83.47     518.00
 83.57     605.04
 83.67     573.00
 83.77     533.00
 83.87     558.00
 83.97     597.00
 84.07     559.00
 84.17     537.00
 84.27     554.00
 84.37     568.00
 84.47     565.00
 84.57     558.00
 84.67     551.15
 84.77     553.03
 84.87     535.74
 84.97     520.00
 85.07     499.00
 85.17     534.00
 85.27     500.71
 85.37     492.25
 85.47     526.00
 85.57     554.00
 85.67     552.00
 85.77     538.00
 85.87     524.00
 85.97     535.00
 86.07     512.52
 86.17     493.93
 86.27     587.00
 86.37     537.00
 86.47     563.00
 86.57     523.00
 86.67     545.00
 86.77     577.00
 86.87     551.66
 86.97     635.00
 87.07     643.00
 87.17     573.54
 87.27     685.00
 87.37     706.00
 87.47     635.00
 87.57     652.97
 87.67     646.00
 87.77     663.00
 87.87     641.40
 87.97     592.13
 88.07     565.62
 88.17     609.69
 88.27     595.60
 88.37     538.00
 88.47     580.00
 88.57     607.92
 88.67     551.13
 88.77     610.00
 88.87     593.00
 88.97     552.00
 89.07     603.00
 89.17     605.00
 89.27     638.00
 89.37     555.00
 89.47     563.65
 89.57     609.02
 89.67     581.00
 89.77     579.00
 89.87     574.99
 89.97     565.62
 90.07     599.06
 90.17     549.80
 90.27     478.00
 90.37     523.00
 90.47     572.00
 90.57     504.00
 90.67     550.68
 90.77     495.00
 90.87     557.51
 90.97     566.56
 91.07     489.77
 91.17     538.00
 91.27     551.00
 91.37     542.00
 91.47     560.00
 91.57     567.00
 91.67     527.40
 91.77     525.00
 91.87     556.88
 91.97     521.49
 92.07     593.57
 92.17     582.00
 92.27     629.12
 92.37     593.46
 92.47     625.00
 92.57     668.00
 92.67     653.00
 92.77     686.00
 92.87     697.87
 92.97     763.41
 93.07     732.02
 93.17     715.14
 93.27     813.00
 93.37     752.00
 93.47     819.00
 93.57     856.34
 93.67     801.00
 93.77     788.58
 93.87     852.00
 93.97     810.37
 94.07     884.00
 94.17     784.34
 94.27     869.00
 94.37     856.00
 94.47     835.04
 94.57     921.00
 94.67     911.26
 94.77     914.00
 94.87     970.00
 94.97     837.64
 95.07     814.15
 95.17     920.00
 95.27     760.21
 95.37     748.91
 95.47     747.00
 95.57     785.06
 95.67     740.00
 95.77     700.50
 95.87     669.28
 95.97     665.00
 96.07     687.00
 96.17     702.00
 96.27     732.00
 96.37     757.67
 96.47     769.66
 96.57     911.00
 96.67     865.82
 96.77     978.96
 96.87    1094.52
 96.97    1138.00
 97.07    1247.48
 97.17    1229.00
 97.27    1326.83
 97.37    1431.14
 97.47    1354.60
 97.57    1427.00
 97.67    1487.11
 97.77    1337.00
 97.87    1414.00
 97.97    1339.59
 98.07    1175.00
 98.17    1104.00
 98.27    1063.00
 98.37     983.00
 98.47     977.00
 98.57     900.57
 98.67     841.00
 98.77     792.00
 98.87     773.00
 98.97     771.10
 99.07     836.84
 99.17     891.00
 99.27     866.00
 99.37     950.00
 99.47     983.00
 99.57    1036.61
 99.67    1219.92
 99.77    1337.48
 99.87    1385.93
 99.97    1499.00
100.07    1603.00
100.17    1764.83
100.27    1823.00
100.37    1878.39
100.47    2033.00
100.57    2053.14
100.67    2082.56
100.77    2055.00
100.87    1951.00
100.97    2073.01
101.07    1952.00
101.17    1921.00
101.27    1805.83
101.37    1709.00
101.47    1601.00
101.57    1555.00
101.67    1431.97
101.77    1304.88
101.87    1328.00
101.97    1185.00
102.07    1166.71
102.17    1116.40
102.27    1178.00
102.37    1121.00
102.47    1109.00
102.57    1071.00
102.67    1049.24
102.77    1029.00
102.87    1011.00
102.97    1038.00
103.07     877.52
103.17     918.00
103.27     859.00
103.37     759.85
103.47     807.11
103.57     733.19
103.67     727.00
103.77     642.34
103.87     625.11
103.97     646.00
104.07     594.00
104.17     570.00
104.27     617.00
104.37     561.00
104.47     555.00
104.57     515.00
104.67     570.00
104.77     515.00
104.87     503.11
104.97     516.84
105.07     574.00
105.17     537.00
105.27     542.00
105.37     522.00
105.47     525.00
105.57     535.00
105.67     513.78
105.77     525.00
105.87     586.26
105.97     562.60
106.07     536.59
106.17     620.00
106.27     595.00
106.37     601.00
106.47     569.00
106.57     645.53
106.67     668.00
106.77     636.79
106.87     647.00
106.97     652.00
107.07     640.00
107.17     714.68
107.27     694.00
107.37     693.00
107.47     648.00
107.57     751.87
107.67     682.00
107.77     699.67
107.87     653.00
107.97     678.00
108.07     673.00
108.17     663.35
108.27     724.29
108.37     700.00
108.47     704.00
108.57     652.00
108.67     652.00
108.77     689.00
108.87     718.00
108.97     676.73
109.07     655.00
109.17     667.97
109.27     648.00
109.37     608.46
109.47     657.00
109.57     626.00
109.67     632.00
109.77     567.00
109.87     572.98
109.97     591.00
110.07     585.00
110.17     557.00
110.27     570.86
110.37     585.00
110.47     582.00
110.57     547.00
110.67     512.56
110.77     564.62
110.87     562.00
110.97     533.00
111.07     564.11
111.17     547.00
111.27     572.54
111.37     491.00
111.47     570.00
111.57     530.00
111.67     577.00
111.77     511.00
111.87     526.00
111.97     579.00
112.07     608.07
112.17     571.96
112.27     551.00
112.37     576.00
112.47     570.48
112.57     626.00
112.67     628.43
112.77     615.00
112.87     633.00
112.97     647.00
113.07     718.18
113.17     657.00
113.27     715.00
113.37     735.00
113.47     724.27
113.57     752.13
113.67     866.30
113.77     866.15
113.87     897.00
113.97     990.67
114.07     941.00
114.17    1078.00
114.27    1182.95
114.37    1201.00
114.47    1288.39
114.57    1380.50
114.67    1539.00
114.77    1738.00
114.87    1865.00
114.97    2233.00
115.07    2178.22
115.17    2454.30
115.27    2870.62
115.37    3198.00
115.47    3356.00
115.57    3740.00
115.67    4222.00
115.77    4456.00
115.87    4793.00
115.97    5255.00
116.07    5573.00
116.17    6069.05
116.27    6326.00
116.37    6590.00
116.47    6807.00
116.57    6822.07
116.67    7020.00
116.77    6945.64
116.87    6870.00
116.97    6643.98
117.07    6389.89
117.17    6132.00
117.27    5653.00
117.37    5379.00
117.47    4994.00
117.57    4583.00
117.67    4347.00
117.77    4079.00
117.87    3749.00
117.97    3207.00
118.07    2862.00
118.17    2600.00
118.27    2203.00
118.37    1977.00
118.47    1814.94
118.57    1600.31
118.67    1439.00
118.77    1290.00
118.87    1111.95
118.97    1072.00
119.07     963.00
119.17     881.00
119.27     761.00
119.37     778.00
119.47     715.80
119.57     720.00
119.67     676.00
119.77     620.00
119.87     618.00
119.97     628.78
120.07     630.00
120.17     593.13
120.27     621.11
120.37     546.00
120.47     554.00
120.57     614.40
120.67     582.00
120.77     557.00
120.87     567.00
120.97     553.00
121.07     533.00
121.17     596.00
121.27     578.00
121.37     574.00
121.47     560.00
121.57     586.01
121.67     568.00
121.77     573.00
121.87     595.00
121.97     604.00
122.07     623.00
122.17     581.00
122.27     582.38
122.37     593.21
122.47     677.00
122.57     633.00
122.67     665.05
122.77     595.69
122.87     637.65
122.97     604.22
123.07     641.00
123.17     650.00
123.27     657.00
123.37     701.00
123.47     681.00
123.57     622.00
123.67     672.48
123.77     612.00
123.87     651.58
123.97     605.18
124.07     657.08
124.17     597.00
124.27     601.00
124.37     590.97
124.47     611.00
124.57     616.38
124.67     579.00
124.77     565.00
124.87     547.00
124.97     557.00
