  9.97     542.27
 10.07     617.00
 10.17     545.00
 10.27     629.00
 10.37     525.38
 10.47     593.43
 10.57     584.53
 10.67     578.71
 10.77     551.86
 10.87     586.00
 10.97     616.13
 11.07     563.22
 11.17     607.00
 11.27     567.29
 11.37     578.00
 11.47     650.00
 11.57     583.00
 11.67     622.00
 11.77     624.00
 11.87     614.00
 11.97     614.00
 12.07     666.86
 12.17     669.26
 12.27     655.00
 12.37     654.00
 12.47     622.00
 12.57     598.10
 12.67     576.00
 12.77     595.00
 12.87     555.00
 12.97     581.85
 13.07     570.00
 13.17     571.00
 13.27     565.00
 13.37     617.00
 13.47     547.00
 13.57     620.00
 13.67     498.00
 13.77     536.13
 13.87     556.00
 13.97     559.22
 14.07     573.00
 14.17     591.00
 14.27     571.00
 14.37     608.30
 14.47     558.00
 14.57     525.85
 14.67     585.00
 14.77     564.00
 14.87     537.51
 14.97     563.70
 15.07     561.49
 15.17     602.23
 15.27     599.01
 15.37     535.00
 15.47     554.00
 15.57     570.71
 15.67     568.00
 15.77     537.74
 15.87     548.00
 15.97     530.00
 16.07     524.00
 16.17     565.00
 16.27     549.40
 16.37     569.00
 16.47     571.48
 16.57     566.30
 16.67     579.77
 16.77     582.00
 16.87     588.00
 16.97     551.00
 17.07     577.00
 17.17     534.00
 17.27     506.00
 17.37     563.50
 17.47     567.00
 17.57     569.00
 17.67     548.00
 17.77     505.00
 17.87     576.00
 17.97     604.00
 18.07     514.92
 18.17     532.18
 18.27     499.00
 18.37     577.87
 18.47     553.00
 18.57     596.00
 18.67     529.00
 18.77     578.00
 18.87     560.18
 18.97     553.76
 19.07     534.00
 19.17     598.33
 19.27     548.00
 19.37     574.74
 19.47     557.00
 19.57     571.00
 19.67     545.00
 19.77     594.84
 19.87     536.48
 19.97     563.12
 20.07     570.00
 20.17     566.10
 20.27     522.98
 20.37     592.13
 20.47     559.00
 20.57     593.86
 20.67     550.00
 20.77     518.00
 20.87     581.54
 20.97     518.55
 21.07     567.00
 21.17     591.40
 21.27     517.80
 21.37     557.00
 21.47     566.00
 21.57     534.00
 21.67     567.10
 21.77     562.38
 21.87     530.00
 21.97     547.00
 22.07     555.00
 22.17     602.00
 22.27     555.00
 22.37     544.00
 22.47     540.00
 22.57     567.00
 22.67     573.00
 22.77     506.00
 22.87     539.00
 22.97     548.00
 23.07     519.13
 23.17     550.00
 23.27     543.72
 23.37     541.00
 23.47     527.11
 23.57     594.00
 23.67     534.62
 23.77     531.11
 23.87     554.00
 23.97     582.59
 24.07     540.00
 24.17     552.27
 24.27     577.00
 24.37     597.00
 24.47     566.66
 24.57     558.59
 24.67     605.00
 24.77     633.00
 24.87     583.81
 24.97     610.00
 25.07     574.00
 25.17     572.00
 25.27     546.03
 25.37     546.00
 25.47     512.85
 25.57     570.55
 25.67     528.79
 25.77     566.00
 25.87     556.00
 25.97     573.00
 26.07     584.00
 26.17     574.00
 26.27     571.43
 26.37     576.00
 26.47     576.00
 26.57     572.00
 26.67     520.00
 26.77     526.00
 26.87     575.11
 26.97     541.00
 27.07     544.00
 27.17     572.00
 27.27     554.00
 27.37     533.00
 27.47     574.00
 27.57     569.02
 27.67     552.00
 27.77     591.00
 27.87     602.00
 27.97     665.00
 28.07     711.84
 28.17     864.00
 28.27     966.49
 28.37     906.00
 28.47     855.00
 28.57     743.00
 28.67     649.67
 28.77     716.00
 28.87     851.17
 28.97     814.00
 29.07     777.00
 29.17     722.00
 29.27     656.00
 29.37     639.00
 29.47     575.00
 29.57     564.36
 29.67     587.00
 29.77     547.93
 29.87     530.52
 29.97     558.00
 30.07     563.00
 30.17     563.00
 30.27     540.82
 30.37     583.33
 30.47     537.00
 30.57     588.00
 30.67     614.00
 30.77     608.52
 30.87     601.71
 30.97     571.00
 31.07     588.00
 31.17     545.80
 31.27     542.00
 31.37     553.00
 31.47     488.00
 31.57     505.00
 31.67     512.00
 31.77     511.13
 31.87     524.98
 31.97     484.94
 32.07     491.00
 32.17     506.85
 32.27     541.00
 32.37     533.00
 32.47     552.00
 32.57     532.00
 32.67     512.33
 32.77     533.00
 32.87     559.00
 32.97     518.00
 33.07     509.82
 33.17     498.16
 33.27     546.32
 33.37     584.00
 33.47     583.00
 33.57     559.00
 33.67     631.57
 33.77     739.00
 33.87     870.00
 33.97    1011.00
 34.07    1046.00
 34.17     972.00
 34.27     901.00
 34.37     777.00
 34.47     672.00
 34.57     575.00
 34.67     524.32
 34.77     570.00
 34.87     553.87
 34.97     545.97
 35.07     488.00
 35.17     489.00
 35.27     506.00
 35.37     494.00
 35.47     508.00
 35.57     520.00
 35.67     521.75
 35.77     493.00
 35.87     561.00
 35.97     480.00
 36.07     531.36
 36.17     512.00
 36.27     546.11
 36.37     471.89
 36.47     531.00
 36.57     549.33
 36.67     488.08
 36.77     523.00
 36.87     516.07
 36.97     528.00
 37.07     477.00
 37.17     497.00
 37.27     564.00
 37.37     474.19
 37.47     535.57
 37.57     551.00
 37.67     603.00
 37.77     525.00
 37.87     530.00
 37.97     528.56
 38.07     492.46
 38.17     486.00
 38.27     523.66
 38.37     498.00
 38.47     511.56
 38.57     494.37
 38.67     489.88
 38.77     480.95
 38.87     494.00
 38.97     524.51
 39.07     489.85
 39.17     510.00
 39.27     509.99
 39.37     509.73
 39.47     520.00
 39.57     501.00
 39.67     457.00
 39.77     502.00
 39.87     495.95
 39.97     478.00
 40.07     466.96
 40.17     497.00
 40.27     520.00
 40.37     495.00
 40.47     468.00
 40.57     492.66
 40.67     498.00
 40.77     511.44
 40.87     519.00
 40.97     537.58
 41.07     526.48
 41.17     495.00
 41.27     473.00
 41.37     495.00
 41.47     510.28
 41.57     491.00
 41.67     531.48
 41.77     469.00
 41.87     527.33
 41.97     520.13
 42.07     504.00
 42.17     499.00
 42.27     541.00
 42.37     486.00
 42.47     491.00
 42.57     619.00
 42.67     579.00
 42.77     603.00
 42.87     577.00
 42.97     568.00
 43.07     552.02
 43.17     544.00
 43.27     477.00
 43.37     504.00
 43.47     436.00
 43.57     446.00
 43.67     508.36
 43.77     504.00
 43.87     536.00
 43.97     467.85
 44.07     518.00
 44.17     476.32
 44.27     567.00
 44.37     502.00
 44.47     455.55
 44.57     482.77
 44.67     466.11
 44.77     494.48
 44.87     488.00
 44.97     461.00
 45.07     538.42
 45.17     512.00
 45.27     519.01
 45.37     501.00
 45.47     500.02
 45.57     489.00
 45.67     461.61
 45.77     494.00
 45.87     465.00
 45.97     509.00
 46.07     491.00
 46.17     504.49
 46.27     487.00
 46.37     472.10
 46.47     478.00
 46.57     474.00
 46.67     484.00
 46.77     518.00
 46.87     492.00
 46.97     476.00
 47.07     529.13
 47.17     546.00
 47.27     520.00
 47.37     481.11
 47.47     492.10
 47.57     563.00
 47.67     563.00
 47.77     586.82
 47.87     597.00
 47.97     594.00
 48.07     597.00
 48.17     583.00
 48.27     511.53
 48.37     511.40
 48.47     522.00
 48.57     576.00
 48.67     568.00
 48.77     513.00
 48.87     502.00
 48.97     514.00
 49.07     549.00
 49.17     524.00
 49.27     568.95
 49.37     583.00
 49.47     594.00
 49.57     687.00
 49.67     869.83
 49.77    1049.62
 49.87    1340.91
 49.97    1758.31
 50.07    2096.67
 50.17    2375.00
 50.27    2408.00
 50.37    2229.00
 50.47    2014.00
 50.57    1481.71
 50.67    1168.66
 50.77     900.00
 50.87     752.00
 50.97     705.00
 51.07     633.00
 51.17     613.00
 51.27     564.52
 51.37     555.10
 51.47     599.00
 51.57     608.00
 51.67     524.00
 51.77     497.97
 51.87     526.00
 51.97     589.00
 52.07     553.00
 52.17     556.00
 52.27     547.68
 52.37     555.00
 52.47     585.55
 52.57     544.08
 52.67     614.00
 52.77     622.15
 52.87     640.01
 52.97     701.00
 53.07     755.49
 53.17     874.00
 53.27     958.00
 53.37    1096.00
 53.47    1184.00
 53.57    1290.00
 53.67    1160.00
 53.77    1017.00
 53.87     922.00
 53.97     844.00
 54.07     718.00
 54.17     612.00
 54.27     656.00
 54.37     590.22
 54.47     578.21
 54.57     586.19
 54.67     562.00
 54.77     527.20
 54.87     565.00
 54.97     601.00
 55.07     571.00
 55.17     573.00
 55.27     610.00
 55.37     601.00
 55.47     513.79
 55.57     570.00
 55.67     591.00
 55.77     594.00
 55.87     594.34
 55.97     658.00
 56.07     695.00
 56.17     727.00
 56.27     906.00
 56.37    1096.00
 56.47    1380.00
 56.57    1642.00
 56.67    2093.00
 56.77    2373.00
 56.87    2445.00
 56.97    2585.00
 57.07    2431.74
 57.17    2074.81
 57.27    1865.00
 57.37    1426.00
 57.47    1200.34
 57.57     953.00
 57.67     845.00
 57.77     733.00
 57.87     739.00
 57.97     651.61
 58.07     737.28
 58.17     719.00
 58.27     735.00
 58.37     848.12
 58.47     862.00
 58.57     925.98
 58.67    1074.00
 58.77    1182.54
 58.87    1279.88
 58.97    1337.21
 59.07    1338.93
 59.17    1382.09
 59.27    1316.00
 59.37    1295.00
 59.47    1221.00
 59.57    1177.00
 59.67    1104.44
 59.77    1100.00
 59.87    1240.00
 59.97    1309.47
 60.07    1337.33
 60.17    1503.00
 60.27    1593.00
 60.37    1556.00
 60.47    1427.00
 60.57    1224.84
 60.67    1146.00
 60.77     938.00
 60.87     855.00
 60.97     769.76
 61.07     743.00
 61.17     640.00
 61.27     677.65
 61.37     626.00
 61.47     655.74
 61.57     747.00
 61.67     828.00
 61.77     928.81
 61.87    1014.00
 61.97    1170.96
 62.07    1384.33
 62.17    1366.00
 62.27    1344.39
 62.37    1328.00
 62.47    1208.00
 62.57    1102.85
 62.67     919.93
 62.77     824.00
 62.87     765.00
 62.97     696.00
 63.07     649.93
 63.17     599.00
 63.27     549.00
 63.37     565.00
 63.47     580.27
 63.57     551.83
 63.67     593.00
 63.77     613.00
 63.87     626.00
 63.97     647.00
 64.07     688.00
 64.17     744.32
 64.27     831.00
 64.37     871.12
 64.47     901.81
 64.57     962.89
 64.67     967.09
 64.77     942.53
 64.87     919.00
 64.97     900.59
 65.07     853.00
 65.17     825.28
 65.27     722.00
 65.37     733.00
 65.47     630.00
 65.57     627.00
 65.67     580.83
 65.77     588.55
 65.87     614.16
 65.97     585.00
 66.07     611.05
 66.17     557.00
 66.27     566.00
 66.37     603.15
 66.47     559.00
 66.57     543.00
 66.67     577.00
 66.77     572.00
 66.87     610.00
 66.97     646.00
 67.07     637.00
 67.17     742.39
 67.27     740.00
 67.37     906.00
 67.47     981.00
 67.57    1158.00
 67.67    1486.06
 67.77    1732.40
 67.87    1950.00
 67.97    2291.00
 68.07    2331.29
 68.17    2318.89
 68.27    2264.00
 68.37    2170.43
 68.47    1936.00
 68.57    1655.00
 68.67    1359.00
 68.77    1215.13
 68.87     981.00
 68.97     820.00
 69.07     698.50
 69.17     645.36
 69.27     660.00
 69.37     606.00
 69.47     635.00
 69.57     563.50
 69.67     619.57
 69.77     556.00
 69.87     575.39
 69.97     538.00
 70.07     539.29
 70.17     519.81
 70.27     586.00
 70.37     559.00
 70.47     564.00
 70.57     564.00
 70.67     607.00
 70.77     578.00
 70.87     598.00
 70.97     607.12
 71.07     669.12
 71.17     727.00
 71.27     770.30
 71.37     879.75
 71.47    1096.00
 71.57    1193.00
 71.67    1352.00
 71.77    1518.00
 71.87    1679.43
 71.97    1776.68
 72.07    1935.00
 72.17    1905.00
 72.27    1782.00
 72.37    1660.00
 72.47    1438.00
 72.57    1348.43
 72.67    1135.62
 72.77    1022.00
 72.87     878.00
 72.97     813.32
 73.07     725.41
 73.17     703.28
 73.27     651.59
 73.37     637.00
 73.47     686.94
 73.57     614.72
 73.67     623.88
 73.77     630.00
 73.87     604.10
 73.97     595.00
 74.07     568.00
 74.17     615.74
 74.27     608.00
 74.37     643.00
 74.47     597.00
 74.57     627.00
 74.67     596.82
 74.77     619.00
 74.87     548.79
 74.97     590.00
 75.07     638.00
 75.17     632.00
 75.27     600.00
 75.37     577.00
 75.47     544.00
 75.57     581.00
 75.67     550.00
 75.77     574.20
 75.87     546.00
 75.97     624.00
 76.07     651.10
 76.17     618.46
 76.27     670.00
 76.37     708.00
 76.47     645.00
 76.57     731.00
 76.67     744.94
 76.77     669.00
 76.87     671.15
 76.97     661.00
 77.07     638.00
 77.17     627.00
 77.27     591.00
 77.37     575.00
 77.47     590.21
 77.57     581.83
 77.67     510.00
 77.77     546.02
 77.87     509.65
 77.97     589.00
 78.07     523.00
 78.17     502.00
 78.27     488.00
 78.37     510.00
 78.47     496.69
 78.57     530.37
 78.67     483.84
 78.77     506.98
 78.87     516.68
 78.97     497.93
 79.07     529.27
 79.17     493.00
 79.27     482.55
 79.37     515.00
 79.47     560.00
 79.57     514.00
 79.67     503.59
 79.77     508.00
 79.87     572.00
 79.97     570.00
 80.07     561.00
 80.17     526.00
 80.27     562.00
 80.37     526.47
 80.47     553.00
 80.57     535.00
 80.67     591.00
 80.77     612.00
 80.87     677.00
 80.97     653.00
 81.07     677.00
 81.17     743.77
 81.27     777.50
 81.37     795.42
 81.47     785.61
 81.57     761.48
 81.67     791.00
 81.77     711.00
 81.87     737.83
 81.97     716.00
 82.07     663.39
 82.17     667.44
 82.27     631.00
 82.37     612.37
 82.47     637.11
 82.57     590.29
 82.67     559.42
 82.77     559.66
 82.87     548.34
 82.97     515.00
 83.07     584.80
 83.17     538.00
 83.27     538.08
 83.37     508.93
 83.47     589.00
 83.57     583.70
 83.67     525.42
 83.77     527.00
 83.87     567.00
 83.97     556.27
 84.07     540.00
 84.17     577.00
 84.27     550.89
 84.37     538.00
 84.47     551.00
 84.57     520.00
 84.67     518.00
 84.77     513.00
 84.87     554.85
 84.97     510.99
 85.07     506.00
 85.17     538.00
 85.27     523.00
 85.37     520.00
 85.47     494.81
 85.57     537.00
 85.67     545.00
 85.77     552.59
 85.87     505.00
 85.97     479.35
 86.07     538.00
 86.17     517.00
 86.27     508.00
 86.37     487.00
 86.47     548.00
 86.57     542.85
 86.67     574.23
 86.77     571.00
 86.87     598.05
 86.97     558.56
 87.07     632.00
 87.17     590.69
 87.27     595.51
 87.37     600.00
 87.47     608.58
 87.57     677.00
 87.67     580.25
 87.77     659.00
 87.87     618.00
 87.97     588.97
 88.07     616.00
 88.17     590.00
 88.27     567.00
 88.37     575.00
 88.47     570.00
 88.57     529.00
 88.67     554.72
 88.77     575.00
 88.87     571.00
 88.97     569.00
 89.07     595.00
 89.17     592.81
 89.27     625.53
 89.37     630.16
 89.47     603.00
 89.57     590.00
 89.67     591.00
 89.77     579.00
 89.87     595.00
 89.97     543.00
 90.07     546.00
 90.17     539.97
 90.27     548.00
 90.37     545.00
 90.47     529.56
 90.57     516.83
 90.67     506.00
 90.77     504.00
 90.87     556.05
 90.97     534.00
 91.07     505.00
 91.17     531.00
 91.27     531.00
 91.37     488.26
 91.47     554.00
 91.57     527.00
 91.67     545.47
 91.77     485.00
 91.87     497.00
 91.97     536.54
 92.07     562.00
 92.17     550.00
 92.27     572.00
 92.37     583.19
 92.47     599.00
 92.57     655.00
 92.67     668.17
 92.77     642.00
 92.87     669.00
 92.97     652.00
 93.07     734.00
 93.17     705.00
 93.27     762.91
 93.37     765.00
 93.47     786.00
 93.57     806.26
 93.67     750.00
 93.77     809.46
 93.87     780.47
 93.97     834.00
 94.07     865.00
 94.17     859.19
 94.27     849.00
 94.37     864.00
 94.47     929.00
 94.57     925.30
 94.67     907.35
 94.77     884.00
 94.87     921.00
 94.97     851.00
 95.07     937.00
 95.17     917.00
 95.27     853.00
 95.37     850.00
 95.47     792.00
 95.57     769.00
 95.67     760.00
 95.77     706.00
 95.87     695.00
 95.97     695.00
 96.07     683.00
 96.17     737.97
 96.27     732.81
 96.37     707.00
 96.47     839.71
 96.57     819.00
 96.67     854.47
 96.77     971.00
 96.87    1000.32
 96.97    1092.96
 97.07    1197.00
 97.17    1300.00
 97.27    1271.80
 97.37    1347.00
 97.47    1436.00
 97.57    1393.18
 97.67    1430.00
 97.77    1396.00
 97.87    1427.00
 97.97    1289.00
 98.07    1291.05
 98.17    1200.13
 98.27    1199.00
 98.37    1073.00
 98.47     990.00
 98.57     908.00
 98.67     931.00
 98.77     833.00
 98.87     822.00
 98.97     840.00
 99.07     806.89
 99.17     860.00
 99.27     872.62
 99.37     941.29
 99.47    1038.00
 99.57    1084.00
 99.67    1149.86
 99.77    1304.36
 99.87    1351.00
 99.97    1480.00
100.07    1591.00
100.17    1708.96
100.27    1683.00
100.37    1786.00
100.47    2003.00
100.57    1951.91
100.67    2080.73
100.77    1941.08
100.87    2025.00
100.97    2073.66
101.07    1981.00
101.17    1921.81
101.27    1887.00
101.37    1735.00
101.47    1595.16
101.57    1560.00
101.67    1488.00
101.77    1429.00
101.87    1316.00
101.97    1233.40
102.07    1200.00
102.17    1223.18
102.27    1214.00
102.37    1173.37
102.47    1133.00
102.57    1090.00
102.67    1139.48
102.77    1098.00
102.87    1090.90
102.97    1009.85
103.07     918.04
103.17     937.00
103.27     871.00
103.37     829.00
103.47     844.58
103.57     798.00
103.67     717.00
103.77     681.24
103.87     710.00
103.97     677.00
104.07     642.00
104.17     622.80
104.27     571.00
104.37     627.00
104.47     576.27
104.57     557.00
104.67     598.00
104.77     552.00
104.87     560.00
104.97     505.12
105.07     527.82
105.17     575.00
105.27     561.12
105.37     521.00
105.47     538.00
105.57     517.00
105.67     583.00
105.77     573.22
105.87     571.51
105.97     528.40
106.07     565.00
106.17     576.60
106.27     589.47
106.37     624.00
106.47     586.54
106.57     612.00
106.67     649.00
106.77     648.02
106.87     688.00
106.97     683.00
107.07     648.39
107.17     714.00
107.27     666.10
107.37     675.00
107.47     676.56
107.57     651.00
107.67     707.34
107.77     687.76
107.87     684.04
107.97     696.00
108.07     630.00
108.17     680.00
108.27     730.60
108.37     678.00
108.47     693.00
108.57     665.00
108.67     651.19
108.77     652.18
108.87     680.00
108.97     687.00
109.07     651.56
109.17     638.83
109.27     683.26
109.37     685.39
109.47     651.00
109.57     603.00
109.67     608.87
109.77     616.00
109.87     557.00
109.97     628.50
110.07     576.00
110.17     596.00
110.27     544.40
110.37     561.00
110.47     553.00
110.57     585.00
110.67     536.89
110.77     592.00
110.87     537.00
110.97     554.00
111.07     513.00
111.17     538.00
111.27     519.00
111.37     533.84
111.47     528.00
111.57     574.10
111.67     536.00
111.77     567.22
111.87     581.79
111.97     559.00
112.07     526.44
112.17     598.00
112.27     529.62
112.37     573.00
112.47     619.15
112.57     630.06
112.67     570.00
112.77     610.00
112.87     601.00
112.97     654.16
113.07     606.00
113.17     616.00
113.27     597.00
113.37     587.00
113.47     653.55
113.57     715.67
113.67     683.00
113.77     752.71
113.87     744.00
113.97     775.00
114.07     859.95
114.17     868.59
114.27    1019.34
114.37    1051.00
114.47    1073.46
114.57    1241.00
114.67    1359.00
114.77    1466.95
114.87    1657.35
114.97    1811.42
115.07    2076.92
115.17    2373.00
115.27    2592.74
115.37    2760.95
115.47    3162.00
115.57    3453.84
115.67    3871.00
115.77    4359.93
115.87    4542.00
115.97    4902.24
116.07    5362.00
116.17    5708.00
116.27    5994.00
116.37    6241.00
116.47    6537.00
116.57    6753.00
116.67    6747.00
116.77    6657.31
116.87    6757.00
116.97    6456.49
117.07    6495.00
117.17    6189.00
117.27    5864.00
117.37    5543.00
117.47    5108.00
117.57    4955.00
117.67    4577.00
117.77    4119.63
117.87    3719.01
117.97    3397.80
118.07    3106.90
118.17    2867.00
118.27    2570.00
118.37    2279.00
118.47    1939.00
118.57    1813.00
118.67    1630.00
118.77    1428.39
118.87    1228.00
118.97    1177.07
119.07    1096.51
119.17    1034.22
119.27     897.00
119.37     892.00
119.47     816.00
119.57     778.00
119.67     717.63
119.77     715.05
119.87     678.90
119.97     657.62
120.07     620.40
120.17     596.00
120.27     607.00
120.37     577.34
120.47     576.87
120.57     569.00
120.67     574.00
120.77     593.00
120.87     616.00
120.97     564.77
121.07     536.00
121.17     576.00
121.27     539.81
121.37     600.64
121.47     565.00
121.57     624.94
121.67     610.00
121.77     644.00
121.87     589.00
121.97     577.00
122.07     609.00
122.17     601.00
122.27     588.00
122.37     662.00
122.47     635.00
122.57     581.78
122.67     646.00
122.77     642.00
122.87     640.00
122.97     632.84
123.07     617.00
123.17     615.00
123.27     610.00
123.37     660.00
123.47     641.73
123.57     618.32
123.67     659.00
123.77     632.00
123.87     655.41
123.97     595.00
124.07     617.06
124.17     593.00
124.27     605.00
124.37     642.00
124.47     595.00
124.57     625.84
124.67     598.00
124.77     562.00
124.87     596.00
124.97     563.00
