  9.97     583.45
 10.07     601.00
 10.17     598.00
 10.27     616.89
 10.37     578.00
 10.47     576.48
 10.57     575.00
 10.67     599.00
 10.77     549.00
 10.87     622.00
 10.97     571.79
 11.07     584.00
 11.17     591.00
 11.27     603.00
 11.37     584.14
 11.47     542.13
 11.57     594.00
 11.67     562.51
 11.77     560.35
 11.87     661.00
 11.97     644.00
 12.07     676.00
 12.17     676.00
 12.27     683.00
 12.37     710.56
 12.47     654.00
 12.57     651.58
 12.67     576.54
 12.77     601.71
 12.87     595.00
 12.97     543.00
 13.07     550.00
 13.17     572.52
 13.27     615.46
 13.37     598.00
 13.47     547.00
 13.57     595.42
 13.67     576.00
 13.77     581.00
 13.87     534.17
 13.97     539.02
 14.07     575.09
 14.17     535.19
 14.27     600.23
 14.37     571.31
 14.47     581.00
 14.57     544.20
 14.67     555.17
 14.77     588.49
 14.87     614.05
 14.97     571.00
 15.07     540.31
 15.17     594.77
 15.27     571.80
 15.37     523.00
 15.47     535.00
 15.57     610.05
 15.67     528.09
 15.77     534.00
 15.87     568.02
 15.97     536.00
 16.07     525.05
 16.17     562.00
 16.27     595.00
 16.37     561.68
 16.47     526.77
 16.57     582.00
 16.67     567.00
 16.77     562.10
 16.87     606.00
 16.97     544.57
 17.07     544.00
 17.17     569.00
 17.27     573.00
 17.37     574.00
 17.47     546.00
 17.57     537.00
 17.67     547.00
 17.77     498.00
 17.87     584.03
 17.97     520.00
 18.07     549.00
 18.17     551.00
 18.27     575.00
 18.37     558.96
 18.47     556.80
 18.57     574.00
 18.67     605.58
 18.77     559.00
 18.87     551.70
 18.97     527.08
 19.07     561.00
 19.17     605.95
 19.27     523.00
 19.37     582.18
 19.47     529.00
 19.57     512.87
 19.67     582.00
 19.77     530.00
 19.87     557.00
 19.97     609.00
 20.07     533.00
 20.17     530.07
 20.27     556.82
 20.37     575.83
 20.47     562.00
 20.57     523.00
 20.67     570.00
 20.77     584.66
 20.87     545.00
 20.97     510.00
 21.07     578.00
 21.17     569.70
 21.27     579.00
 21.37     562.00
 21.47     530.88
 21.57     568.46
 21.67     556.00
 21.77     524.00
 21.87     539.10
 21.97     589.64
 22.07     579.59
 22.17     556.00
 22.27     579.71
 22.37     585.72
 22.47     580.04
 22.57     532.00
 22.67     558.00
 22.77     536.00
 22.87     550.00
 22.97     533.00
 23.07     559.00
 23.17     550.00
 23.27     547.18
 23.37     550.00
 23.47     563.00
 23.57     616.00
 23.67     585.00
 23.77     542.00
 23.87     563.99
 23.97     567.00
 24.07     550.18
 24.17     577.00
 24.27     526.52
 24.37     553.00
 24.47     618.00
 24.57     554.00
 24.67     641.00
 24.77     598.00
 24.87     631.00
 24.97     583.00
 25.07     620.33
 25.17     545.00
 25.27     589.00
 25.37     527.00
 25.47     585.00
 25.57     530.00
 25.67     557.00
 25.77     521.00
 25.87     586.00
 25.97     567.00
 26.07     541.00
 26.17     550.96
 26.27     551.00
 26.37     535.00
 26.47     546.00
 26.57     556.92
 26.67     545.32
 26.77     568.00
 26.87     540.04
 26.97     598.00
 27.07     534.00
 27.17     573.00
 27.27     538.94
 27.37     598.00
 27.47     582.29
 27.57     538.95
 27.67     595.58
 27.77     587.00
 27.87     599.18
 27.97     687.82
 28.07     793.00
 28.17     912.07
 28.27     982.00
 28.37     868.35
 28.47     788.40
 28.57     708.00
 28.67     718.81
 28.77     734.00
 28.87     753.00
 28.97     828.33
 29.07     773.00
 29.17     679.00
 29.27     641.00
 29.37     597.00
 29.47     603.00
 29.57     575.86
 29.67     603.00
 29.77     582.00
 29.87     608.00
 29.97     545.00
 30.07     571.00
 30.17     602.00
 30.27     556.00
 30.37     521.00
 30.47     597.00
 30.57     540.44
 30.67     565.53
 30.77     581.00
 30.87     622.00
 30.97     614.00
 31.07     649.00
 31.17     605.00
 31.27     532.84
 31.37     570.00
 31.47     569.00
 31.57     543.00
 31.67     506.95
 31.77     518.08
 31.87     529.00
 31.97     558.47
 32.07     558.58
 32.17     516.91
 32.27     553.00
 32.37     541.55
 32.47     541.00
 32.57     537.00
 32.67     539.27
 32.77     548.62
 32.87     588.00
 32.97     532.00
 33.07     550.00
 33.17     565.00
 33.27     542.00
 33.37     532.72
 33.47     529.00
 33.57     624.00
 33.67     591.16
 33.77     699.00
 33.87     863.41
 33.97    1001.04
 34.07    1075.00
 34.17    1068.14
 34.27     924.45
 34.37     755.00
 34.47     595.00
 34.57     552.10
 34.67     592.00
 34.77     546.00
 34.87     502.40
 34.97     499.07
 35.07     499.93
 35.17     507.00
 35.27     560.00
 35.37     454.00
 35.47     571.00
 35.57     473.00
 35.67     522.00
 35.77     511.00
 35.87     516.00
 35.97     516.00
 36.07     549.63
 36.17     531.00
 36.27     483.00
 36.37     488.00
 36.47     508.00
 36.57     507.00
 36.67     482.46
 36.77     503.00
 36.87     486.00
 36.97     507.00
 37.07     522.00
 37.17     535.78
 37.27     539.00
 37.37     512.00
 37.47     546.11
 37.57     509.00
 37.67     570.10
 37.77     566.89
 37.87     538.23
 37.97     504.24
 38.07     522.00
 38.17     501.00
 38.27     556.00
 38.37     507.00
 38.47     509.28
 38.57     510.00
 38.67     523.00
 38.77     493.59
 38.87     526.31
 38.97     537.00
 39.07     480.61
 39.17     479.39
 39.27     483.31
 39.37     492.00
 39.47     499.00
 39.57     543.00
 39.67     524.94
 39.77     510.00
 39.87     538.67
 39.97     550.99
 40.07     493.00
 40.17     529.46
 40.27     482.00
 40.37     531.00
 40.47     461.00
 40.57     479.00
 40.67     512.00
 40.77     520.00
 40.87     457.00
 40.97     491.00
 41.07     476.00
 41.17     469.00
 41.27     515.00
 41.37     470.00
 41.47     488.00
 41.57     513.00
 41.67     490.26
 41.77     487.92
 41.87     503.00
 41.97     481.00
 42.07     530.00
 42.17     496.00
 42.27     515.72
 42.37     516.00
 42.47     589.09
 42.57     637.61
 42.67     608.00
 42.77     594.00
 42.87     567.00
 42.97     528.19
 43.07     503.00
 43.17     511.00
 43.27     556.64
 43.37     505.00
 43.47     503.00
 43.57     539.21
 43.67     551.77
 43.77     553.07
 43.87     480.92
 43.97     482.28
 44.07     472.23
 44.17     534.55
 44.27     541.00
 44.37     518.13
 44.47     550.14
 44.57     503.00
 44.67     487.59
 44.77     491.00
 44.87     499.00
 44.97     531.00
 45.07     541.00
 45.17     477.41
 45.27     517.00
 45.37     493.98
 45.47     558.00
 45.57     497.00
 45.67     514.00
 45.77     526.54
 45.87     462.00
 45.97     509.00
 46.07     477.00
 46.17     529.00
 46.27     493.77
 46.37     511.00
 46.47     518.00
 46.57     484.00
 46.67     501.00
 46.77     477.69
 46.87     506.00
 46.97     526.00
 47.07     512.00
 47.17     471.00
 47.27     503.80
 47.37     505.55
 47.47     512.34
 47.57     559.47
 47.67     531.14
 47.77     581.00
 47.87     614.00
 47.97     610.00
 48.07     601.00
 48.17     535.00
 48.27     566.20
 48.37     581.27
 48.47     522.75
 48.57     493.34
 48.67     515.64
 48.77     553.00
 48.87     555.00
 48.97     554.00
 49.07     589.00
 49.17     631.00
 49.27     658.00
 49.37     645.00
 49.47     707.48
 49.57     727.53
 49.67     910.00
 49.77    1128.00
 49.87    1468.00
 49.97    1936.34
 50.07    2303.00
 50.17    2503.00
 50.27    2576.00
 50.37    2332.00
 50.47    1859.20
 50.57    1453.24
 50.67    1056.00
 50.77     916.56
 50.87     748.00
 50.97     652.37
 51.07     575.00
 51.17     648.06
 51.27     607.00
 51.37     570.00
 51.47     606.19
 51.57     545.00
 51.67     597.00
 51.77     563.00
 51.87     542.00
 51.97     573.00
 52.07     553.00
 52.17     542.39
 52.27     552.00
 52.37     518.12
 52.47     607.00
 52.57     592.00
 52.67     597.00
 52.77     559.01
 52.87     664.55
 52.97     660.28
 53.07     821.00
 53.17     921.00
 53.27    1053.17
 53.37    1114.66
 53.47    1197.00
 53.57    1190.00
 53.67    1079.00
 53.77    1000.00
 53.87     885.00
 53.97     793.79
 54.07     649.00
 54.17     601.00
 54.27     592.20
 54.37     554.00
 54.47     566.00
 54.57     515.43
 54.67     543.44
 54.77     518.29
 54.87     572.00
 54.97     576.00
 55.07     546.00
 55.17     516.85
 55.27     563.00
 55.37     533.00
 55.47     585.00
 55.57     548.04
 55.67     557.38
 55.77     578.00
 55.87     560.77
 55.97     634.00
 56.07     644.00
 56.17     696.00
 56.27     938.00
 56.37    1070.00
 56.47    1352.00
 56.57    1787.43
 56.67    2094.00
 56.77    2542.00
 56.87    2608.00
 56.97    2641.00
 57.07    2304.29
 57.17    2067.00
 57.27    1586.00
 57.37    1307.02
 57.47    1076.00
 57.57     831.00
 57.67     767.00
 57.77     693.87
 57.87     621.00
 57.97     649.00
 58.07     684.00
 58.17     728.80
 58.27     807.00
 58.37     845.00
 58.47    1025.58
 58.57    1091.00
 58.67    1228.00
 58.77    1327.34
 58.87    1547.00
 58.97    1500.67
 59.07    1543.00
 59.17    1443.80
 59.27    1426.04
 59.37    1391.00
 59.47    1238.00
 59.57    1131.00
 59.67    1111.96
 59.77    1138.00
 59.87    1293.00
 59.97    1367.00
 60.07    1396.58
 60.17    1538.87
 60.27    1588.00
 60.37    1552.00
 60.47    1438.00
 60.57    1165.26
 60.67    1100.00
 60.77     873.00
 60.87     808.00
 60.97     701.00
 61.07     680.00
 61.17     628.00
 61.27     620.00
 61.37     612.00
 61.47     668.61
 61.57     697.41
 61.67     831.25
 61.77     877.00
 61.87    1142.10
 61.97    1250.00
 62.07    1294.00
 62.17    1389.98
 62.27    1388.00
 62.37    1317.00
 62.47    1281.00
 62.57    1058.20
 62.67     861.00
 62.77     805.00
 62.87     731.39
 62.97     609.00
 63.07     573.71
 63.17     567.00
 63.27     552.55
 63.37     574.00
 63.47     588.00
 63.57     538.09
 63.67     591.00
 63.77     609.54
 63.87     578.69
 63.97     645.73
 64.07     685.00
 64.17     813.00
 64.27     877.44
 64.37     863.00
 64.47     968.00
 64.57     996.00
 64.67    1065.00
 64.77     945.54
 64.87     981.00
 64.97     957.00
 65.07     862.00
 65.17     823.00
 65.27     726.00
 65.37     690.00
 65.47     656.00
 65.57     667.11
 65.67     645.11
 65.77     562.59
 65.87     516.00
 65.97     563.70
 66.07     599.83
 66.17     526.00
 66.27     555.69
 66.37     559.00
 66.47     516.05
 66.57     553.05
 66.67     562.00
 66.77     579.17
 66.87     545.59
 66.97     566.00
 67.07     658.00
 67.17     672.97
 67.27     722.00
 67.37     904.82
 67.47    1071.00
 67.57    1195.21
 67.67    1475.00
 67.77    1728.85
 67.87    2064.95
 67.97    2335.00
 68.07    2427.15
 68.17    2376.00
 68.27    2213.00
 68.37    2136.00
 68.47    1760.00
 68.57    1591.00
 68.67    1294.86
 68.77    1017.00
 68.87     872.00
 68.97     782.00
 69.07     721.00
 69.17     641.00
 69.27     635.88
 69.37     618.00
 69.47     573.00
 69.57     578.64
 69.67     593.00
 69.77     543.00
 69.87     537.75
 69.97     552.53
 70.07     544.09
 70.17     564.00
 70.27     583.27
 70.37     638.00
 70.47     571.00
 70.57     528.00
 70.67     568.00
 70.77     562.00
 70.87     568.00
 70.97     656.73
 71.07     669.00
 71.17     715.00
 71.27     785.00
 71.37     998.00
 71.47    1035.00
 71.57    1250.00
 71.67    1425.00
 71.77    1590.00
 71.87    1740.00
 71.97    1887.00
 72.07    2037.00
 72.17    1841.00
 72.27    1721.66
 72.37    1698.00
 72.47    1521.68
 72.57    1286.27
 72.67    1171.67
 72.77    1109.00
 72.87     933.00
 72.97     921.74
 73.07     808.00
 73.17     779.33
 73.27     715.87
 73.37     653.00
 73.47     646.00
 73.57     642.52
 73.67     633.36
 73.77     582.00
 73.87     604.00
 73.97     562.00
 74.07     630.00
 74.17     583.54
 74.27     596.00
 74.37     616.12
 74.47     557.67
 74.57     527.04
 74.67     526.07
 74.77     646.00
 74.87     612.06
 74.97     619.00
 75.07     538.10
 75.17     587.00
 75.27     543.87
 75.37     553.00
 75.47     571.96
 75.57     568.00
 75.67     533.00
 75.77     543.00
 75.87     558.00
 75.97     599.00
 76.07     639.00
 76.17     615.47
 76.27     628.84
 76.37     677.00
 76.47     688.00
 76.57     683.00
 76.67     706.00
 76.77     669.00
 76.87     666.00
 76.97     641.22
 77.07     616.00
 77.17     569.00
 77.27     578.00
 77.37     578.57
 77.47     590.92
 77.57     538.00
 77.67     499.00
 77.77     525.00
 77.87     515.00
 77.97     540.94
 78.07     518.51
 78.17     549.13
 78.27     540.70
 78.37     501.52
 78.47     553.00
 78.57     493.75
 78.67     549.00
 78.77     540.00
 78.87     482.00
 78.97     494.00
 79.07     532.00
 79.17     531.74
 79.27     543.00
 79.37     577.00
 79.47     541.00
 79.57     551.00
 79.67     520.00
 79.77     567.00
 79.87     545.00
 79.97     543.00
 80.07     531.00
 80.17     589.00
 80.27     588.60
 80.37     577.00
 80.47     625.05
 80.57     596.50
 80.67     667.00
 80.77     658.00
 80.87     724.09
 80.97     670.00
 81.07     728.00
 81.17     772.00
 81.27     727.00
 81.37     708.16
 81.47     760.47
 81.57     733.38
 81.67     780.42
 81.77     722.00
 81.87     653.14
 81.97     742.00
 82.07     674.00
 82.17     586.00
 82.27     655.48
 82.37     657.00
 82.47     645.96
 82.57     599.00
 82.67     582.16
 82.77     568.89
 82.87     580.00
 82.97     555.00
 83.07     535.00
 83.17     588.88
 83.27     552.00
 83.37     525.89
 83.47     543.75
 83.57     569.91
 83.67     500.00
 83.77     577.00
 83.87     513.00
 83.97     543.95
 84.07     589.00
 84.17     533.00
 84.27     625.00
 84.37     608.65
 84.47     604.71
 84.57     574.00
 84.67     532.00
 84.77     547.00
 84.87     552.00
 84.97     503.15
 85.07     550.00
 85.17     570.00
 85.27     489.05
 85.37     545.00
 85.47     477.00
 85.57     513.00
 85.67     539.00
 85.77     478.00
 85.87     486.00
 85.97     556.72
 86.07     534.69
 86.17     544.00
 86.27     559.00
 86.37     543.00
 86.47     581.57
 86.57     586.00
 86.67     556.29
 86.77     594.00
 86.87     612.12
 86.97     643.00
 87.07     598.00
 87.17     643.94
 87.27     601.84
 87.37     652.00
 87.47     603.00
 87.57     654.31
 87.67     638.04
 87.77     622.25
 87.87     643.00
 87.97     641.00
 88.07     647.00
 88.17     566.00
 88.27     615.00
 88.37     577.00
 88.47     522.72
 88.57     630.00
 88.67     623.00
 88.77     609.25
 88.87     536.13
 88.97     580.00
 89.07     622.00
 89.17     650.00
 89.27     589.80
 89.37     593.49
 89.47     581.62
 89.57     551.00
 89.67     588.00
 89.77     549.00
 89.87     559.00
 89.97     578.00
 90.07     589.14
 90.17     570.00
 90.27     543.00
 90.37     514.00
 90.47     543.00
 90.57     519.00
 90.67     520.85
 90.77     518.00
 90.87     552.00
 90.97     528.00
 91.07     488.00
 91.17     561.73
 91.27     531.00
 91.37     492.00
 91.47     519.00
 91.57     505.38
 91.67     557.00
 91.77     541.00
 91.87     548.00
 91.97     582.95
 92.07     559.00
 92.17     581.74
 92.27     557.00
 92.37     578.64
 92.47     625.48
 92.57     663.00
 92.67     679.00
 92.77     661.00
 92.87     661.65
 92.97     730.00
 93.07     793.00
 93.17     778.00
 93.27     785.00
 93.37     860.00
 93.47     789.00
 93.57     794.12
 93.67     861.00
 93.77     775.32
 93.87     827.00
 93.97     951.00
 94.07     880.00
 94.17     842.59
 94.27     932.00
 94.37     818.71
 94.47     876.00
 94.57     888.00
 94.67     891.00
 94.77     945.00
 94.87     914.00
 94.97     977.00
 95.07     823.15
 95.17     881.00
 95.27     835.00
 95.37     780.00
 95.47     828.00
 95.57     719.00
 95.67     721.00
 95.77     714.50
 95.87     679.02
 95.97     637.97
 96.07     664.00
 96.17     703.00
 96.27     686.78
 96.37     732.00
 96.47     797.00
 96.57     833.00
 96.67     865.00
 96.77     942.00
 96.87    1045.99
 96.97    1069.00
 97.07    1207.00
 97.17    1351.27
 97.27    1359.55
 97.37    1418.57
 97.47    1426.24
 97.57    1401.19
 97.67    1467.41
 97.77    1475.00
 97.87    1324.00
 97.97    1235.14
 98.07    1234.00
 98.17    1127.00
 98.27    1137.00
 98.37    1038.13
 98.47     898.00
 98.57     894.00
 98.67     895.00
 98.77     799.00
 98.87     814.49
 98.97     804.54
 99.07     769.09
 99.17     793.91
 99.27     847.42
 99.37     905.43
 99.47     965.00
 99.57    1178.00
 99.67    1239.88
 99.77    1234.00
 99.87    1392.00
 99.97    1462.00
100.07    1697.00
100.17    1783.92
100.27    1808.80
100.37    1975.00
100.47    1944.44
100.57    2127.72
100.67    2060.53
100.77    2074.42
100.87    2086.00
100.97    2091.00
101.07    2024.00
101.17    1951.17
101.27    1780.00
101.37    1651.00
101.47    1592.00
101.57    1540.00
101.67    1378.73
101.77    1399.00
101.87    1260.00
101.97    1234.00
102.07    1196.00
102.17    1075.00
102.27    1144.55
102.37    1185.00
102.47    1115.15
102.57    1042.00
102.67    1053.72
102.77     976.89
102.87     952.00
102.97     950.00
103.07     902.00
103.17     864.00
103.27     863.35
103.37     810.00
103.47     711.36
103.57     767.00
103.67     709.00
103.77     711.37
103.87     588.96
103.97     617.00
104.07     601.00
104.17     578.00
104.27     543.01
104.37     576.40
104.47     596.55
104.57     553.07
104.67     497.53
104.77     523.00
104.87     543.63
104.97     542.00
105.07     534.00
105.17     552.00
105.27     568.81
105.37     562.72
105.47     549.45
105.57     559.00
105.67     520.83
105.77     583.54
105.87     526.26
105.97     571.00
106.07     533.00
106.17     627.00
106.27     578.00
106.37     574.34
106.47     659.00
106.57     581.00
106.67     626.00
106.77     644.00
106.87     645.00
106.97     714.48
107.07     633.00
107.17     704.00
107.27     701.78
107.37     748.86
107.47     654.00
107.57     669.00
107.67     742.46
107.77     683.00
107.87     683.08
107.97     695.00
108.07     618.00
108.17     717.30
108.27     722.44
108.37     640.00
108.47     642.00
108.57     650.50
108.67     745.94
108.77     664.00
108.87     679.00
108.97     696.52
109.07     662.19
109.17     699.00
109.27     621.25
109.37     641.00
109.47     654.00
109.57     640.00
109.67     631.00
109.77     609.00
109.87     613.00
109.97     586.00
110.07     590.00
110.17     636.00
110.27     555.00
110.37     584.00
110.47     565.00
110.57     573.00
110.67     566.00
110.77     534.00
110.87     502.72
110.97     548.00
111.07     572.00
111.17     541.00
111.27     527.00
111.37     527.00
111.47     536.00
111.57     559.49
111.67     579.00
111.77     510.68
111.87     551.00
111.97     593.00
112.07     600.69
112.17     574.49
112.27     593.00
112.37     570.00
112.47     562.00
112.57     587.68
112.67     608.00
112.77     652.00
112.87     657.00
112.97     649.84
113.07     662.00
113.17     761.78
113.27     749.00
113.37     785.00
113.47     816.00
113.57     810.00
113.67     893.00
113.77     930.53
113.87     944.21
113.97    1048.28
114.07    1039.00
114.17    1110.00
114.27    1152.22
114.37    1200.00
114.47    1402.53
114.57    1503.00
114.67    1573.00
114.77    1774.63
114.87    1928.00
114.97    2067.75
115.07    2277.00
115.17    2466.62
115.27    2939.00
115.37    3250.00
115.47    3437.00
115.57    3783.00
115.67    4264.20
115.77    4437.00
115.87    4741.00
115.97    5257.83
116.07    5576.85
116.17    6177.21
116.27    6413.00
116.37    6701.00
116.47    6676.00
116.57    6747.14
116.67    7057.00
116.77    6895.00
116.87    6985.00
116.97    6810.00
117.07    6274.00
117.17    6126.00
117.27    5675.23
117.37    5438.00
117.47    4929.00
117.57    4665.00
117.67    4219.00
117.77    3950.00
117.87    3669.00
117.97    3127.23
118.07    2914.99
118.17    2474.48
118.27    2198.00
118.37    1968.00
118.47    1667.00
118.57    1524.00
118.67    1375.00
118.77    1270.60
118.87    1187.10
118.97    1075.96
119.07     934.26
119.17     927.00
119.27     860.74
119.37     775.00
119.47     744.00
119.57     734.83
119.67     691.00
119.77     614.00
119.87     623.03
119.97     560.00
120.07     599.00
120.17     588.00
120.27     575.03
120.37     630.21
120.47     557.91
120.57     578.00
120.67     568.00
120.77     530.15
120.87     550.65
120.97     604.00
121.07     565.00
121.17     560.72
121.27     576.00
121.37     544.00
121.47     567.76
121.57     589.00
121.67     633.85
121.77     558.66
121.87     640.14
121.97     627.83
122.07     609.00
122.17     590.00
122.27     626.00
122.37     646.00
122.47     621.00
122.57     651.43
122.67     605.00
122.77     632.00
122.87     692.00
122.97     618.00
123.07     608.94
123.17     687.00
123.27     691.00
123.37     604.53
123.47     672.00
123.57     607.00
123.67     666.00
123.77     634.00
123.87     603.00
123.97     653.00
124.07     661.90
124.17     635.20
124.27     636.00
124.37     633.00
124.47     569.52
124.57     609.00
124.67     551.61
124.77     601.00
124.87     541.00
124.97     607.50
