  9.97     547.00
 10.07     605.00
 10.17     612.00
 10.27     568.54
 10.37     592.00
 10.47     619.00
 10.57     613.41
 10.67     594.00
 10.77     574.26
 10.87     611.00
 10.97     598.17
 11.07     575.81
 11.17     585.00
 11.27     538.33
 11.37     598.00
 11.47     608.00
 11.57     534.84
 11.67     626.00
 11.77     586.00
 11.87     621.37
 11.97     673.00
 12.07     730.00
 12.17     722.58
 12.27     629.00
 12.37     591.00
 12.47     639.00
 12.57     607.96
 12.67     587.00
 12.77     594.00
 12.87     600.00
 12.97     560.00
 13.07     552.00
 13.17     560.00
 13.27     564.00
 13.37     559.00
 13.47     557.53
 13.57     519.00
 13.67     576.00
 13.77     548.00
 13.87     565.00
 13.97     578.00
 14.07     572.00
 14.17     555.91
 14.27     578.64
 14.37     615.79
 14.47     559.74
 14.57     552.00
 14.67     566.32
 14.77     593.00
 14.87     618.00
 14.97     609.74
 15.07     549.00
 15.17     613.50
 15.27     587.66
 15.37     550.00
 15.47     550.00
 15.57     554.00
 15.67     555.00
 15.77     580.00
 15.87     572.00
 15.97     566.00
 16.07     605.24
 16.17     607.00
 16.27     590.21
 16.37     597.00
 16.47     541.00
 16.57     595.88
 16.67     524.70
 16.77     587.00
 16.87     543.60
 16.97     549.00
 17.07     532.17
 17.17     553.00
 17.27     561.00
 17.37     528.00
 17.47     534.00
 17.57     566.95
 17.67     563.00
 17.77     587.87
 17.87     522.98
 17.97     565.00
 18.07     601.75
 18.17     525.00
 18.27     536.00
 18.37     525.00
 18.47     599.00
 18.57     556.82
 18.67     551.00
 18.77     530.00
 18.87     542.00
 18.97     586.25
 19.07     539.00
 19.17     558.00
 19.27     562.00
 19.37     546.59
 19.47     543.00
 19.57     568.00
 19.67     576.00
 19.77     548.26
 19.87     547.00
 19.97     545.00
 20.07     534.00
 20.17     551.00
 20.27     538.00
 20.37     534.62
 20.47     547.00
 20.57     579.00
 20.67     592.28
 20.77     522.00
 20.87     551.00
 20.97     541.89
 21.07     541.38
 21.17     542.89
 21.27     527.00
 21.37     524.00
 21.47     549.00
 21.57     564.00
 21.67     534.00
 21.77     530.09
 21.87     570.00
 21.97     565.00
 22.07     515.44
 22.17     553.00
 22.27     513.45
 22.37     573.66
 22.47     576.08
 22.57     582.00
 22.67     510.34
 22.77     538.00
 22.87     549.00
 22.97     512.68
 23.07     516.00
 23.17     599.00
 23.27     564.00
 23.37     518.00
 23.47     590.72
 23.57     548.00
 23.67     534.00
 23.77     548.00
 23.87     514.27
 23.97     547.20
 24.07     593.13
 24.17     545.00
 24.27     537.00
 24.37     609.00
 24.47     595.00
 24.57     574.00
 24.67     577.00
 24.77     662.83
 24.87     599.00
 24.97     605.52
 25.07     556.66
 25.17     588.00
 25.27     512.56
 25.37     550.00
 25.47     545.23
 25.57     571.00
 25.67     527.00
 25.77     551.00
 25.87     569.00
 25.97     634.00
 26.07     543.00
 26.17     538.27
 26.27     551.25
 26.37     510.00
 26.47     536.00
 26.57     556.00
 26.67     543.00
 26.77     544.04
 26.87     533.00
 26.97     583.55
 27.07     514.01
 27.17     551.00
 27.27     618.00
 27.37     581.00
 27.47     589.00
 27.57     504.09
 27.67     518.00
 27.77     602.00
 27.87     614.94
 27.97     666.00
 28.07     777.23
 28.17     877.95
 28.27     975.52
 28.37     857.09
 28.47     804.69
 28.57     659.00
 28.67     661.37
 28.77     754.00
 28.87     816.00
 28.97     809.00
 29.07     825.62
 29.17     678.00
 29.27     679.94
 29.37     643.25
 29.47     571.00
 29.57     569.88
 29.67     593.00
 29.77     603.00
 29.87     601.00
 29.97     569.00
 30.07     513.46
 30.17     578.00
 30.27     525.88
 30.37     575.59
 30.47     534.97
 30.57     566.00
 30.67     558.06
 30.77     597.00
 30.87     586.00
 30.97     659.00
 31.07     560.00
 31.17     560.00
 31.27     553.00
 31.37     594.00
 31.47     527.00
 31.57     522.75
 31.67     510.00
 31.77     568.00
 31.87     542.00
 31.97     545.00
 32.07     525.89
 32.17     528.71
 32.27     550.00
 32.37     548.27
 32.47     582.00
 32.57     570.91
 32.67     512.00
 32.77     504.43
 32.87     537.00
 32.97     536.00
 33.07     550.00
 33.17     516.24
 33.27     530.00
 33.37     574.00
 33.47     514.81
 33.57     666.00
 33.67     643.00
 33.77     800.00
 33.87     881.00
 33.97     976.00
 34.07    1059.00
 34.17    1063.00
 34.27     898.00
 34.37     703.03
 34.47     571.00
 34.57     571.00
 34.67     584.20
 34.77     543.30
 34.87     569.00
 34.97     518.00
 35.07     528.00
 35.17     512.00
 35.27     565.26
 35.37     509.00
 35.47     542.37
 35.57     509.87
 35.67     537.78
 35.77     502.52
 35.87     528.11
 35.97     473.06
 36.07     529.91
 36.17     507.00
 36.27     573.00
 36.37     520.00
 36.47     551.98
 36.57     491.00
 36.67     537.85
 36.77     548.00
 36.87     491.77
 36.97     474.24
 37.07     499.16
 37.17     511.00
 37.27     528.00
 37.37     516.17
 37.47     543.00
 37.57     520.00
 37.67     518.00
 37.77     544.06
 37.87     503.00
 37.97     528.00
 38.07     505.21
 38.17     492.45
 38.27     505.95
 38.37     536.73
 38.47     463.00
 38.57     503.00
 38.67     463.00
 38.77     502.97
 38.87     501.00
 38.97     492.00
 39.07     470.70
 39.17     499.00
 39.27     498.00
 39.37     492.00
 39.47     467.00
 39.57     512.51
 39.67     501.18
 39.77     507.00
 39.87     499.00
 39.97     530.79
 40.07     463.00
 40.17     515.00
 40.27     518.45
 40.37     528.00
 40.47     525.63
 40.57     518.00
 40.67     483.00
 40.77     504.87
 40.87     482.00
 40.97     520.00
 41.07     494.00
 41.17     484.00
 41.27     457.00
 41.37     466.00
 41.47     517.00
 41.57     486.00
 41.67     510.00
 41.77     491.00
 41.87     485.00
 41.97     511.00
 42.07     522.00
 42.17     525.00
 42.27     566.00
 42.37     553.62
 42.47     625.27
 42.57     571.43
 42.67     600.00
 42.77     577.34
 42.87     593.00
 42.97     564.00
 43.07     563.00
 43.17     521.58
 43.27     498.00
 43.37     517.20
 43.47     466.00
 43.57     530.93
 43.67     513.39
 43.77     464.14
 43.87     497.00
 43.97     542.00
 44.07     503.35
 44.17     466.93
 44.27     545.00
 44.37     500.00
 44.47     522.00
 44.57     512.00
 44.67     510.00
 44.77     473.37
 44.87     541.16
 44.97     483.00
 45.07     514.00
 45.17     492.00
 45.27     534.00
 45.37     538.00
 45.47     478.64
 45.57     511.00
 45.67     499.18
 45.77     524.00
 45.87     493.00
 45.97     507.72
 46.07     501.10
 46.17     505.00
 46.27     486.00
 46.37     527.00
 46.47     546.16
 46.57     493.00
 46.67     474.69
 46.77     466.00
 46.87     484.00
 46.97     527.00
 47.07     491.00
 47.17     473.72
 47.27     483.19
 47.37     540.00
 47.47     497.00
 47.57     596.00
 47.67     536.00
 47.77     652.00
 47.87     609.00
 47.97     602.33
 48.07     594.87
 48.17     590.00
 48.27     505.33
 48.37     534.00
 48.47     538.94
 48.57     547.00
 48.67     509.00
 48.77     555.87
 48.87     513.75
 48.97     549.00
 49.07     565.00
 49.17     566.54
 49.27     581.37
 49.37     600.23
 49.47     735.00
 49.57     771.62
 49.67     862.67
 49.77    1106.00
 49.87    1434.00
 49.97    1899.95
 50.07    2245.00
 50.17    2493.00
 50.27    2454.39
 50.37    2295.00
 50.47    1928.32
 50.57    1445.00
 50.67    1062.00
 50.77     832.00
 50.87     633.00
 50.97     627.00
 51.07     659.03
 51.17     621.85
 51.27     636.00
 51.37     552.00
 51.47     570.05
 51.57     612.00
 51.67     512.77
 51.77     562.00
 51.87     542.00
 51.97     561.08
 52.07     572.00
 52.17     579.17
 52.27     544.00
 52.37     568.00
 52.47     557.00
 52.57     580.91
 52.67     568.96
 52.77     573.00
 52.87     665.09
 52.97     669.58
 53.07     810.77
 53.17     934.00
 53.27    1044.00
 53.37    1137.00
 53.47    1212.00
 53.57    1232.66
 53.67    1053.53
 53.77     980.00
 53.87     838.48
 53.97     742.21
 54.07     696.51
 54.17     640.00
 54.27     554.71
 54.37     613.00
 54.47     559.00
 54.57     577.85
 54.67     581.00
 54.77     547.00
 54.87     558.00
 54.97     575.00
 55.07     568.00
 55.17     584.02
 55.27     543.51
 55.37     588.00
 55.47     570.63
 55.57     550.00
 55.67     537.38
 55.77     518.00
 55.87     625.00
 55.97     610.00
 56.07     679.00
 56.17     795.40
 56.27     890.00
 56.37    1172.00
 56.47    1487.13
 56.57    1761.00
 56.67    2140.00
 56.77    2429.00
 56.87    2671.00
 56.97    2643.34
 57.07    2283.00
 57.17    2008.00
 57.27    1649.00
 57.37    1258.38
 57.47    1079.00
 57.57     869.00
 57.67     759.00
 57.77     688.87
 57.87     673.00
 57.97     671.00
 58.07     648.04
 58.17     738.08
 58.27     726.00
 58.37     827.24
 58.47     939.00
 58.57    1046.90
 58.67    1213.00
 58.77    1355.92
 58.87    1434.67
 58.97    1506.00
 59.07    1508.00
 59.17    1521.00
 59.27    1541.00
 59.37    1325.00
 59.47    1279.15
 59.57    1181.96
 59.67    1164.73
 59.77    1106.00
 59.87    1162.93
 59.97    1360.00
 60.07    1441.00
 60.17    1551.56
 60.27    1517.23
 60.37    1552.66
 60.47    1458.00
 60.57    1269.00
 60.67    1141.00
 60.77     952.00
 60.87     759.00
 60.97     740.00
 61.07     608.77
 61.17     618.00
 61.27     632.00
 61.37     662.00
 61.47     696.00
 61.57     792.00
 61.67     862.00
 61.77     940.00
 61.87    1069.00
 61.97    1220.00
 62.07    1380.00
 62.17    1382.00
 62.27    1389.00
 62.37    1250.00
 62.47    1126.00
 62.57    1033.78
 62.67     911.00
 62.77     763.64
 62.87     754.52
 62.97     615.81
 63.07     632.55
 63.17     543.18
 63.27     604.62
 63.37     537.00
 63.47     547.00
 63.57     558.00
 63.67     567.00
 63.77     562.00
 63.87     651.22
 63.97     676.00
 64.07     755.00
 64.17     741.00
 64.27     831.00
 64.37     973.00
 64.47     983.00
 64.57     994.00
 64.67    1050.31
 64.77    1038.79
 64.87     972.00
 64.97     910.00
 65.07     851.00
 65.17     813.63
 65.27     738.00
 65.37     730.28
 65.47     649.00
 65.57     627.00
 65.67     571.99
 65.77     590.00
 65.87     583.25
 65.97     532.00
 66.07     546.00
 66.17     603.18
 66.27     611.54
 66.37     521.65
 66.47     552.00
 66.57     559.00
 66.67     589.00
 66.77     574.00
 66.87     604.31
 66.97     658.00
 67.07     623.20
 67.17     714.00
 67.27     782.32
 67.37     923.87
 67.47    1079.00
 67.57    1307.49
 67.67    1569.00
 67.77    1825.00
 67.87    1950.00
 67.97    2339.00
 68.07    2425.00
 68.17    2384.00
 68.27    2237.80
 68.37    2095.00
 68.47    1809.00
 68.57    1577.00
 68.67    1219.00
 68.77    1090.00
 68.87     856.00
 68.97     779.00
 69.07     672.17
 69.17     652.22
 69.27     654.00
 69.37     569.00
 69.47     579.00
 69.57     599.00
 69.67     586.00
 69.77     611.00
 69.87     585.00
 69.97     581.97
 70.07     610.11
 70.17     593.00
 70.27     609.00
 70.37     527.36
 70.47     553.00
 70.57     571.92
 70.67     554.00
 70.77     562.00
 70.87     582.00
 70.97     637.00
 71.07     680.00
 71.17     723.00
 71.27     822.00
 71.37     951.00
 71.47    1056.00
 71.57    1317.36
 71.67    1433.45
 71.77    1694.00
 71.87    1719.43
 71.97    1889.00
 72.07    1912.00
 72.17    1829.00
 72.27    1680.57
 72.37    1672.00
 72.47    1473.65
 72.57    1375.37
 72.67    1184.55
 72.77    1038.00
 72.87     917.00
 72.97     864.00
 73.07     869.42
 73.17     684.00
 73.27     695.00
 73.37     662.00
 73.47     644.00
 73.57     665.00
 73.67     602.00
 73.77     586.00
 73.87     601.00
 73.97     543.74
 74.07     568.97
 74.17     537.91
 74.27     538.42
 74.37     647.00
 74.47     623.98
 74.57     611.00
 74.67     687.00
 74.77     653.00
 74.87     620.00
 74.97     516.97
 75.07     618.00
 75.17     539.22
 75.27     558.00
 75.37     518.48
 75.47     529.00
 75.57     581.00
 75.67     552.00
 75.77     582.00
 75.87     621.03
 75.97     604.92
 76.07     624.25
 76.17     681.13
 76.27     691.00
 76.37     671.00
 76.47     688.00
 76.57     664.43
 76.67     707.00
 76.77     654.00
 76.87     669.00
 76.97     619.22
 77.07     595.00
 77.17     581.00
 77.27     539.00
 77.37     538.00
 77.47     565.00
 77.57     523.57
 77.67     561.00
 77.77     507.00
 77.87     579.00
 77.97     563.00
 78.07     538.00
 78.17     559.64
 78.27     539.00
 78.37     542.00
 78.47     522.00
 78.57     554.00
 78.67     523.96
 78.77     493.00
 78.87     541.00
 78.97     524.00
 79.07     544.00
 79.17     519.00
 79.27     520.43
 79.37     532.00
 79.47     476.00
 79.57     527.33
 79.67     516.00
 79.77     577.73
 79.87     534.00
 79.97     564.00
 80.07     530.13
 80.17     518.00
 80.27     565.00
 80.37     604.00
 80.47     581.35
 80.57     614.00
 80.67     626.00
 80.77     681.00
 80.87     680.35
 80.97     704.00
 81.07     692.09
 81.17     759.00
 81.27     766.94
 81.37     760.00
 81.47     707.23
 81.57     774.00
 81.67     704.00
 81.77     715.00
 81.87     708.00
 81.97     646.00
 82.07     686.00
 82.17     632.00
 82.27     635.00
 82.37     602.54
 82.47     635.90
 82.57     621.00
 82.67     542.39
 82.77     569.00
 82.87     558.00
 82.97     587.67
 83.07     526.17
 83.17     577.02
 83.27     479.00
 83.37     604.00
 83.47     579.00
 83.57     590.09
 83.67     540.00
 83.77     529.98
 83.87     578.00
 83.97     556.60
 84.07     573.20
 84.17     546.00
 84.27     584.00
 84.37     551.73
 84.47     543.00
 84.57     567.00
 84.67     563.00
 84.77     520.33
 84.87     511.03
 84.97     531.00
 85.07     544.56
 85.17     573.80
 85.27     550.00
 85.37     499.00
 85.47     533.00
 85.57     539.00
 85.67     556.59
 85.77     506.40
 85.87     506.93
 85.97     560.54
 86.07     557.56
 86.17     577.00
 86.27     545.00
 86.37     589.47
 86.47     544.00
 86.57     552.61
 86.67     563.00
 86.77     581.00
 86.87     569.40
 86.97     597.00
 87.07     608.88
 87.17     613.37
 87.27     642.66
 87.37     657.00
 87.47     625.00
 87.57     664.00
 87.67     580.24
 87.77     656.00
 87.87     655.00
 87.97     610.00
 88.07     590.23
 88.17     604.00
 88.27     563.00
 88.37     567.00
 88.47     594.00
 88.57     586.00
 88.67     593.00
 88.77     580.00
 88.87     594.00
 88.97     624.00
 89.07     617.00
 89.17     611.00
 89.27     599.00
 89.37     606.00
 89.47     582.00
 89.57     625.63
 89.67     620.00
 89.77     566.94
 89.87     615.44
 89.97     573.00
 90.07     541.00
 90.17     577.00
 90.27     522.00
 90.37     569.00
 90.47     546.00
 90.57     527.00
 90.67     579.00
 90.77     507.00
 90.87     500.00
 90.97     517.00
 91.07     513.44
 91.17     508.00
 91.27     537.00
 91.37     529.00
 91.47     559.00
 91.57     524.00
 91.67     498.00
 91.77     568.21
 91.87     570.93
 91.97     555.92
 92.07     548.00
 92.17     552.00
 92.27     592.00
 92.37     646.99
 92.47     624.17
 92.57     622.57
 92.67     693.00
 92.77     699.00
 92.87     717.35
 92.97     733.22
 93.07     712.35
 93.17     771.07
 93.27     794.00
 93.37     759.92
 93.47     837.00
 93.57     760.00
 93.67     841.00
 93.77     813.66
 93.87     835.00
 93.97     849.61
 94.07     893.00
 94.17     827.00
 94.27     889.00
 94.37     861.00
 94.47     895.00
 94.57     825.02
 94.67     855.38
 94.77     909.00
 94.87     929.00
 94.97     881.00
 95.07     837.81
 95.17     881.00
 95.27     828.00
 95.37     775.80
 95.47     790.00
 95.57     707.72
 95.67     715.00
 95.77     698.05
 95.87     735.17
 95.97     675.00
 96.07     637.63
 96.17     677.00
 96.27     711.00
 96.37     738.43
 96.47     775.60
 96.57     872.14
 96.67     900.00
 96.77    1025.00
 96.87    1056.30
 96.97    1118.18
 97.07    1209.00
 97.17    1288.00
 97.27    1369.00
 97.37    1398.00
 97.47    1517.00
 97.57    1498.00
 97.67    1410.93
 97.77    1434.00
 97.87    1378.03
 97.97    1340.74
 98.07    1233.00
 98.17    1189.96
 98.27    1095.00
 98.37    1070.00
 98.47     946.00
 98.57     871.23
 98.67     878.00
 98.77     782.00
 98.87     776.00
 98.97     780.00
 99.07     868.69
 99.17     843.00
 99.27     912.01
 99.37     941.00
 99.47     980.51
 99.57    1145.50
 99.67    1138.90
 99.77    1267.00
 99.87    1357.41
 99.97    1603.00
100.07    1671.00
100.17    1746.00
100.27    1859.00
100.37    1926.00
100.47    2013.00
100.57    2076.00
100.67    2056.00
100.77    2110.00
100.87    2043.69
100.97    2040.97
101.07    1872.76
101.17    1895.00
101.27    1762.53
101.37    1720.00
101.47    1534.00
101.57    1523.00
101.67    1372.50
101.77    1366.00
101.87    1368.98
101.97    1236.00
102.07    1235.63
102.17    1122.00
102.27    1169.00
102.37    1166.47
102.47    1163.00
102.57    1031.00
102.67    1065.00
102.77    1042.00
102.87    1044.13
102.97     984.22
103.07     951.09
103.17     871.00
103.27     890.35
103.37     787.00
103.47     824.00
103.57     777.02
103.67     732.00
103.77     708.43
103.87     659.00
103.97     644.64
104.07     635.84
104.17     564.00
104.27     584.00
104.37     561.00
104.47     564.00
104.57     569.00
104.67     565.62
104.77     569.00
104.87     574.00
104.97     545.00
105.07     532.00
105.17     558.53
105.27     564.52
105.37     548.00
105.47     530.00
105.57     501.65
105.67     529.00
105.77     511.00
105.87     584.00
105.97     594.00
106.07     571.00
106.17     587.00
106.27     574.83
106.37     620.00
106.47     623.00
106.57     626.54
106.67     648.74
106.77     627.00
106.87     664.00
106.97     658.00
107.07     660.00
107.17     647.00
107.27     657.98
107.37     700.62
107.47     726.58
107.57     693.00
107.67     712.00
107.77     685.00
107.87     654.00
107.97     722.51
108.07     737.57
108.17     696.00
108.27     678.00
108.37     660.00
108.47     682.55
108.57     680.00
108.67     655.00
108.77     674.00
108.87     706.25
108.97     670.00
109.07     675.81
109.17     679.22
109.27     716.85
109.37     657.00
109.47     620.44
109.57     643.00
109.67     672.00
109.77     609.27
109.87     577.97
109.97     622.00
110.07     599.00
110.17     605.00
110.27     589.00
110.37     562.00
110.47     549.26
110.57     556.00
110.67     514.00
110.77     561.00
110.87     514.00
110.97     533.55
111.07     587.00
111.17     564.56
111.27     544.00
111.37     496.41
111.47     530.00
111.57     568.70
111.67     527.00
111.77     548.00
111.87     528.00
111.97     555.00
112.07     559.13
112.17     583.20
112.27     594.00
112.37     576.66
112.47     661.00
112.57     621.00
112.67     616.00
112.77     652.00
112.87     594.85
112.97     695.00
113.07     674.68
113.17     690.00
113.27     688.00
113.37     692.63
113.47     769.00
113.57     745.54
113.67     814.00
113.77     919.94
113.87     923.14
113.97     885.00
114.07     962.00
114.17    1052.00
114.27    1156.00
114.37    1235.00
114.47    1285.91
114.57    1458.00
114.67    1524.00
114.77    1692.70
114.87    1914.00
114.97    2133.00
115.07    2326.05
115.17    2592.00
115.27    2862.00
115.37    3135.00
115.47    3516.97
115.57    3706.00
115.67    4241.29
115.77    4482.00
115.87    4671.00
115.97    5248.00
116.07    5472.00
116.17    5986.00
116.27    6415.45
116.37    6522.00
116.47    6581.66
116.57    6896.00
116.67    6871.57
116.77    6753.52
116.87    6702.41
116.97    6581.48
117.07    6359.60
117.17    5984.00
117.27    5554.00
117.37    5171.00
117.47    5153.23
117.57    4586.00
117.67    4272.00
117.77    3920.00
117.87    3509.17
117.97    3131.22
118.07    2773.29
118.17    2438.79
118.27    2289.00
118.37    1971.48
118.47    1786.00
118.57    1532.00
118.67    1463.38
118.77    1214.00
118.87    1071.00
118.97    1060.00
119.07     975.00
119.17     872.00
119.27     872.09
119.37     746.33
119.47     763.12
119.57     733.00
119.67     675.91
119.77     660.00
119.87     614.00
119.97     660.18
120.07     628.00
120.17     619.80
120.27     551.00
120.37     549.93
120.47     568.91
120.57     631.00
120.67     524.00
120.77     608.00
120.87     559.00
120.97     615.00
121.07     537.85
121.17     582.00
121.27     559.06
121.37     596.70
121.47     591.00
121.57     590.29
121.67     634.55
121.77     590.00
121.87     556.30
121.97     602.00
122.07     628.75
122.17     577.43
122.27     644.00
122.37     665.86
122.47     597.85
122.57     624.00
122.67     624.00
122.77     650.20
122.87     661.75
122.97     659.00
123.07     683.00
123.17     685.18
123.27     647.00
123.37     633.00
123.47     642.00
123.57     610.80
123.67     632.21
123.77     587.13
123.87     619.54
123.97     612.00
124.07     642.00
124.17     604.39
124.27     628.00
124.37     596.35
124.47     593.20
124.57     617.03
124.67     607.00
124.77     623.77
124.87     627.00
124.97     633.00
