  9.97     563.00
 10.07     560.63
 10.17     637.00
 10.27     532.18
 10.37     595.00
 10.47     574.00
 10.57     579.00
 10.67     549.69
 10.77     558.00
 10.87     522.67
 10.97     573.00
 11.07     587.00
 11.17     525.37
 11.27     569.00
 11.37     575.00
 11.47     574.00
 11.57     611.08
 11.67     559.84
 11.77     638.00
 11.87     639.90
 11.97     644.00
 12.07     691.86
 12.17     692.28
 12.27     701.98
 12.37     656.82
 12.47     645.00
 12.57     608.71
 12.67     604.00
 12.77     588.00
 12.87     586.00
 12.97     622.96
 13.07     558.00
 13.17     612.52
 13.27     568.00
 13.37     522.53
 13.47     553.80
 13.57     570.27
 13.67     533.75
 13.77     538.00
 13.87     557.00
 13.97     532.73
 14.07     552.00
 14.17     575.00
 14.27     541.00
 14.37     563.00
 14.47     578.92
 14.57     530.00
 14.67     532.00
 14.77     554.00
 14.87     569.63
 14.97     548.00
 15.07     603.02
 15.17     577.77
 15.27     549.00
 15.37     563.65
 15.47     526.00
 15.57     605.63
 15.67     603.00
 15.77     547.00
 15.87     589.00
 15.97     566.96
 16.07     565.00
 16.17     609.31
 16.27     555.00
 16.37     548.00
 16.47     595.13
 16.57     567.45
 16.67     582.00
 16.77     586.00
 16.87     565.00
 16.97     582.00
 17.07     591.47
 17.17     597.69
 17.27     530.08
 17.37     523.50
 17.47     517.00
 17.57     583.46
 17.67     536.00
 17.77     585.49
 17.87     528.00
 17.97     539.00
 18.07     546.00
 18.17     549.00
 18.27     501.00
 18.37     523.00
 18.47     565.00
 18.57     549.00
 18.67     521.18
 18.77     565.00
 18.87     602.38
 18.97     603.26
 19.07     600.00
 19.17     590.35
 19.27     535.00
 19.37     522.90
 19.47     556.00
 19.57     573.00
 19.67     576.00
 19.77     532.00
 19.87     584.00
 19.97     534.00
 20.07     560.00
 20.17     564.71
 20.27     605.00
 20.37     552.00
 20.47     513.00
 20.57     576.00
 20.67     573.00
 20.77     528.00
 20.87     534.70
 20.97     567.00
 21.07     542.00
 21.17     577.37
 21.27     560.00
 21.37     593.00
 21.47     562.08
 21.57     537.00
 21.67     532.00
 21.77     569.08
 21.87     512.40
 21.97     555.00
 22.07     559.00
 22.17     590.86
 22.27     530.07
 22.37     534.03
 22.47     521.92
 22.57     571.56
 22.67     525.91
 22.77     592.80
 22.87     568.00
 22.97     589.23
 23.07     558.00
 23.17     541.18
 23.27     531.00
 23.37     536.06
 23.47     530.58
 23.57     573.46
 23.67     538.00
 23.77     575.00
 23.87     516.23
 23.97     601.00
 24.07     508.30
 24.17     601.00
 24.27     554.00
 24.37     581.74
 24.47     568.29
 24.57     645.00
 24.67     605.91
 24.77     654.00
 24.87     596.14
 24.97     652.00
 25.07     629.44
 25.17     520.78
 25.27     551.00
 25.37     581.42
 25.47     519.77
 25.57     586.00
 25.67     567.99
 25.77     534.00
 25.87     588.00
 25.97     561.00
 26.07     561.00
 26.17     545.00
 26.27     534.00
 26.37     505.48
 26.47     554.00
 26.57     571.00
 26.67     575.00
 26.77     522.00
 26.87     532.00
 26.97     555.00
 27.07     562.00
 27.17     494.00
 27.27     501.46
 27.37     540.00
 27.47     527.82
 27.57     574.98
 27.67     584.55
 27.77     576.00
 27.87     629.00
 27.97     618.00
 28.07     796.00
 28.17     942.00
 28.27     936.00
 28.37     872.89
 28.47     744.83
 28.57     747.00
 28.67     754.00
 28.77     713.00
 28.87     772.00
 28.97     821.00
 29.07     754.00
 29.17     671.00
 29.27     650.69
 29.37     605.95
 29.47     622.00
 29.57     608.00
 29.67     598.82
 29.77     552.02
 29.87     585.00
 29.97     587.05
 30.07     584.00
 30.17     540.00
 30.27     559.00
 30.37     571.00
 30.47     574.95
 30.57     534.52
 30.67     599.00
 30.77     588.00
 30.87     619.00
 30.97     603.00
 31.07     584.00
 31.17     583.00
 31.27     609.00
 31.37     569.00
 31.47     550.00
 31.57     514.00
 31.67     547.91
 31.77     546.72
 31.87     581.00
 31.97     575.22
 32.07     534.00
 32.17     573.65
 32.27     512.25
 32.37     550.00
 32.47     580.00
 32.57     521.88
 32.67     499.02
 32.77     491.32
 32.87     547.00
 32.97     501.71
 33.07     540.00
 33.17     578.32
 33.27     515.29
 33.37     586.00
 33.47     586.00
 33.57     574.84
 33.67     617.00
 33.77     707.52
 33.87     899.00
 33.97     984.10
 34.07    1061.00
 34.17    1009.00
 34.27     885.00
 34.37     808.67
 34.47     647.00
 34.57     604.00
 34.67     604.94
 34.77     503.00
 34.87     571.13
 34.97     502.00
 35.07     507.00
 35.17     492.58
 35.27     525.00
 35.37     543.00
 35.47     499.39
 35.57     554.10
 35.67     500.58
 35.77     551.77
 35.87     553.00
 35.97     520.00
 36.07     550.75
 36.17     529.00
 36.27     551.00
 36.37     491.00
 36.47     528.96
 36.57     517.00
 36.67     497.61
 36.77     502.00
 36.87     517.00
 36.97     510.00
 37.07     553.84
 37.17     517.00
 37.27     560.49
 37.37     565.85
 37.47     558.00
 37.57     505.00
 37.67     517.00
 37.77     510.00
 37.87     574.00
 37.97     543.47
 38.07     490.00
 38.17     513.00
 38.27     496.00
 38.37     507.00
 38.47     528.00
 38.57     546.50
 38.67     520.00
 38.77     528.00
 38.87     522.24
 38.97     509.00
 39.07     543.57
 39.17     525.00
 39.27     493.00
 39.37     527.00
 39.47     469.00
 39.57     483.00
 39.67     469.00
 39.77     486.00
 39.87     514.00
 39.97     525.00
 40.07     472.91
 40.17     523.00
 40.27     509.00
 40.37     524.07
 40.47     463.00
 40.57     529.08
 40.67     468.38
 40.77     546.00
 40.87     484.00
 40.97     497.00
 41.07     516.45
 41.17     459.00
 41.27     534.00
 41.37     495.15
 41.47     530.00
 41.57     487.00
 41.67     523.00
 41.77     569.00
 41.87     467.58
 41.97     500.00
 42.07     516.00
 42.17     504.00
 42.27     513.87
 42.37     588.19
 42.47     585.72
 42.57     657.00
 42.67     558.00
 42.77     603.99
 42.87     627.00
 42.97     564.00
 43.07     555.00
 43.17     565.88
 43.27     525.00
 43.37     524.00
 43.47     500.00
 43.57     504.00
 43.67     488.00
 43.77     528.00
 43.87     486.00
 43.97     550.00
 44.07     461.00
 44.17     505.00
 44.27     466.34
 44.37     512.00
 44.47     488.00
 44.57     481.68
 44.67     475.82
 44.77     513.00
 44.87     492.00
 44.97     524.58
 45.07     481.00
 45.17     466.78
 45.27     519.00
 45.37     504.00
 45.47     542.00
 45.57     520.69
 45.67     472.69
 45.77     521.05
 45.87     459.40
 45.97     507.00
 46.07     485.00
 46.17     498.00
 46.27     520.00
 46.37     511.00
 46.47     502.30
 46.57     523.00
 46.67     515.00
 46.77     476.00
 46.87     514.00
 46.97     480.94
 47.07     495.00
 47.17     486.00
 47.27     549.00
 47.37     486.00
 47.47     509.54
 47.57     556.00
 47.67     562.00
 47.77     632.75
 47.87     645.00
 47.97     546.36
 48.07     584.85
 48.17     532.00
 48.27     557.00
 48.37     550.00
 48.47     536.00
 48.57     552.70
 48.67     552.40
 48.77     553.34
 48.87     541.81
 48.97     586.00
 49.07     615.33
 49.17     545.00
 49.27     590.00
 49.37     666.00
 49.47     717.45
 49.57     801.00
 49.67     874.00
 49.77    1070.87
 49.87    1447.00
 49.97    1892.00
 50.07    2314.00
 50.17    2577.83
 50.27    2526.71
 50.37    2360.00
 50.47    1856.68
 50.57    1368.00
 50.67    1183.42
 50.77     910.08
 50.87     749.00
 50.97     671.00
 51.07     631.00
 51.17     615.93
 51.27     611.85
 51.37     563.03
 51.47     521.74
 51.57     575.00
 51.67     578.00
 51.77     534.00
 51.87     512.89
 51.97     542.77
 52.07     567.54
 52.17     524.56
 52.27     548.00
 52.37     539.59
 52.47     568.00
 52.57     545.00
 52.67     600.00
 52.77     572.65
 52.87     578.60
 52.97     727.00
 53.07     794.00
 53.17     948.00
 53.27    1019.02
 53.37    1114.00
 53.47    1178.00
 53.57    1131.00
 53.67    1073.00
 53.77    1002.35
 53.87     834.00
 53.97     795.00
 54.07     659.00
 54.17     644.00
 54.27     556.00
 54.37     572.45
 54.47     602.00
 54.57     553.00
 54.67     574.00
 54.77     586.70
 54.87     547.00
 54.97     528.00
 55.07     532.38
 55.17     571.00
 55.27     573.84
 55.37     549.00
 55.47     543.78
 55.57     594.00
 55.67     542.00
 55.77     600.00
 55.87     614.15
 55.97     641.00
 56.07     649.00
 56.17     745.16
 56.27     913.59
 56.37    1097.00
 56.47    1406.00
 56.57    1702.00
 56.67    2143.00
 56.77    2495.00
 56.87    2654.00
 56.97    2491.00
 57.07    2297.20
 57.17    2048.00
 57.27    1587.91
 57.37    1331.34
 57.47    1028.00
 57.57     905.00
 57.67     796.00
 57.77     776.00
 57.87     716.00
 57.97     673.48
 58.07     682.00
 58.17     726.51
 58.27     805.00
 58.37     867.42
 58.47     972.00
 58.57    1140.00
 58.67    1263.61
 58.77    1423.00
 58.87    1579.00
 58.97    1582.00
 59.07    1547.81
 59.17    1570.65
 59.27    1400.00
 59.37    1344.82
 59.47    1272.59
 59.57    1186.80
 59.67    1097.51
 59.77    1087.58
 59.87    1202.94
 59.97    1313.00
 60.07    1397.00
 60.17    1545.00
 60.27    1558.00
 60.37    1559.00
 60.47    1430.86
 60.57    1182.56
 60.67    1124.00
 60.77     861.22
 60.87     767.98
 60.97     710.00
 61.07     700.00
 61.17     629.00
 61.27     620.00
 61.37     669.00
 61.47     659.17
 61.57     790.44
 61.67     893.00
 61.77     910.00
 61.87    1169.50
 61.97    1307.45
 62.07    1380.37
 62.17    1489.95
 62.27    1366.00
 62.37    1352.66
 62.47    1229.42
 62.57    1039.00
 62.67     910.24
 62.77     735.00
 62.87     743.07
 62.97     608.00
 63.07     604.00
 63.17     570.00
 63.27     603.33
 63.37     609.47
 63.47     576.00
 63.57     598.00
 63.67     579.00
 63.77     632.00
 63.87     646.45
 63.97     657.00
 64.07     755.00
 64.17     819.00
 64.27     900.00
 64.37     917.00
 64.47     982.00
 64.57    1020.00
 64.67    1016.00
 64.77     992.00
 64.87     923.62
 64.97     961.19
 65.07     815.00
 65.17     796.00
 65.27     765.27
 65.37     705.00
 65.47     593.00
 65.57     630.00
 65.67     570.00
 65.77     591.09
 65.87     578.00
 65.97     548.00
 66.07     587.63
 66.17     544.00
 66.27     600.18
 66.37     574.00
 66.47     551.00
 66.57     529.00
 66.67     526.00
 66.77     562.68
 66.87     576.00
 66.97     573.00
 67.07     626.00
 67.17     683.49
 67.27     817.00
 67.37     881.00
 67.47    1106.00
 67.57    1246.00
 67.67    1562.95
 67.77    1863.35
 67.87    2072.00
 67.97    2253.00
 68.07    2363.00
 68.17    2410.00
 68.27    2218.00
 68.37    2104.00
 68.47    1809.00
 68.57    1565.41
 68.67    1295.00
 68.77    1033.00
 68.87     925.99
 68.97     768.96
 69.07     729.00
 69.17     651.00
 69.27     587.65
 69.37     614.73
 69.47     608.74
 69.57     641.00
 69.67     555.00
 69.77     602.31
 69.87     591.00
 69.97     560.00
 70.07     572.00
 70.17     586.00
 70.27     547.00
 70.37     554.00
 70.47     571.05
 70.57     606.00
 70.67     584.19
 70.77     584.46
 70.87     616.66
 70.97     623.00
 71.07     582.00
 71.17     700.00
 71.27     789.00
 71.37     951.00
 71.47    1091.00
 71.57    1231.00
 71.67    1450.00
 71.77    1661.66
 71.87    1764.37
 71.97    1959.64
 72.07    1894.90
 72.17    1898.00
 72.27    1732.08
 72.37    1685.00
 72.47    1427.74
 72.57    1340.72
 72.67    1194.00
 72.77    1111.00
 72.87    1023.53
 72.97     864.48
 73.07     813.26
 73.17     860.48
 73.27     704.00
 73.37     684.09
 73.47     677.99
 73.57     609.00
 73.67     612.00
 73.77     611.99
 73.87     590.00
 73.97     603.19
 74.07     572.00
 74.17     614.00
 74.27     601.00
 74.37     635.00
 74.47     636.00
 74.57     636.00
 74.67     555.18
 74.77     604.67
 74.87     614.00
 74.97     600.00
 75.07     607.00
 75.17     611.00
 75.27     606.00
 75.37     605.00
 75.47     542.00
 75.57     553.00
 75.67     575.00
 75.77     542.00
 75.87     576.00
 75.97     573.51
 76.07     630.00
 76.17     669.00
 76.27     694.00
 76.37     718.93
 76.47     713.00
 76.57     663.24
 76.67     755.92
 76.77     728.59
 76.87     638.00
 76.97     603.00
 77.07     606.00
 77.17     588.00
 77.27     559.49
 77.37     542.00
 77.47     562.63
 77.57     559.00
 77.67     548.96
 77.77     497.00
 77.87     525.00
 77.97     521.00
 78.07     570.77
 78.17     529.00
 78.27     555.95
 78.37     532.88
 78.47     539.00
 78.57     520.00
 78.67     487.00
 78.77     529.09
 78.87     538.00
 78.97     544.00
 79.07     552.00
 79.17     482.00
 79.27     483.00
 79.37     513.00
 79.47     505.00
 79.57     556.00
 79.67     555.00
 79.77     549.00
 79.87     557.00
 79.97     586.96
 80.07     533.00
 80.17     526.00
 80.27     601.48
 80.37     597.00
 80.47     626.00
 80.57     619.00
 80.67     599.00
 80.77     626.00
 80.87     660.15
 80.97     712.78
 81.07     702.08
 81.17     748.00
 81.27     718.00
 81.37     798.74
 81.47     777.16
 81.57     744.00
 81.67     739.00
 81.77     760.40
 81.87     733.00
 81.97     662.83
 82.07     676.00
 82.17     628.17
 82.27     628.00
 82.37     681.00
 82.47     613.00
 82.57     592.99
 82.67     534.00
 82.77     562.19
 82.87     534.00
 82.97     573.00
 83.07     550.00
 83.17     533.00
 83.27     571.00
 83.37     531.43
 83.47     531.30
 83.57     547.10
 83.67     596.00
 83.77     565.00
 83.87     577.68
 83.97     551.00
 84.07     583.00
 84.17     542.00
 84.27     547.95
 84.37     571.00
 84.47     570.00
 84.57     549.00
 84.67     556.00
 84.77     514.88
 84.87     536.00
 84.97     512.00
 85.07     510.00
 85.17     530.24
 85.27     540.30
 85.37     541.00
 85.47     511.00
 85.57     468.00
 85.67     493.34
 85.77     554.00
 85.87     508.00
 85.97     538.07
 86.07     529.01
 86.17     537.00
 86.27     558.00
 86.37     508.00
 86.47     587.00
 86.57     531.00
 86.67     555.00
 86.77     560.00
 86.87     575.00
 86.97     585.00
 87.07     619.00
 87.17     648.00
 87.27     659.00
 87.37     655.53
 87.47     683.08
 87.57     662.13
 87.67     658.00
 87.77     691.00
 87.87     562.52
 87.97     582.00
 88.07     594.27
 88.17     597.00
 88.27     612.00
 88.37     523.36
 88.47     606.00
 88.57     595.00
 88.67     623.00
 88.77     611.68
 88.87     618.39
 88.97     594.00
 89.07     664.00
 89.17     618.00
 89.27     603.00
 89.37     600.71
 89.47     597.56
 89.57     584.84
 89.67     598.00
 89.77     557.66
 89.87     547.00
 89.97     574.00
 90.07     541.00
 90.17     531.77
 90.27     567.62
 90.37     556.00
 90.47     491.00
 90.57     518.02
 90.67     525.00
 90.77     544.15
 90.87     531.00
 90.97     497.00
 91.07     508.00
 91.17     536.91
 91.27     555.00
 91.37     541.00
 91.47     551.73
 91.57     555.00
 91.67     545.21
 91.77     509.00
 91.87     539.00
 91.97     509.09
 92.07     562.00
 92.17     534.00
 92.27     561.00
 92.37     628.67
 92.47     654.48
 92.57     595.00
 92.67     707.00
 92.77     691.32
 92.87     693.00
 92.97     720.00
 93.07     788.00
 93.17     776.00
 93.27     777.12
 93.37     790.00
 93.47     859.54
 93.57     864.00
 93.67     870.00
 93.77     792.19
 93.87     864.00
 93.97     796.16
 94.07     809.14
 94.17     854.00
 94.27     925.00
 94.37     878.00
 94.47     884.00
 94.57     926.68
 94.67     930.87
 94.77     951.00
 94.87     901.00
 94.97     893.00
 95.07     868.00
 95.17     888.00
 95.27     762.62
 95.37     851.00
 95.47     815.32
 95.57     733.00
 95.67     785.00
 95.77     720.00
 95.87     648.91
 95.97     706.00
 96.07     667.18
 96.17     676.86
 96.27     725.00
 96.37     731.00
 96.47     751.04
 96.57     832.00
 96.67     935.02
 96.77     952.00
 96.87    1012.00
 96.97    1117.81
 97.07    1214.52
 97.17    1311.00
 97.27    1394.00
 97.37    1438.00
 97.47    1486.00
 97.57    1425.00
 97.67    1428.00
 97.77    1453.00
 97.87    1326.00
 97.97    1263.00
 98.07    1242.00
 98.17    1138.00
 98.27    1063.00
 98.37    1034.77
 98.47     890.96
 98.57     891.00
 98.67     862.00
 98.77     876.94
 98.87     764.00
 98.97     798.00
 99.07     767.00
 99.17     811.00
 99.27     847.00
 99.37     979.08
 99.47    1007.95
 99.57    1129.52
 99.67    1214.47
 99.77    1286.00
 99.87    1410.00
 99.97    1506.00
100.07    1691.00
100.17    1685.02
100.27    1926.22
100.37    1958.00
100.47    2157.00
100.57    2018.08
100.67    2051.91
100.77    2021.00
100.87    2078.00
100.97    2124.00
101.07    2019.00
101.17    1933.00
101.27    1835.92
101.37    1657.00
101.47    1568.00
101.57    1545.85
101.67    1484.62
101.77    1378.00
101.87    1292.03
101.97    1182.18
102.07    1143.73
102.17    1113.00
102.27    1087.00
102.37    1111.83
102.47    1160.65
102.57    1063.00
102.67    1074.47
102.77    1020.00
102.87     976.14
102.97     941.00
103.07     960.64
103.17     897.00
103.27     828.00
103.37     832.97
103.47     741.00
103.57     797.00
103.67     681.00
103.77     692.00
103.87     585.19
103.97     640.69
104.07     647.00
104.17     608.00
104.27     573.00
104.37     565.00
104.47     528.00
104.57     533.00
104.67     537.00
104.77     584.00
104.87     569.46
104.97     547.67
105.07     510.00
105.17     543.00
105.27     532.00
105.37     559.95
105.47     556.00
105.57     563.00
105.67     542.00
105.77     497.00
105.87     573.00
105.97     566.00
106.07     570.00
106.17     624.13
106.27     631.00
106.37     572.00
106.47     601.00
106.57     630.00
106.67     674.94
106.77     614.00
106.87     653.00
106.97     648.00
107.07     680.00
107.17     651.84
107.27     675.00
107.37     681.00
107.47     752.26
107.57     680.00
107.67     661.00
107.77     647.00
107.87     686.00
107.97     697.00
108.07     645.00
108.17     724.92
108.27     667.00
108.37     677.00
108.47     736.04
108.57     669.75
108.67     663.00
108.77     719.00
108.87     648.00
108.97     691.74
109.07     715.00
109.17     660.00
109.27     669.00
109.37     652.00
109.47     678.00
109.57     616.00
109.67     613.00
109.77     645.90
109.87     612.00
109.97     581.00
110.07     553.00
110.17     558.00
110.27     579.00
110.37     557.00
110.47     554.00
110.57     579.00
110.67     513.62
110.77     535.27
110.87     575.00
110.97     549.00
111.07     561.86
111.17     542.00
111.27     522.57
111.37     574.00
111.47     549.52
111.57     563.03
111.67     529.00
111.77     508.68
111.87     550.00
111.97     587.82
112.07     577.00
112.17     580.00
112.27     626.05
112.37     541.24
112.47     621.00
112.57     595.00
112.67     585.24
112.77     669.04
112.87     600.84
112.97     680.00
113.07     689.00
113.17     705.55
113.27     749.59
113.37     714.00
113.47     784.22
113.57     838.00
113.67     890.00
113.77     890.01
113.87     921.00
113.97     957.00
114.07    1056.96
114.17    1167.00
114.27    1150.00
114.37    1246.00
114.47    1296.00
114.57    1379.78
114.67    1555.82
114.77    1740.00
114.87    1928.00
114.97    2105.00
115.07    2307.00
115.17    2509.63
115.27    2877.56
115.37    3146.00
115.47    3478.01
115.57    3626.00
115.67    4095.27
115.77    4497.00
115.87    4776.00
115.97    5182.00
116.07    5587.00
116.17    6061.00
116.27    6311.00
116.37    6650.00
116.47    6754.00
116.57    6887.00
116.67    6913.20
116.77    7089.85
116.87    6968.00
116.97    6698.00
117.07    6492.00
117.17    6143.56
117.27    5728.00
117.37    5281.00
117.47    4972.00
117.57    4716.00
117.67    4308.72
117.77    4093.00
117.87    3706.00
117.97    3327.00
118.07    2923.00
118.17    2600.01
118.27    2315.00
118.37    1938.00
118.47    1772.00
118.57    1586.52
118.67    1413.00
118.77    1327.00
118.87    1184.45
118.97     957.00
119.07     947.00
119.17     863.00
119.27     776.70
119.37     797.00
119.47     661.00
119.57     739.23
119.67     683.00
119.77     662.00
119.87     620.00
119.97     589.00
120.07     600.00
120.17     614.15
120.27     609.18
120.37     557.00
120.47     557.00
120.57     590.00
120.67     553.00
120.77     557.62
120.87     598.78
120.97     567.00
121.07     561.34
121.17     562.00
121.27     618.00
121.37     579.00
121.47     581.00
121.57     582.00
121.67     572.91
121.77     540.62
121.87     566.35
121.97     558.66
122.07     582.09
122.17     608.01
122.27     549.00
122.37     623.00
122.47     555.00
122.57     606.57
122.67     647.00
122.77     631.00
122.87     595.45
122.97     607.85
123.07     656.00
123.17     654.00
123.27     641.00
123.37     658.85
123.47     597.00
123.57     647.53
123.67     619.04
123.77     656.23
123.87     577.79
123.97     609.92
124.07     608.00
124.17     627.41
124.27     617.25
124.37     630.00
124.47     634.64
124.57     549.00
124.67     617.13
124.77     581.00
124.87     608.33
124.97     575.81
