  9.97     605.00
 10.07     530.69
 10.17     594.00
 10.27     534.79
 10.37     607.00
 10.47     572.00
 10.57     562.00
 10.67     623.00
 10.77     529.00
 10.87     599.00
 10.97     570.00
 11.07     585.00
 11.17     605.00
 11.27     612.00
 11.37     582.77
 11.47     562.18
 11.57     597.00
 11.67     596.00
 11.77     589.53
 11.87     573.06
 11.97     669.00
 12.07     674.00
 12.17     678.00
 12.27     666.00
 12.37     665.00
 12.47     627.00
 12.57     568.21
 12.67     542.00
 12.77     522.00
 12.87     570.00
 12.97     613.05
 13.07     606.60
 13.17     576.92
 13.27     567.00
 13.37     584.00
 13.47     591.00
 13.57     529.91
 13.67     535.00
 13.77     563.00
 13.87     545.06
 13.97     561.51
 14.07     590.00
 14.17     617.00
 14.27     560.22
 14.37     583.00
 14.47     590.97
 14.57     598.47
 14.67     548.00
 14.77     531.80
 14.87     517.00
 14.97     552.43
 15.07     587.72
 15.17     560.00
 15.27     560.00
 15.37     560.00
 15.47     601.28
 15.57     551.47
 15.67     555.00
 15.77     519.90
 15.87     548.00
 15.97     571.00
 16.07     570.00
 16.17     594.00
 16.27     539.00
 16.37     562.00
 16.47     563.00
 16.57     559.00
 16.67     507.00
 16.77     570.14
 16.87     538.58
 16.97     552.03
 17.07     604.00
 17.17     556.68
 17.27     584.00
 17.37     595.01
 17.47     595.53
 17.57     583.10
 17.67     553.00
 17.77     539.00
 17.87     559.00
 17.97     536.00
 18.07     516.54
 18.17     551.73
 18.27     557.00
 18.37     602.01
 18.47     597.00
 18.57     586.35
 18.67     527.00
 18.77     545.55
 18.87     577.00
 18.97     536.00
 19.07     544.00
 19.17     568.38
 19.27     564.00
 19.37     544.00
 19.47     547.74
 19.57     593.84
 19.67     572.00
 19.77     561.00
 19.87     569.00
 19.97     508.00
 20.07     554.48
 20.17     538.00
 20.27     592.24
 20.37     571.00
 20.47     516.00
 20.57     545.00
 20.67     549.00
 20.77     538.00
 20.87     547.00
 20.97     586.52
 21.07     556.00
 21.17     514.00
 21.27     550.00
 21.37     524.33
 21.47     514.97
 21.57     560.24
 21.67     522.66
 21.77     577.00
 21.87     514.00
 21.97     580.00
 22.07     506.00
 22.17     548.00
 22.27     518.00
 22.37     529.46
 22.47     536.00
 22.57     579.17
 22.67     572.00
 22.77     515.00
 22.87     602.00
 22.97     585.35
 23.07     583.00
 23.17     541.00
 23.27     539.00
 23.37     532.79
 23.47     511.68
 23.57     575.00
 23.67     530.00
 23.77     554.00
 23.87     570.29
 23.97     504.29
 24.07     553.00
 24.17     587.00
 24.27     574.07
 24.37     623.00
 24.47     617.46
 24.57     629.16
 24.67     644.13
 24.77     615.00
 24.87     607.56
 24.97     628.00
 25.07     584.60
 25.17     568.00
 25.27     525.00
 25.37     578.91
 25.47     562.00
 25.57     523.00
 25.67     569.00
 25.77     549.00
 25.87     541.00
 25.97     530.55
 26.07     583.00
 26.17     514.20
 26.27     552.00
 26.37     510.00
 26.47     570.47
 26.57     562.00
 26.67     587.00
 26.77     587.04
 26.87     540.00
 26.97     563.00
 27.07     528.00
 27.17     510.11
 27.27     549.00
 27.37     576.00
 27.47     558.00
 27.57     586.72
 27.67     546.00
 27.77     555.00
 27.87     602.00
 27.97     698.00
 28.07     782.00
 28.17     888.00
 28.27     973.86
 28.37     902.00
 28.47     774.00
 28.57     709.00
 28.67     713.00
 28.77     785.73
 28.87     773.00
 28.97     734.00
 29.07     747.00
 29.17     692.00
 29.27     601.00
 29.37     601.00
 29.47     550.51
 29.57     564.41
 29.67     616.00
 29.77     560.00
 29.87     547.44
 29.97     568.00
 30.07     567.91
 30.17     579.00
 30.27     584.00
 30.37     563.81
 30.47     578.00
 30.57     528.00
 30.67     606.10
 30.77     552.09
 30.87     587.80
 30.97     607.25
 31.07     607.00
 31.17     613.00
 31.27     558.00
 31.37     537.00
 31.47     516.55
 31.57     550.00
 31.67     546.12
 31.77     568.00
 31.87     525.00
 31.97     484.68
 32.07     562.00
 32.17     563.00
 32.27     536.00
 32.37     563.00
 32.47     556.00
 32.57     523.00
 32.67     537.89
 32.77     524.00
 32.87     553.00
 32.97     575.00
 33.07     559.00
 33.17     579.79
 33.27     553.51
 33.37     546.96
 33.47     541.00
 33.57     617.00
 33.67     626.00
 33.77     705.00
 33.87     876.00
 33.97    1069.00
 34.07    1033.74
 34.17    1034.88
 34.27     847.10
 34.37     744.00
 34.47     687.03
 34.57     597.00
 34.67     561.00
 34.77     502.02
 34.87     530.00
 34.97     564.00
 35.07     548.00
 35.17     542.26
 35.27     524.00
 35.37     545.12
 35.47     556.00
 35.57     517.00
 35.67     511.16
 35.77     490.00
 35.87     567.00
 35.97     491.00
 36.07     538.98
 36.17     515.90
 36.27     540.13
 36.37     516.00
 36.47     432.00
 36.57     523.05
 36.67     472.00
 36.77     556.74
 36.87     488.12
 36.97     487.00
 37.07     526.64
 37.17     546.00
 37.27     520.00
 37.37     552.64
 37.47     511.00
 37.57     526.00
 37.67     544.00
 37.77     489.53
 37.87     484.44
 37.97     485.00
 38.07     540.41
 38.17     514.00
 38.27     539.56
 38.37     504.00
 38.47     531.00
 38.57     511.98
 38.67     511.88
 38.77     492.66
 38.87     503.00
 38.97     517.89
 39.07     507.00
 39.17     512.00
 39.27     514.00
 39.37     500.00
 39.47     497.00
 39.57     475.00
 39.67     514.00
 39.77     531.20
 39.87     527.00
 39.97     466.28
 40.07     533.41
 40.17     483.61
 40.27     483.00
 40.37     504.00
 40.47     499.54
 40.57     477.55
 40.67     476.00
 40.77     481.00
 40.87     463.24
 40.97     447.00
 41.07     541.25
 41.17     461.00
 41.27     499.00
 41.37     465.00
 41.47     493.00
 41.57     492.00
 41.67     522.17
 41.77     485.00
 41.87     473.32
 41.97     457.00
 42.07     518.00
 42.17     543.14
 42.27     508.88
 42.37     547.00
 42.47     600.00
 42.57     652.60
 42.67     589.00
 42.77     667.40
 42.87     574.96
 42.97     570.49
 43.07     562.00
 43.17     554.35
 43.27     549.59
 43.37     520.22
 43.47     540.00
 43.57     501.00
 43.67     498.00
 43.77     523.00
 43.87     500.00
 43.97     515.00
 44.07     496.00
 44.17     504.00
 44.27     536.35
 44.37     461.89
 44.47     508.00
 44.57     502.00
 44.67     496.00
 44.77     471.00
 44.87     510.00
 44.97     494.00
 45.07     467.72
 45.17     542.36
 45.27     498.00
 45.37     467.68
 45.47     534.85
 45.57     502.00
 45.67     478.00
 45.77     485.00
 45.87     502.00
 45.97     467.00
 46.07     510.05
 46.17     474.00
 46.27     510.00
 46.37     496.00
 46.47     502.00
 46.57     518.00
 46.67     521.11
 46.77     543.00
 46.87     485.83
 46.97     478.33
 47.07     487.31
 47.17     517.00
 47.27     506.00
 47.37     490.00
 47.47     522.68
 47.57     524.00
 47.67     572.00
 47.77     568.00
 47.87     572.23
 47.97     586.00
 48.07     599.00
 48.17     573.00
 48.27     561.13
 48.37     549.00
 48.47     523.02
 48.57     496.00
 48.67     492.26
 48.77     493.83
 48.87     582.94
 48.97     565.35
 49.07     551.00
 49.17     615.72
 49.27     621.00
 49.37     639.00
 49.47     632.00
 49.57     699.00
 49.67     894.00
 49.77    1151.60
 49.87    1449.94
 49.97    1888.39
 50.07    2190.39
 50.17    2519.00
 50.27    2565.93
 50.37    2233.00
 50.47    1850.00
 50.57    1407.00
 50.67    1120.67
 50.77     897.00
 50.87     685.00
 50.97     699.00
 51.07     640.00
 51.17     630.00
 51.27     616.00
 51.37     583.00
 51.47     546.00
 51.57     569.00
 51.67     555.00
 51.77     572.00
 51.87     578.00
 51.97     503.62
 52.07     525.65
 52.17     548.88
 52.27     555.00
 52.37     566.00
 52.47     578.00
 52.57     557.00
 52.67     527.27
 52.77     586.00
 52.87     607.80
 52.97     731.32
 53.07     747.37
 53.17     884.26
 53.27    1028.00
 53.37    1150.01
 53.47    1209.00
 53.57    1170.49
 53.67    1088.00
 53.77    1017.00
 53.87     896.00
 53.97     748.00
 54.07     686.00
 54.17     624.00
 54.27     565.60
 54.37     608.00
 54.47     508.56
 54.57     586.00
 54.67     508.00
 54.77     602.00
 54.87     590.00
 54.97     556.00
 55.07     603.00
 55.17     583.00
 55.27     514.00
 55.37     578.00
 55.47     570.00
 55.57     563.00
 55.67     570.00
 55.77     590.00
 55.87     562.00
 55.97     637.00
 56.07     678.77
 56.17     744.28
 56.27     914.00
 56.37    1085.91
 56.47    1381.60
 56.57    1790.00
 56.67    2142.52
 56.77    2450.00
 56.87    2576.00
 56.97    2501.00
 57.07    2388.00
 57.17    2041.00
 57.27    1626.39
 57.37    1326.00
 57.47    1039.50
 57.57     886.00
 57.67     754.50
 57.77     654.24
 57.87     672.00
 57.97     668.58
 58.07     669.00
 58.17     710.00
 58.27     814.99
 58.37     853.00
 58.47     916.00
 58.57    1116.00
 58.67    1171.66
 58.77    1351.00
 58.87    1426.00
 58.97    1425.67
 59.07    1467.93
 59.17    1434.68
 59.27    1408.13
 59.37    1268.62
 59.47    1310.00
 59.57    1198.00
 59.67    1077.00
 59.77    1230.00
 59.87    1238.30
 59.97    1291.78
 60.07    1446.00
 60.17    1568.00
 60.27    1600.71
 60.37    1489.00
 60.47    1331.38
 60.57    1248.00
 60.67    1070.00
 60.77     902.54
 60.87     806.00
 60.97     659.00
 61.07     627.00
 61.17     608.86
 61.27     659.00
 61.37     633.00
 61.47     718.00
 61.57     803.68
 61.67     833.00
 61.77    1032.33
 61.87    1100.31
 61.97    1214.00
 62.07    1296.00
 62.17    1388.71
 62.27    1458.16
 62.37    1224.00
 62.47    1189.00
 62.57    1027.00
 62.67     875.00
 62.77     811.54
 62.87     715.00
 62.97     635.62
 63.07     611.38
 63.17     570.93
 63.27     584.00
 63.37     572.00
 63.47     593.72
 63.57     578.00
 63.67     527.41
 63.77     627.00
 63.87     627.00
 63.97     681.52
 64.07     726.00
 64.17     768.00
 64.27     833.00
 64.37     893.00
 64.47     945.62
 64.57    1069.00
 64.67     992.05
 64.77     986.00
 64.87    1001.00
 64.97     933.42
 65.07     842.00
 65.17     749.15
 65.27     715.60
 65.37     669.00
 65.47     646.00
 65.57     628.00
 65.67     591.00
 65.77     631.55
 65.87     567.00
 65.97     566.80
 66.07     552.97
 66.17     563.00
 66.27     531.07
 66.37     526.00
 66.47     594.81
 66.57     574.28
 66.67     569.00
 66.77     563.00
 66.87     590.00
 66.97     598.00
 67.07     605.00
 67.17     691.00
 67.27     740.54
 67.37     889.00
 67.47    1072.00
 67.57    1250.00
 67.67    1506.00
 67.77    1750.61
 67.87    2091.00
 67.97    2336.77
 68.07    2478.00
 68.17    2395.00
 68.27    2237.00
 68.37    2055.00
 68.47    1753.64
 68.57    1480.12
 68.67    1268.00
 68.77     997.00
 68.87     918.21
 68.97     790.00
 69.07     705.00
 69.17     685.04
 69.27     661.96
 69.37     585.29
 69.47     562.00
 69.57     557.00
 69.67     544.18
 69.77     639.00
 69.87     591.00
 69.97     543.00
 70.07     604.00
 70.17     531.09
 70.27     578.00
 70.37     621.00
 70.47     524.74
 70.57     594.00
 70.67     600.00
 70.77     580.00
 70.87     605.00
 70.97     594.00
 71.07     667.00
 71.17     725.00
 71.27     804.00
 71.37     891.26
 71.47    1038.57
 71.57    1259.49
 71.67    1436.00
 71.77    1606.58
 71.87    1807.03
 71.97    1855.00
 72.07    1860.76
 72.17    1880.00
 72.27    1797.00
 72.37    1519.03
 72.47    1447.62
 72.57    1274.00
 72.67    1116.00
 72.77     961.00
 72.87     890.76
 72.97     923.99
 73.07     796.00
 73.17     767.31
 73.27     658.00
 73.37     715.08
 73.47     585.00
 73.57     607.00
 73.67     660.26
 73.77     580.17
 73.87     603.00
 73.97     551.28
 74.07     615.00
 74.17     594.00
 74.27     594.00
 74.37     601.52
 74.47     563.30
 74.57     635.00
 74.67     527.83
 74.77     618.62
 74.87     590.00
 74.97     585.63
 75.07     582.98
 75.17     558.71
 75.27     572.00
 75.37     547.98
 75.47     575.00
 75.57     628.00
 75.67     549.62
 75.77     563.00
 75.87     587.00
 75.97     575.00
 76.07     670.00
 76.17     611.90
 76.27     634.34
 76.37     732.88
 76.47     734.00
 76.57     704.99
 76.67     711.00
 76.77     710.00
 76.87     725.00
 76.97     675.58
 77.07     656.00
 77.17     533.00
 77.27     587.00
 77.37     570.00
 77.47     580.00
 77.57     582.00
 77.67     546.00
 77.77     572.86
 77.87     570.53
 77.97     548.00
 78.07     501.00
 78.17     483.00
 78.27     568.00
 78.37     491.11
 78.47     566.04
 78.57     515.00
 78.67     570.81
 78.77     536.00
 78.87     482.00
 78.97     520.00
 79.07     561.80
 79.17     548.00
 79.27     525.60
 79.37     524.00
 79.47     538.74
 79.57     528.00
 79.67     537.00
 79.77     511.95
 79.87     526.00
 79.97     577.59
 80.07     555.00
 80.17     594.00
 80.27     541.74
 80.37     553.00
 80.47     566.00
 80.57     563.00
 80.67     595.88
 80.77     656.00
 80.87     650.00
 80.97     727.00
 81.07     750.07
 81.17     746.00
 81.27     803.00
 81.37     771.29
 81.47     736.00
 81.57     755.56
 81.67     718.00
 81.77     735.47
 81.87     698.00
 81.97     687.00
 82.07     692.00
 82.17     699.42
 82.27     613.00
 82.37     594.00
 82.47     634.00
 82.57     586.62
 82.67     590.00
 82.77     532.98
 82.87     550.56
 82.97     553.34
 83.07     590.46
 83.17     532.00
 83.27     559.87
 83.37     528.43
 83.47     547.00
 83.57     592.00
 83.67     574.00
 83.77     528.00
 83.87     614.26
 83.97     546.13
 84.07     617.71
 84.17     576.00
 84.27     573.00
 84.37     608.00
 84.47     582.00
 84.57     548.00
 84.67     511.00
 84.77     552.00
 84.87     575.57
 84.97     538.00
 85.07     517.00
 85.17     533.00
 85.27     538.00
 85.37     547.00
 85.47     547.00
 85.57     539.00
 85.67     560.00
 85.77     552.00
 85.87     537.65
 85.97     516.00
 86.07     512.10
 86.17     513.19
 86.27     523.60
 86.37     550.00
 86.47     595.26
 86.57     535.83
 86.67     574.25
 86.77     587.37
 86.87     569.00
 86.97     632.53
 87.07     638.00
 87.17     612.00
 87.27     635.00
 87.37     662.00
 87.47     646.00
 87.57     671.00
 87.67     670.94
 87.77     634.13
 87.87     676.00
 87.97     627.00
 88.07     608.00
 88.17     586.00
 88.27     555.00
 88.37     623.00
 88.47     529.71
 88.57     605.38
 88.67     601.00
 88.77     541.83
 88.87     606.88
 88.97     576.84
 89.07     641.00
 89.17     615.00
 89.27     561.00
 89.37     636.00
 89.47     650.44
 89.57     543.00
 89.67     560.00
 89.77     582.00
 89.87     601.68
 89.97     544.00
 90.07     532.00
 90.17     564.00
 90.27     533.00
 90.37     509.00
 90.47     563.46
 90.57     530.00
 90.67     528.00
 90.77     562.33
 90.87     509.00
 90.97     526.00
 91.07     530.00
 91.17     488.43
 91.27     504.80
 91.37     526.91
 91.47     531.00
 91.57     567.34
 91.67     569.52
 91.77     532.00
 91.87     583.99
 91.97     540.00
 92.07     521.00
 92.17     592.89
 92.27     636.70
 92.37     590.00
 92.47     589.00
 92.57     661.00
 92.67     701.28
 92.77     701.00
 92.87     749.27
 92.97     721.00
 93.07     751.00
 93.17     709.00
 93.27     807.08
 93.37     797.00
 93.47     775.00
 93.57     817.00
 93.67     793.00
 93.77     831.00
 93.87     859.00
 93.97     842.85
 94.07     859.00
 94.17     899.21
 94.27     911.46
 94.37     935.00
 94.47     908.00
 94.57     955.00
 94.67     878.92
 94.77     900.00
 94.87     970.00
 94.97     886.00
 95.07     862.39
 95.17     877.00
 95.27     833.54
 95.37     824.00
 95.47     783.00
 95.57     777.00
 95.67     742.72
 95.77     740.00
 95.87     690.84
 95.97     684.00
 96.07     650.32
 96.17     712.00
 96.27     734.00
 96.37     783.88
 96.47     792.00
 96.57     956.00
 96.67     978.00
 96.77    1011.00
 96.87    1101.75
 96.97    1178.05
 97.07    1247.00
 97.17    1305.72
 97.27    1347.48
 97.37    1435.79
 97.47    1480.00
 97.57    1457.54
 97.67    1454.00
 97.77    1391.00
 97.87    1376.00
 97.97    1254.00
 98.07    1280.00
 98.17    1114.43
 98.27    1082.00
 98.37     999.11
 98.47     919.00
 98.57     801.00
 98.67     887.00
 98.77     789.00
 98.87     831.00
 98.97     785.00
 99.07     807.00
 99.17     831.00
 99.27     918.48
 99.37     892.76
 99.47     943.00
 99.57    1131.00
 99.67    1153.62
 99.77    1305.00
 99.87    1390.00
 99.97    1483.00
100.07    1614.45
100.17    1741.00
100.27    1881.00
100.37    1833.16
100.47    2029.00
100.57    2085.82
100.67    2103.00
100.77    2106.00
100.87    2137.00
100.97    2063.00
101.07    1905.00
101.17    1890.00
101.27    1727.00
101.37    1641.00
101.47    1666.00
101.57    1508.00
101.67    1428.42
101.77    1337.00
101.87    1251.00
101.97    1288.64
102.07    1214.00
102.17    1157.00
102.27    1139.75
102.37    1077.00
102.47    1105.00
102.57    1106.00
102.67    1023.39
102.77    1081.77
102.87    1045.46
102.97     933.00
103.07     909.00
103.17     841.00
103.27     834.00
103.37     852.92
103.47     734.00
103.57     692.00
103.67     746.00
103.77     718.00
103.87     622.04
103.97     590.00
104.07     617.00
104.17     638.00
104.27     526.88
104.37     542.45
104.47     557.00
104.57     529.07
104.67     542.00
104.77     551.69
104.87     523.87
104.97     516.98
105.07     572.74
105.17     524.00
105.27     557.12
105.37     581.00
105.47     515.42
105.57     586.19
105.67     537.00
105.77     586.00
105.87     551.00
105.97     568.00
106.07     577.00
106.17     546.00
106.27     629.18
106.37     589.00
106.47     594.00
106.57     678.70
106.67     597.33
106.77     634.00
106.87     668.00
106.97     672.71
107.07     695.00
107.17     733.98
107.27     756.00
107.37     694.00
107.47     739.00
107.57     687.65
107.67     690.00
107.77     681.00
107.87     717.16
107.97     712.00
108.07     689.00
108.17     792.00
108.27     718.68
108.37     672.00
108.47     658.00
108.57     695.00
108.67     747.88
108.77     706.26
108.87     680.00
108.97     653.00
109.07     712.90
109.17     668.09
109.27     648.00
109.37     607.00
109.47     643.44
109.57     659.00
109.67     653.00
109.77     600.00
109.87     619.00
109.97     639.00
110.07     612.00
110.17     556.00
110.27     618.00
110.37     567.00
110.47     587.00
110.57     564.00
110.67     501.86
110.77     499.10
110.87     571.00
110.97     542.00
111.07     563.00
111.17     571.33
111.27     526.00
111.37     524.00
111.47     500.19
111.57     553.00
111.67     568.00
111.77     534.15
111.87     550.00
111.97     585.26
112.07     557.96
112.17     566.98
112.27     615.00
112.37     572.00
112.47     614.94
112.57     574.00
112.67     656.50
112.77     588.00
112.87     601.53
112.97     614.00
113.07     642.92
113.17     664.00
113.27     727.00
113.37     753.25
113.47     780.00
113.57     747.00
113.67     802.00
113.77     797.00
113.87     860.62
113.97     962.41
114.07    1017.17
114.17    1037.00
114.27    1085.00
114.37    1201.00
114.47    1206.19
114.57    1463.00
114.67    1532.00
114.77    1653.00
114.87    1961.00
114.97    1957.78
115.07    2269.12
115.17    2513.00
115.27    2802.00
115.37    3099.00
115.47    3424.00
115.57    3745.00
115.67    4111.00
115.77    4578.00
115.87    4830.00
115.97    5145.00
116.07    5594.00
116.17    6067.72
116.27    6302.00
116.37    6658.18
116.47    6648.70
116.57    6762.14
116.67    6984.57
116.77    6872.59
116.87    6715.87
116.97    6551.00
117.07    6247.00
117.17    5921.28
117.27    5631.00
117.37    5195.00
117.47    4800.00
117.57    4503.41
117.67    4153.26
117.77    3891.00
117.87    3552.00
117.97    3225.68
118.07    2921.00
118.17    2588.38
118.27    2274.18
118.37    1949.00
118.47    1836.42
118.57    1507.00
118.67    1389.47
118.77    1338.00
118.87    1140.00
118.97    1031.00
119.07     949.71
119.17     894.62
119.27     828.00
119.37     843.66
119.47     765.47
119.57     687.05
119.67     640.20
119.77     675.00
119.87     610.15
119.97     634.00
120.07     607.00
120.17     596.25
120.27     561.00
120.37     589.00
120.47     558.00
120.57     541.00
120.67     585.00
120.77     608.81
120.87     604.07
120.97     571.00
121.07     560.46
121.17     576.00
121.27     626.95
121.37     596.00
121.47     588.00
121.57     565.22
121.67     586.00
121.77     603.53
121.87     617.00
121.97     599.52
122.07     629.00
122.17     632.00
122.27     630.00
122.37     590.00
122.47     620.87
122.57     634.00
122.67     624.56
122.77     671.38
122.87     628.00
122.97     632.00
123.07     657.00
123.17     623.92
123.27     648.00
123.37     680.08
123.47     623.00
123.57     645.00
123.67     601.34
123.77     671.08
123.87     642.00
123.97     597.98
124.07     574.94
124.17     597.00
124.27     594.00
124.37     612.13
124.47     612.00
124.57     584.00
124.67     573.54
124.77     577.00
124.87     639.00
124.97     593.00
