  9.97     599.00
 10.07     532.62
 10.17     596.00
 10.27     530.62
 10.37     595.72
 10.47     614.07
 10.57     590.00
 10.67     614.00
 10.77     583.00
 10.87     586.90
 10.97     590.00
 11.07     580.00
 11.17     587.00
 11.27     562.16
 11.37     585.65
 11.47     531.42
 11.57     599.00
 11.67     617.93
 11.77     632.00
 11.87     655.00
 11.97     667.42
 12.07     675.00
 12.17     660.00
 12.27     702.00
 12.37     630.34
 12.47     629.00
 12.57     644.00
 12.67     550.82
 12.77     571.00
 12.87     548.00
 12.97     547.00
 13.07     574.00
 13.17     551.22
 13.27     604.61
 13.37     541.57
 13.47     555.00
 13.57     544.19
 13.67     541.00
 13.77     580.00
 13.87     589.00
 13.97     601.12
 14.07     565.45
 14.17     556.00
 14.27     565.00
 14.37     517.00
 14.47     602.00
 14.57     566.00
 14.67     589.42
 14.77     593.00
 14.87     566.78
 14.97     601.00
 15.07     567.00
 15.17     534.00
 15.27     555.00
 15.37     535.17
 15.47     533.66
 15.57     585.50
 15.67     539.00
 15.77     582.00
 15.87     516.00
 15.97     589.13
 16.07     559.00
 16.17     562.00
 16.27     573.00
 16.37     555.00
 16.47     517.00
 16.57     545.10
 16.67     548.46
 16.77     579.00
 16.87     558.00
 16.97     568.75
 17.07     577.00
 17.17     531.74
 17.27     568.00
 17.37     553.22
 17.47     596.85
 17.57     533.32
 17.67     597.02
 17.77     523.72
 17.87     533.00
 17.97     540.00
 18.07     532.00
 18.17     550.00
 18.27     572.00
 18.37     558.00
 18.47     566.00
 18.57     580.26
 18.67     542.20
 18.77     553.00
 18.87     551.00
 18.97     531.10
 19.07     514.00
 19.17     547.00
 19.27     516.35
 19.37     573.00
 19.47     567.00
 19.57     499.00
 19.67     539.00
 19.77     567.00
 19.87     572.93
 19.97     566.98
 20.07     552.00
 20.17     559.00
 20.27     503.00
 20.37     559.00
 20.47     521.00
 20.57     560.00
 20.67     538.00
 20.77     575.35
 20.87     520.00
 20.97     575.00
 21.07     599.34
 21.17     574.06
 21.27     534.40
 21.37     533.00
 21.47     554.00
 21.57     539.00
 21.67     509.00
 21.77     608.00
 21.87     525.29
 21.97     503.00
 22.07     542.00
 22.17     518.14
 22.27     513.53
 22.37     550.00
 22.47     526.00
 22.57     597.00
 22.67     535.07
 22.77     521.37
 22.87     556.00
 22.97     526.00
 23.07     562.23
 23.17     578.00
 23.27     591.13
 23.37     556.00
 23.47     524.47
 23.57     576.00
 23.67     553.22
 23.77     549.00
 23.87     536.00
 23.97     509.21
 24.07     571.62
 24.17     553.00
 24.27     574.00
 24.37     593.39
 24.47     627.00
 24.57     603.00
 24.67     632.00
 24.77     634.00
 24.87     632.00
 24.97     652.00
 25.07     580.00
 25.17     613.00
 25.27     549.00
 25.37     574.00
 25.47     513.00
 25.57     539.00
 25.67     550.00
 25.77     562.00
 25.87     560.00
 25.97     514.00
 26.07     543.00
 26.17     536.91
 26.27     538.00
 26.37     546.84
 26.47     523.00
 26.57     573.00
 26.67     538.57
 26.77     530.66
 26.87     509.30
 26.97     538.00
 27.07     570.00
 27.17     543.81
 27.27     608.00
 27.37     533.92
 27.47     544.00
 27.57     521.71
 27.67     564.00
 27.77     574.11
 27.87     551.87
 27.97     695.75
 28.07     801.41
 28.17     907.00
 28.27    1004.00
 28.37     871.00
 28.47     822.00
 28.57     711.00
 28.67     707.00
 28.77     720.00
 28.87     761.00
 28.97     817.00
 29.07     735.00
 29.17     738.88
 29.27     600.95
 29.37     611.00
 29.47     563.00
 29.57     582.00
 29.67     558.80
 29.77     609.06
 29.87     520.81
 29.97     592.00
 30.07     586.00
 30.17     523.00
 30.27     584.00
 30.37     551.50
 30.47     526.01
 30.57     565.00
 30.67     601.00
 30.77     573.00
 30.87     653.00
 30.97     609.03
 31.07     663.00
 31.17     585.00
 31.27     521.80
 31.37     521.55
 31.47     547.78
 31.57     587.00
 31.67     471.00
 31.77     555.00
 31.87     502.96
 31.97     514.00
 32.07     544.00
 32.17     568.00
 32.27     554.08
 32.37     562.00
 32.47     587.00
 32.57     544.53
 32.67     527.76
 32.77     570.58
 32.87     521.77
 32.97     544.00
 33.07     503.00
 33.17     513.94
 33.27     551.00
 33.37     570.63
 33.47     577.00
 33.57     610.00
 33.67     608.00
 33.77     730.67
 33.87     882.00
 33.97    1062.00
 34.07    1016.00
 34.17     966.00
 34.27     935.00
 34.37     752.00
 34.47     696.95
 34.57     586.00
 34.67     550.00
 34.77     567.69
 34.87     537.00
 34.97     533.00
 35.07     542.00
 35.17     553.41
 35.27     510.00
 35.37     523.00
 35.47     528.00
 35.57     529.85
 35.67     541.00
 35.77     517.00
 35.87     557.00
 35.97     561.89
 36.07     513.00
 36.17     529.00
 36.27     552.00
 36.37     505.00
 36.47     525.53
 36.57     552.79
 36.67     508.69
 36.77     477.00
 36.87     479.81
 36.97     552.71
 37.07     522.00
 37.17     522.00
 37.27     512.00
 37.37     512.00
 37.47     558.57
 37.57     514.00
 37.67     533.00
 37.77     521.69
 37.87     508.68
 37.97     556.03
 38.07     501.09
 38.17     529.97
 38.27     497.00
 38.37     490.64
 38.47     464.00
 38.57     496.00
 38.67     477.25
 38.77     485.67
 38.87     552.53
 38.97     491.00
 39.07     517.00
 39.17     481.00
 39.27     501.87
 39.37     504.72
 39.47     540.86
 39.57     507.00
 39.67     494.00
 39.77     501.06
 39.87     512.63
 39.97     495.00
 40.07     500.00
 40.17     520.00
 40.27     482.00
 40.37     480.00
 40.47     488.00
 40.57     500.00
 40.67     496.00
 40.77     556.00
 40.87     534.00
 40.97     526.60
 41.07     491.44
 41.17     519.88
 41.27     518.00
 41.37     550.79
 41.47     504.00
 41.57     488.00
 41.67     504.00
 41.77     522.00
 41.87     484.00
 41.97     489.00
 42.07     536.27
 42.17     549.00
 42.27     555.00
 42.37     592.17
 42.47     587.00
 42.57     638.76
 42.67     608.00
 42.77     655.80
 42.87     635.79
 42.97     568.00
 43.07     525.75
 43.17     519.66
 43.27     519.00
 43.37     521.61
 43.47     507.00
 43.57     489.00
 43.67     485.00
 43.77     534.00
 43.87     549.00
 43.97     510.00
 44.07     514.00
 44.17     523.00
 44.27     466.18
 44.37     504.00
 44.47     526.00
 44.57     504.00
 44.67     539.00
 44.77     477.00
 44.87     541.00
 44.97     524.05
 45.07     494.00
 45.17     481.02
 45.27     509.23
 45.37     531.17
 45.47     512.85
 45.57     498.00
 45.67     526.73
 45.77     513.90
 45.87     489.94
 45.97     470.49
 46.07     517.67
 46.17     504.00
 46.27     464.54
 46.37     527.56
 46.47     502.00
 46.57     510.00
 46.67     517.00
 46.77     479.04
 46.87     478.00
 46.97     507.08
 47.07     500.00
 47.17     508.36
 47.27     573.00
 47.37     493.84
 47.47     533.22
 47.57     591.71
 47.67     621.00
 47.77     582.00
 47.87     573.79
 47.97     600.00
 48.07     575.00
 48.17     599.00
 48.27     589.83
 48.37     518.00
 48.47     515.78
 48.57     568.00
 48.67     528.00
 48.77     557.00
 48.87     521.00
 48.97     570.00
 49.07     567.88
 49.17     586.00
 49.27     604.00
 49.37     649.00
 49.47     693.00
 49.57     800.00
 49.67     893.00
 49.77    1119.86
 49.87    1488.27
 49.97    1786.00
 50.07    2209.00
 50.17    2558.93
 50.27    2482.00
 50.37    2199.00
 50.47    1829.83
 50.57    1396.00
 50.67    1085.09
 50.77     852.00
 50.87     687.00
 50.97     661.00
 51.07     623.00
 51.17     639.00
 51.27     612.00
 51.37     588.00
 51.47     581.00
 51.57     543.00
 51.67     511.92
 51.77     502.27
 51.87     541.00
 51.97     620.00
 52.07     563.00
 52.17     506.84
 52.27     593.00
 52.37     529.00
 52.47     590.00
 52.57     580.00
 52.67     542.26
 52.77     617.85
 52.87     674.47
 52.97     678.82
 53.07     768.96
 53.17     951.97
 53.27     982.00
 53.37    1097.67
 53.47    1270.40
 53.57    1201.85
 53.67    1149.00
 53.77     955.06
 53.87     835.00
 53.97     689.00
 54.07     705.00
 54.17     654.75
 54.27     611.00
 54.37     540.11
 54.47     556.00
 54.57     591.00
 54.67     539.26
 54.77     550.00
 54.87     506.00
 54.97     583.72
 55.07     588.27
 55.17     513.35
 55.27     551.00
 55.37     564.00
 55.47     586.00
 55.57     528.58
 55.67     599.00
 55.77     545.00
 55.87     596.00
 55.97     669.82
 56.07     683.70
 56.17     760.00
 56.27     946.76
 56.37    1104.00
 56.47    1343.00
 56.57    1761.83
 56.67    2142.38
 56.77    2577.23
 56.87    2739.27
 56.97    2655.00
 57.07    2320.60
 57.17    2053.00
 57.27    1688.00
 57.37    1325.31
 57.47    1034.00
 57.57     866.10
 57.67     786.29
 57.77     687.00
 57.87     716.00
 57.97     705.00
 58.07     689.00
 58.17     722.64
 58.27     803.92
 58.37     828.43
 58.47    1010.22
 58.57    1058.00
 58.67    1269.18
 58.77    1332.00
 58.87    1504.82
 58.97    1533.00
 59.07    1559.76
 59.17    1534.00
 59.27    1412.00
 59.37    1335.48
 59.47    1254.00
 59.57    1237.00
 59.67    1132.00
 59.77    1199.00
 59.87    1148.97
 59.97    1297.00
 60.07    1435.18
 60.17    1556.00
 60.27    1563.42
 60.37    1511.00
 60.47    1456.49
 60.57    1264.00
 60.67    1084.00
 60.77     916.00
 60.87     798.00
 60.97     659.00
 61.07     712.00
 61.17     638.00
 61.27     643.84
 61.37     658.00
 61.47     694.30
 61.57     796.04
 61.67     828.41
 61.77     987.00
 61.87    1109.00
 61.97    1304.08
 62.07    1390.00
 62.17    1446.76
 62.27    1346.00
 62.37    1370.53
 62.47    1176.00
 62.57    1028.62
 62.67     895.98
 62.77     785.00
 62.87     671.00
 62.97     675.76
 63.07     605.48
 63.17     589.00
 63.27     607.34
 63.37     583.00
 63.47     617.00
 63.57     558.98
 63.67     550.00
 63.77     546.97
 63.87     643.00
 63.97     673.00
 64.07     734.48
 64.17     751.00
 64.27     831.00
 64.37     938.00
 64.47     969.00
 64.57     977.92
 64.67    1023.00
 64.77    1026.37
 64.87     939.00
 64.97     859.64
 65.07     799.00
 65.17     823.58
 65.27     743.00
 65.37     686.00
 65.47     673.00
 65.57     589.56
 65.67     640.00
 65.77     629.91
 65.87     594.00
 65.97     535.00
 66.07     554.00
 66.17     529.00
 66.27     551.61
 66.37     527.63
 66.47     536.42
 66.57     561.30
 66.67     554.02
 66.77     600.64
 66.87     598.00
 66.97     541.00
 67.07     621.00
 67.17     671.00
 67.27     749.00
 67.37     897.00
 67.47    1034.80
 67.57    1229.00
 67.67    1528.07
 67.77    1781.35
 67.87    2077.00
 67.97    2239.16
 68.07    2329.00
 68.17    2439.00
 68.27    2289.00
 68.37    2106.00
 68.47    1853.00
 68.57    1512.58
 68.67    1324.86
 68.77    1036.00
 68.87     851.11
 68.97     751.81
 69.07     700.00
 69.17     653.00
 69.27     654.00
 69.37     634.00
 69.47     601.00
 69.57     620.05
 69.67     571.21
 69.77     599.02
 69.87     571.00
 69.97     555.00
 70.07     561.06
 70.17     559.00
 70.27     589.00
 70.37     601.49
 70.47     514.00
 70.57     549.00
 70.67     623.00
 70.77     610.00
 70.87     552.00
 70.97     583.00
 71.07     639.00
 71.17     715.45
 71.27     836.00
 71.37     905.00
 71.47    1102.00
 71.57    1276.00
 71.67    1432.00
 71.77    1651.23
 71.87    1824.00
 71.97    1857.00
 72.07    1926.00
 72.17    1874.00
 72.27    1762.02
 72.37    1676.00
 72.47    1399.83
 72.57    1247.19
 72.67    1166.00
 72.77    1025.35
 72.87     966.00
 72.97     953.13
 73.07     769.00
 73.17     763.00
 73.27     689.00
 73.37     679.00
 73.47     635.00
 73.57     604.00
 73.67     598.00
 73.77     592.00
 73.87     569.00
 73.97     639.00
 74.07     596.00
 74.17     589.62
 74.27     625.00
 74.37     619.00
 74.47     635.00
 74.57     526.09
 74.67     597.01
 74.77     531.47
 74.87     564.92
 74.97     632.00
 75.07     607.03
 75.17     590.00
 75.27     559.00
 75.37     611.00
 75.47     543.34
 75.57     563.34
 75.67     550.00
 75.77     616.67
 75.87     606.00
 75.97     646.00
 76.07     635.00
 76.17     677.57
 76.27     661.17
 76.37     714.98
 76.47     691.00
 76.57     672.63
 76.67     726.00
 76.77     649.00
 76.87     646.00
 76.97     669.00
 77.07     672.62
 77.17     550.00
 77.27     551.00
 77.37     568.37
 77.47     524.48
 77.57     513.57
 77.67     554.93
 77.77     540.00
 77.87     571.86
 77.97     507.00
 78.07     539.00
 78.17     504.00
 78.27     497.00
 78.37     492.00
 78.47     496.00
 78.57     550.67
 78.67     488.25
 78.77     509.00
 78.87     502.00
 78.97     491.00
 79.07     496.97
 79.17     560.32
 79.27     552.00
 79.37     550.00
 79.47     495.00
 79.57     501.00
 79.67     496.00
 79.77     538.27
 79.87     470.00
 79.97     550.00
 80.07     544.00
 80.17     561.00
 80.27     594.81
 80.37     608.00
 80.47     580.00
 80.57     545.00
 80.67     591.00
 80.77     629.34
 80.87     701.68
 80.97     720.00
 81.07     705.53
 81.17     698.79
 81.27     767.00
 81.37     809.00
 81.47     784.00
 81.57     740.00
 81.67     744.60
 81.77     725.00
 81.87     705.63
 81.97     715.00
 82.07     702.00
 82.17     659.00
 82.27     643.00
 82.37     642.00
 82.47     592.60
 82.57     591.36
 82.67     560.91
 82.77     566.00
 82.87     580.00
 82.97     604.28
 83.07     550.00
 83.17     543.53
 83.27     540.00
 83.37     589.10
 83.47     531.00
 83.57     536.00
 83.67     610.26
 83.77     565.00
 83.87     567.00
 83.97     595.00
 84.07     600.52
 84.17     541.00
 84.27     579.00
 84.37     535.00
 84.47     587.25
 84.57     563.24
 84.67     521.00
 84.77     555.00
 84.87     560.23
 84.97     496.50
 85.07     530.00
 85.17     526.00
 85.27     539.00
 85.37     529.00
 85.47     537.00
 85.57     561.88
 85.67     527.00
 85.77     539.05
 85.87     497.77
 85.97     513.88
 86.07     546.00
 86.17     567.00
 86.27     537.00
 86.37     550.64
 86.47     562.00
 86.57     558.03
 86.67     536.00
 86.77     554.00
 86.87     557.40
 86.97     611.83
 87.07     629.00
 87.17     646.00
 87.27     646.26
 87.37     694.00
 87.47     661.35
 87.57     635.19
 87.67     714.00
 87.77     634.00
 87.87     588.00
 87.97     637.00
 88.07     601.00
 88.17     646.00
 88.27     609.33
 88.37     617.88
 88.47     554.13
 88.57     600.11
 88.67     609.00
 88.77     555.00
 88.87     596.92
 88.97     549.10
 89.07     555.08
 89.17     618.00
 89.27     592.00
 89.37     580.00
 89.47     591.00
 89.57     624.91
 89.67     567.00
 89.77     571.00
 89.87     576.04
 89.97     571.00
 90.07     585.61
 90.17     527.74
 90.27     535.00
 90.37     508.12
 90.47     538.00
 90.57     539.00
 90.67     542.61
 90.77     506.00
 90.87     554.58
 90.97     500.00
 91.07     516.00
 91.17     545.00
 91.27     564.01
 91.37     557.00
 91.47     559.00
 91.57     544.00
 91.67     538.79
 91.77     501.71
 91.87     527.00
 91.97     544.85
 92.07     568.00
 92.17     605.22
 92.27     616.00
 92.37     597.55
 92.47     658.22
 92.57     662.00
 92.67     675.00
 92.77     669.00
 92.87     721.00
 92.97     682.00
 93.07     711.00
 93.17     789.00
 93.27     861.00
 93.37     756.00
 93.47     804.00
 93.57     855.69
 93.67     865.00
 93.77     823.00
 93.87     895.00
 93.97     821.00
 94.07     826.00
 94.17     862.00
 94.27     814.00
 94.37     840.81
 94.47     895.00
 94.57     863.99
 94.67     935.00
 94.77     889.32
 94.87     908.00
 94.97     862.90
 95.07     918.00
 95.17     908.00
 95.27     867.00
 95.37     817.29
 95.47     816.00
 95.57     777.00
 95.67     721.44
 95.77     702.47
 95.87     693.30
 95.97     716.00
 96.07     675.00
 96.17     658.00
 96.27     767.87
 96.37     727.00
 96.47     802.00
 96.57     885.00
 96.67     956.00
 96.77     955.00
 96.87    1008.26
 96.97    1096.00
 97.07    1231.00
 97.17    1316.00
 97.27    1374.00
 97.37    1398.00
 97.47    1452.00
 97.57    1490.00
 97.67    1386.00
 97.77    1381.45
 97.87    1421.00
 97.97    1319.00
 98.07    1236.08
 98.17    1187.00
 98.27    1055.00
 98.37     977.85
 98.47     933.00
 98.57     904.00
 98.67     917.97
 98.77     810.00
 98.87     827.00
 98.97     814.70
 99.07     830.00
 99.17     850.00
 99.27     889.00
 99.37     935.00
 99.47     976.00
 99.57    1122.17
 99.67    1163.00
 99.77    1306.08
 99.87    1379.00
 99.97    1501.00
100.07    1591.00
100.17    1812.01
100.27    1871.43
100.37    1941.00
100.47    2002.00
100.57    2101.43
100.67    2008.15
100.77    2027.82
100.87    2119.00
100.97    2053.00
101.07    1975.17
101.17    1862.00
101.27    1738.61
101.37    1615.00
101.47    1619.00
101.57    1475.87
101.67    1498.00
101.77    1350.00
101.87    1363.59
101.97    1204.12
102.07    1175.00
102.17    1180.77
102.27    1154.00
102.37    1129.22
102.47    1125.00
102.57    1100.00
102.67    1046.06
102.77    1014.00
102.87    1001.00
102.97     889.00
103.07     935.27
103.17     868.50
103.27     879.00
103.37     780.00
103.47     777.00
103.57     740.00
103.67     665.35
103.77     653.94
103.87     665.00
103.97     597.10
104.07     620.00
104.17     615.55
104.27     580.00
104.37     567.86
104.47     582.00
104.57     504.61
104.67     562.70
104.77     516.57
104.87     572.55
104.97     585.00
105.07     562.00
105.17     553.00
105.27     520.69
105.37     536.00
105.47     586.00
105.57     531.50
105.67     547.00
105.77     575.00
105.87     522.93
105.97     565.97
106.07     580.00
106.17     609.31
106.27     600.00
106.37     610.00
106.47     634.48
106.57     640.81
106.67     619.00
106.77     645.00
106.87     627.00
106.97     669.00
107.07     660.33
107.17     740.14
107.27     684.00
107.37     661.00
107.47     701.00
107.57     692.37
107.67     675.76
107.77     643.00
107.87     665.00
107.97     699.00
108.07     664.00
108.17     681.00
108.27     681.00
108.37     689.00
108.47     660.00
108.57     656.00
108.67     660.37
108.77     725.00
108.87     665.72
108.97     704.00
109.07     677.45
109.17     669.00
109.27     683.99
109.37     691.00
109.47     696.24
109.57     635.85
109.67     668.63
109.77     623.04
109.87     595.58
109.97     569.49
110.07     599.00
110.17     587.00
110.27     577.00
110.37     581.61
110.47     511.75
110.57     555.00
110.67     554.00
110.77     548.77
110.87     592.00
110.97     575.34
111.07     541.37
111.17     561.67
111.27     561.86
111.37     578.00
111.47     539.63
111.57     546.00
111.67     584.98
111.77     596.58
111.87     526.42
111.97     544.00
112.07     528.78
112.17     569.00
112.27     542.00
112.37     583.00
112.47     574.70
112.57     592.00
112.67     602.00
112.77     622.00
112.87     654.90
112.97     656.00
113.07     699.00
113.17     647.00
113.27     703.00
113.37     739.00
113.47     746.00
113.57     767.00
113.67     802.00
113.77     898.00
113.87     870.30
113.97     933.00
114.07    1027.34
114.17    1053.00
114.27    1079.00
114.37    1233.00
114.47    1310.00
114.57    1471.00
114.67    1616.00
114.77    1663.00
114.87    1888.00
114.97    2078.00
115.07    2373.00
115.17    2508.17
115.27    2802.00
115.37    3173.00
115.47    3434.00
115.57    3741.00
115.67    4297.00
115.77    4587.00
115.87    4871.00
115.97    5228.48
116.07    5529.00
116.17    6139.00
116.27    6298.00
116.37    6592.28
116.47    6829.00
116.57    6820.39
116.67    6827.92
116.77    6993.00
116.87    6802.00
116.97    6813.00
117.07    6344.45
117.17    6077.00
117.27    5669.00
117.37    5432.61
117.47    4963.00
117.57    4580.00
117.67    4407.00
117.77    3965.00
117.87    3566.00
117.97    3113.00
118.07    2818.93
118.17    2528.67
118.27    2211.00
118.37    1951.00
118.47    1700.51
118.57    1514.00
118.67    1367.00
118.77    1242.00
118.87    1091.00
118.97    1014.00
119.07     926.00
119.17     872.00
119.27     837.00
119.37     821.70
119.47     709.00
119.57     725.00
119.67     647.00
119.77     658.00
119.87     681.00
119.97     668.78
120.07     584.61
120.17     589.00
120.27     569.96
120.37     556.00
120.47     623.43
120.57     590.00
120.67     578.00
120.77     604.23
120.87     592.00
120.97     562.00
121.07     553.00
121.17     572.00
121.27     591.94
121.37     631.00
121.47     611.00
121.57     578.00
121.67     581.00
121.77     592.00
121.87     585.00
121.97     631.16
122.07     639.00
122.17     608.91
122.27     625.00
122.37     600.00
122.47     625.00
122.57     696.00
122.67     676.69
122.77     651.00
122.87     642.88
122.97     686.17
123.07     651.74
123.17     639.00
123.27     649.00
123.37     655.15
123.47     662.00
123.57     647.00
123.67     610.00
123.77     619.00
123.87     601.27
123.97     623.00
124.07     668.00
124.17     602.11
124.27     569.62
124.37     629.00
124.47     641.00
124.57     635.00
124.67     542.00
124.77     561.73
124.87     565.00
124.97     583.00
