  9.97     659.00
 10.07     601.00
 10.17     610.59
 10.27     565.15
 10.37     598.00
 10.47     619.00
 10.57     591.45
 10.67     592.93
 10.77     610.00
 10.87     531.74
 10.97     577.00
 11.07     638.00
 11.17     618.00
 11.27     584.76
 11.37     630.00
 11.47     591.00
 11.57     595.00
 11.67     648.00
 11.77     554.40
 11.87     595.54
 11.97     685.73
 12.07     692.74
 12.17     683.81
 12.27     717.00
 12.37     719.24
 12.47     653.83
 12.57     602.63
 12.67     628.00
 12.77     591.00
 12.87     609.00
 12.97     557.00
 13.07     636.67
 13.17     628.00
 13.27     580.00
 13.37     551.00
 13.47     600.56
 13.57     570.00
 13.67     554.00
 13.77     649.94
 13.87     639.64
 13.97     604.00
 14.07     546.24
 14.17     569.00
 14.27     590.00
 14.37     588.00
 14.47     568.00
 14.57     573.00
 14.67     557.00
 14.77     583.59
 14.87     585.00
 14.97     619.00
 15.07     592.79
 15.17     544.13
 15.27     641.83
 15.37     535.00
 15.47     621.00
 15.57     568.09
 15.67     625.00
 15.77     532.00
 15.87     573.00
 15.97     547.00
 16.07     618.00
 16.17     610.00
 16.27     584.00
 16.37     569.00
 16.47     591.00
 16.57     578.00
 16.67     571.07
 16.77     566.00
 16.87     581.00
 16.97     554.50
 17.07     547.51
 17.17     606.65
 17.27     567.00
 17.37     590.83
 17.47     587.00
 17.57     576.00
 17.67     585.00
 17.77     526.00
 17.87     572.00
 17.97     569.00
 18.07     628.05
 18.17     557.00
 18.27     577.85
 18.37     589.00
 18.47     634.00
 18.57     575.61
 18.67     591.00
 18.77     590.71
 18.87     635.28
 18.97     556.11
 19.07     584.00
 19.17     575.00
 19.27     572.00
 19.37     595.00
 19.47     623.09
 19.57     544.00
 19.67     551.35
 19.77     603.00
 19.87     581.00
 19.97     617.12
 20.07     532.00
 20.17     515.00
 20.27     567.00
 20.37     632.10
 20.47     563.12
 20.57     574.00
 20.67     624.50
 20.77     578.00
 20.87     598.00
 20.97     579.51
 21.07     544.99
 21.17     583.00
 21.27     604.99
 21.37     570.00
 21.47     599.00
 21.57     540.37
 21.67     586.00
 21.77     537.00
 21.87     613.00
 21.97     632.11
 22.07     587.00
 22.17     605.00
 22.27     585.00
 22.37     573.54
 22.47     586.00
 22.57     548.00
 22.67     576.00
 22.77     627.48
 22.87     568.56
 22.97     601.23
 23.07     635.26
 23.17     591.00
 23.27     549.00
 23.37     608.00
 23.47     608.20
 23.57     546.00
 23.67     592.00
 23.77     579.00
 23.87     582.23
 23.97     590.00
 24.07     576.77
 24.17     591.00
 24.27     585.00
 24.37     564.70
 24.47     590.26
 24.57     567.32
 24.67     586.89
 24.77     650.35
 24.87     625.00
 24.97     669.83
 25.07     679.53
 25.17     662.00
 25.27     649.00
 25.37     609.00
 25.47     653.00
 25.57     642.00
 25.67     603.00
 25.77     589.00
 25.87     583.00
 25.97     619.28
 26.07     652.00
 26.17     625.96
 26.27     610.00
 26.37     629.00
 26.47     627.00
 26.57     571.11
 26.67     629.00
 26.77     673.00
 26.87     600.80
 26.97     664.00
 27.07     603.00
 27.17     587.00
 27.27     638.00
 27.37     610.67
 27.47     671.00
 27.57     662.00
 27.67     566.62
 27.77     681.00
 27.87     583.90
 27.97     688.00
 28.07     721.00
 28.17     838.00
 28.27     950.00
 28.37     955.00
 28.47     854.09
 28.57     897.40
 28.67     786.16
 28.77     842.00
 28.87     840.00
 28.97     839.00
 29.07     780.56
 29.17     926.00
 29.27     803.00
 29.37     752.33
 29.47     732.00
 29.57     708.00
 29.67     623.00
 29.77     540.12
 29.87     662.00
 29.97     654.00
 30.07     630.00
 30.17     631.90
 30.27     652.00
 30.37     672.00
 30.47     627.00
 30.57     638.00
 30.67     652.00
 30.77     639.00
 30.87     676.00
 30.97     684.26
 31.07     656.24
 31.17     664.00
 31.27     700.00
 31.37     573.00
 31.47     582.46
 31.57     622.38
 31.67     588.00
 31.77     571.00
 31.87     571.31
 31.97     519.25
 32.07     537.96
 32.17     564.00
 32.27     571.00
 32.37     543.00
 32.47     627.00
 32.57     588.00
 32.67     559.00
 32.77     541.56
 32.87     596.56
 32.97     595.00
 33.07     542.00
 33.17     590.00
 33.27     614.75
 33.37     617.97
 33.47     597.09
 33.57     632.00
 33.67     666.00
 33.77     755.57
 33.87     729.15
 33.97     871.00
 34.07     959.86
 34.17    1004.06
 34.27     975.00
 34.37     925.00
 34.47     821.61
 34.57     721.00
 34.67     659.00
 34.77     578.00
 34.87     574.00
 34.97     529.27
 35.07     559.00
 35.17     587.31
 35.27     515.00
 35.37     557.00
 35.47     575.00
 35.57     600.05
 35.67     540.00
 35.77     554.91
 35.87     547.00
 35.97     524.00
 36.07     525.00
 36.17     567.00
 36.27     532.87
 36.37     553.40
 36.47     508.00
 36.57     523.00
 36.67     537.00
 36.77     541.00
 36.87     563.62
 36.97     522.00
 37.07     481.00
 37.17     517.00
 37.27     516.00
 37.37     523.00
 37.47     542.00
 37.57     588.88
 37.67     532.00
 37.77     518.17
 37.87     526.00
 37.97     500.76
 38.07     512.33
 38.17     550.00
 38.27     531.00
 38.37     540.00
 38.47     558.54
 38.57     537.00
 38.67     523.00
 38.77     526.05
 38.87     514.00
 38.97     506.00
 39.07     501.26
 39.17     575.91
 39.27     499.00
 39.37     523.00
 39.47     513.00
 39.57     482.50
 39.67     514.23
 39.77     528.00
 39.87     503.00
 39.97     504.00
 40.07     534.00
 40.17     501.00
 40.27     531.50
 40.37     549.00
 40.47     486.00
 40.57     552.56
 40.67     500.00
 40.77     535.00
 40.87     538.79
 40.97     470.00
 41.07     486.00
 41.17     500.00
 41.27     546.00
 41.37     478.00
 41.47     507.00
 41.57     501.00
 41.67     553.37
 41.77     478.00
 41.87     521.00
 41.97     508.00
 42.07     515.00
 42.17     581.49
 42.27     508.00
 42.37     528.00
 42.47     611.11
 42.57     607.17
 42.67     553.00
 42.77     610.00
 42.87     626.01
 42.97     589.00
 43.07     570.00
 43.17     591.77
 43.27     518.59
 43.37     518.00
 43.47     547.00
 43.57     518.00
 43.67     512.00
 43.77     525.04
 43.87     485.00
 43.97     512.95
 44.07     526.00
 44.17     535.00
 44.27     478.98
 44.37     545.00
 44.47     526.14
 44.57     520.00
 44.67     506.00
 44.77     523.00
 44.87     508.00
 44.97     519.00
 45.07     502.00
 45.17     548.00
 45.27     535.00
 45.37     522.00
 45.47     526.09
 45.57     491.02
 45.67     526.00
 45.77     474.00
 45.87     561.00
 45.97     528.78
 46.07     571.00
 46.17     513.00
 46.27     487.00
 46.37     563.05
 46.47     499.00
 46.57     525.00
 46.67     542.00
 46.77     474.72
 46.87     536.08
 46.97     525.00
 47.07     546.00
 47.17     483.99
 47.27     494.00
 47.37     525.81
 47.47     502.24
 47.57     562.20
 47.67     548.10
 47.77     590.00
 47.87     603.00
 47.97     614.00
 48.07     591.00
 48.17     603.16
 48.27     601.00
 48.37     535.00
 48.47     547.55
 48.57     538.00
 48.67     586.00
 48.77     546.59
 48.87     574.00
 48.97     554.71
 49.07     560.00
 49.17     568.00
 49.27     602.36
 49.37     581.00
 49.47     595.00
 49.57     655.00
 49.67     676.00
 49.77     767.00
 49.87     966.03
 49.97    1247.00
 50.07    1535.00
 50.17    2005.05
 50.27    2198.00
 50.37    2365.00
 50.47    2196.56
 50.57    1991.00
 50.67    1650.00
 50.77    1336.28
 50.87    1053.68
 50.97     900.72
 51.07     728.00
 51.17     742.43
 51.27     678.89
 51.37     688.01
 51.47     623.00
 51.57     634.98
 51.67     652.74
 51.77     630.00
 51.87     632.00
 51.97     575.00
 52.07     560.00
 52.17     611.00
 52.27     550.00
 52.37     639.00
 52.47     594.00
 52.57     591.00
 52.67     555.45
 52.77     637.00
 52.87     618.66
 52.97     667.24
 53.07     649.00
 53.17     761.00
 53.27     836.85
 53.37     852.00
 53.47    1005.00
 53.57    1116.39
 53.67    1130.31
 53.77    1129.00
 53.87    1179.00
 53.97    1075.00
 54.07    1022.51
 54.17     820.51
 54.27     776.00
 54.37     664.00
 54.47     652.00
 54.57     647.00
 54.67     598.42
 54.77     601.00
 54.87     587.00
 54.97     580.00
 55.07     517.39
 55.17     623.00
 55.27     602.00
 55.37     574.57
 55.47     608.00
 55.57     567.00
 55.67     570.02
 55.77     595.39
 55.87     656.00
 55.97     636.00
 56.07     688.22
 56.17     691.00
 56.27     792.00
 56.37     870.00
 56.47     988.00
 56.57    1185.00
 56.67    1575.02
 56.77    1787.00
 56.87    2094.00
 56.97    2412.00
 57.07    2529.00
 57.17    2578.00
 57.27    2398.00
 57.37    2094.00
 57.47    1684.00
 57.57    1397.00
 57.67    1155.00
 57.77     980.41
 57.87     852.00
 57.97     763.22
 58.07     743.00
 58.17     715.00
 58.27     712.42
 58.37     703.00
 58.47     819.00
 58.57     752.82
 58.67     803.70
 58.77     978.00
 58.87    1054.00
 58.97    1078.00
 59.07    1119.51
 59.17    1195.30
 59.27    1298.00
 59.37    1200.79
 59.47    1271.00
 59.57    1303.00
 59.67    1079.64
 59.77    1158.00
 59.87    1203.00
 59.97    1248.00
 60.07    1296.00
 60.17    1430.00
 60.27    1459.80
 60.37    1537.00
 60.47    1530.00
 60.57    1553.06
 60.67    1429.00
 60.77    1291.00
 60.87    1222.00
 60.97     971.60
 61.07     861.00
 61.17     767.00
 61.27     725.38
 61.37     705.83
 61.47     714.00
 61.57     693.00
 61.67     731.00
 61.77     753.00
 61.87     841.18
 61.97    1030.74
 62.07    1178.03
 62.17    1213.00
 62.27    1245.00
 62.37    1302.00
 62.47    1410.34
 62.57    1277.00
 62.67    1196.00
 62.77    1120.98
 62.87     955.00
 62.97     817.00
 63.07     786.24
 63.17     697.00
 63.27     647.62
 63.37     640.00
 63.47     625.00
 63.57     596.00
 63.67     623.14
 63.77     608.00
 63.87     575.70
 63.97     632.00
 64.07     638.86
 64.17     683.00
 64.27     725.00
 64.37     759.00
 64.47     812.74
 64.57     901.00
 64.67     916.55
 64.77    1063.03
 64.87    1023.00
 64.97    1037.00
 65.07     977.06
 65.17     960.00
 65.27     916.28
 65.37     880.94
 65.47     841.00
 65.57     695.47
 65.67     679.69
 65.77     669.00
 65.87     663.25
 65.97     580.17
 66.07     613.00
 66.17     594.50
 66.27     595.00
 66.37     585.00
 66.47     591.00
 66.57     562.42
 66.67     596.76
 66.77     563.00
 66.87     590.00
 66.97     643.37
 67.07     634.49
 67.17     663.00
 67.27     691.00
 67.37     729.00
 67.47     808.00
 67.57     916.00
 67.67    1127.69
 67.77    1237.00
 67.87    1433.00
 67.97    1621.00
 68.07    1940.00
 68.17    2093.00
 68.27    2222.78
 68.37    2448.00
 68.47    2435.69
 68.57    2117.70
 68.67    1937.00
 68.77    1767.00
 68.87    1497.00
 68.97    1284.00
 69.07    1158.31
 69.17     950.00
 69.27     818.00
 69.37     707.00
 69.47     688.01
 69.57     633.00
 69.67     629.25
 69.77     648.00
 69.87     638.00
 69.97     599.00
 70.07     584.00
 70.17     603.76
 70.27     591.00
 70.37     538.91
 70.47     576.00
 70.57     642.00
 70.67     559.19
 70.77     610.00
 70.87     658.00
 70.97     619.00
 71.07     624.00
 71.17     643.00
 71.27     708.30
 71.37     792.90
 71.47     863.13
 71.57     884.00
 71.67    1073.82
 71.77    1197.00
 71.87    1414.93
 71.97    1513.00
 72.07    1619.49
 72.17    1766.00
 72.27    1874.00
 72.37    1910.00
 72.47    1791.00
 72.57    1737.00
 72.67    1537.00
 72.77    1406.00
 72.87    1243.00
 72.97    1100.00
 73.07     979.00
 73.17     866.00
 73.27     813.00
 73.37     768.00
 73.47     665.00
 73.57     710.00
 73.67     593.70
 73.77     639.00
 73.87     600.84
 73.97     645.00
 74.07     607.00
 74.17     557.00
 74.27     516.17
 74.37     593.86
 74.47     518.89
 74.57     622.00
 74.67     535.89
 74.77     587.00
 74.87     574.21
 74.97     660.00
 75.07     646.00
 75.17     685.00
 75.27     640.00
 75.37     652.00
 75.47     586.13
 75.57     577.00
 75.67     633.00
 75.77     622.00
 75.87     597.00
 75.97     601.62
 76.07     574.00
 76.17     611.71
 76.27     630.00
 76.37     683.47
 76.47     620.29
 76.57     723.74
 76.67     681.00
 76.77     687.67
 76.87     707.00
 76.97     703.97
 77.07     737.19
 77.17     666.00
 77.27     641.48
 77.37     589.51
 77.47     583.54
 77.57     566.57
 77.67     564.00
 77.77     569.00
 77.87     517.00
 77.97     532.00
 78.07     554.88
 78.17     520.00
 78.27     522.00
 78.37     492.92
 78.47     550.51
 78.57     506.00
 78.67     510.00
 78.77     491.41
 78.87     507.00
 78.97     486.79
 79.07     530.00
 79.17     496.00
 79.27     510.00
 79.37     487.62
 79.47     533.43
 79.57     519.00
 79.67     501.00
 79.77     511.00
 79.87     492.00
 79.97     532.00
 80.07     485.36
 80.17     545.00
 80.27     585.93
 80.37     589.54
 80.47     545.00
 80.57     561.00
 80.67     584.00
 80.77     553.00
 80.87     601.00
 80.97     643.00
 81.07     650.00
 81.17     702.26
 81.27     660.00
 81.37     719.56
 81.47     719.00
 81.57     705.00
 81.67     705.00
 81.77     708.10
 81.87     716.95
 81.97     711.36
 82.07     675.17
 82.17     656.00
 82.27     713.00
 82.37     663.00
 82.47     672.00
 82.57     640.04
 82.67     611.00
 82.77     592.00
 82.87     581.00
 82.97     584.00
 83.07     546.00
 83.17     536.07
 83.27     608.11
 83.37     529.00
 83.47     512.63
 83.57     519.00
 83.67     539.00
 83.77     523.00
 83.87     564.00
 83.97     548.00
 84.07     505.00
 84.17     573.67
 84.27     553.69
 84.37     541.57
 84.47     546.00
 84.57     567.48
 84.67     599.73
 84.77     574.00
 84.87     521.00
 84.97     508.00
 85.07     556.00
 85.17     520.00
 85.27     541.13
 85.37     548.32
 85.47     498.23
 85.57     544.00
 85.67     512.81
 85.77     544.00
 85.87     559.00
 85.97     566.68
 86.07     529.00
 86.17     506.00
 86.27     572.66
 86.37     546.00
 86.47     516.00
 86.57     502.80
 86.67     488.61
 86.77     490.18
 86.87     509.54
 86.97     590.00
 87.07     587.00
 87.17     575.00
 87.27     584.00
 87.37     585.00
 87.47     616.00
 87.57     595.00
 87.67     644.67
 87.77     660.00
 87.87     641.00
 87.97     664.81
 88.07     622.00
 88.17     573.41
 88.27     632.00
 88.37     639.20
 88.47     590.00
 88.57     579.00
 88.67     600.29
 88.77     557.00
 88.87     567.00
 88.97     584.00
 89.07     578.00
 89.17     567.00
 89.27     640.00
 89.37     535.32
 89.47     620.00
 89.57     625.00
 89.67     626.00
 89.77     547.00
 89.87     597.00
 89.97     617.00
 90.07     571.00
 90.17     535.00
 90.27     572.94
 90.37     595.32
 90.47     516.00
 90.57     554.00
 90.67     572.00
 90.77     520.00
 90.87     531.99
 90.97     550.00
 91.07     492.78
 91.17     512.00
 91.27     535.00
 91.37     482.51
 91.47     512.00
 91.57     462.00
 91.67     529.00
 91.77     520.00
 91.87     515.00
 91.97     541.00
 92.07     550.00
 92.17     522.00
 92.27     517.00
 92.37     578.30
 92.47     539.00
 92.57     603.00
 92.67     604.74
 92.77     638.57
 92.87     594.00
 92.97     640.23
 93.07     617.00
 93.17     661.00
 93.27     669.00
 93.37     745.00
 93.47     783.00
 93.57     671.00
 93.67     811.11
 93.77     742.00
 93.87     761.00
 93.97     757.00
 94.07     868.46
 94.17     862.29
 94.27     841.00
 94.37     827.51
 94.47     820.00
 94.57     865.00
 94.67     861.15
 94.77     914.00
 94.87     891.00
 94.97     899.00
 95.07     929.00
 95.17     932.48
 95.27     938.00
 95.37     827.67
 95.47     877.27
 95.57     840.90
 95.67     794.00
 95.77     805.00
 95.87     797.98
 95.97     748.20
 96.07     816.00
 96.17     756.33
 96.27     758.00
 96.37     744.00
 96.47     754.00
 96.57     786.28
 96.67     777.00
 96.77     816.00
 96.87     934.00
 96.97     966.67
 97.07     996.41
 97.17    1001.00
 97.27    1016.00
 97.37    1109.73
 97.47    1180.00
 97.57    1367.00
 97.67    1407.45
 97.77    1401.00
 97.87    1456.89
 97.97    1378.97
 98.07    1482.00
 98.17    1435.00
 98.27    1408.61
 98.37    1381.00
 98.47    1224.00
 98.57    1149.91
 98.67    1178.88
 98.77    1143.00
 98.87    1039.75
 98.97     982.00
 99.07    1018.71
 99.17     923.00
 99.27     905.00
 99.37     855.34
 99.47     966.93
 99.57     882.00
 99.67     934.00
 99.77    1026.00
 99.87    1084.25
 99.97    1125.00
100.07    1208.58
100.17    1262.00
100.27    1367.25
100.37    1536.28
100.47    1609.84
100.57    1653.00
100.67    1649.72
100.77    1821.00
100.87    1924.49
100.97    1917.00
101.07    2020.00
101.17    1990.28
101.27    1962.44
101.37    1925.00
101.47    1894.13
101.57    1904.00
101.67    1837.00
101.77    1699.73
101.87    1677.00
101.97    1637.00
102.07    1605.42
102.17    1433.57
102.27    1443.00
102.37    1424.99
102.47    1317.00
102.57    1319.00
102.67    1209.07
102.77    1173.00
102.87    1213.06
102.97    1156.00
103.07    1157.00
103.17    1078.79
103.27    1053.42
103.37    1022.00
103.47    1019.00
103.57     950.62
103.67     906.00
103.77     936.12
103.87     843.33
103.97     790.00
104.07     762.00
104.17     684.55
104.27     752.20
104.37     639.40
104.47     677.00
104.57     657.05
104.67     626.00
104.77     578.00
104.87     544.06
104.97     610.90
105.07     562.94
105.17     573.00
105.27     607.00
105.37     534.00
105.47     590.94
105.57     547.00
105.67     548.00
105.77     547.54
105.87     541.24
105.97     571.00
106.07     535.00
106.17     601.00
106.27     593.00
106.37     554.25
106.47     578.00
106.57     607.45
106.67     598.00
106.77     553.17
106.87     625.00
106.97     654.00
107.07     623.00
107.17     629.75
107.27     669.00
107.37     674.74
107.47     699.00
107.57     649.00
107.67     702.82
107.77     765.92
107.87     652.00
107.97     664.78
108.07     739.00
108.17     711.00
108.27     652.00
108.37     661.00
108.47     697.00
108.57     647.00
108.67     696.00
108.77     681.82
108.87     670.00
108.97     678.00
109.07     687.00
109.17     721.48
109.27     690.00
109.37     677.00
109.47     727.00
109.57     757.06
109.67     756.05
109.77     676.00
109.87     686.00
109.97     656.99
110.07     715.42
110.17     641.00
110.27     695.00
110.37     583.02
110.47     664.00
110.57     579.00
110.67     559.95
110.77     615.73
110.87     595.00
110.97     608.00
111.07     586.00
111.17     582.98
111.27     578.00
111.37     602.96
111.47     533.00
111.57     540.00
111.67     547.00
111.77     557.00
111.87     545.00
111.97     501.44
112.07     531.62
112.17     505.84
112.27     585.91
112.37     554.00
112.47     556.00
112.57     545.16
112.67     593.69
112.77     584.00
112.87     532.68
112.97     604.00
113.07     591.00
113.17     608.36
113.27     618.08
113.37     594.30
113.47     593.00
113.57     608.00
113.67     658.00
113.77     612.58
113.87     609.00
113.97     679.00
114.07     709.00
114.17     750.98
114.27     746.00
114.37     834.00
114.47     791.00
114.57     859.00
114.67     961.85
114.77    1004.00
114.87    1065.00
114.97    1231.79
115.07    1360.00
115.17    1517.00
115.27    1666.00
115.37    1899.00
115.47    1981.82
115.57    2308.00
115.67    2541.36
115.77    3003.00
115.87    3154.00
115.97    3502.06
116.07    3830.36
116.17    4154.00
116.27    4605.00
116.37    4941.00
116.47    5272.25
116.57    5682.00
116.67    5890.39
116.77    6302.00
116.87    6640.16
116.97    6767.00
117.07    6759.00
117.17    6915.54
117.27    6792.78
117.37    7001.64
117.47    6747.00
117.57    6445.64
117.67    6326.00
117.77    6105.22
117.87    5727.00
117.97    5257.00
118.07    4992.00
118.17    4654.00
118.27    4346.00
118.37    3974.00
118.47    3615.00
118.57    3313.00
118.67    2953.39
118.77    2653.88
118.87    2376.55
118.97    2262.07
119.07    2047.00
119.17    1697.00
119.27    1554.00
119.37    1553.00
119.47    1330.00
119.57    1300.47
119.67    1077.19
119.77    1064.00
119.87     988.59
119.97     955.40
120.07     877.28
120.17     826.00
120.27     814.00
120.37     796.00
120.47     733.00
120.57     697.20
120.67     694.00
120.77     632.00
120.87     636.00
120.97     673.42
121.07     616.00
121.17     611.80
121.27     635.20
121.37     603.00
121.47     611.00
121.57     603.00
121.67     564.07
121.77     555.00
121.87     599.40
121.97     600.00
122.07     601.00
122.17     603.47
122.27     624.10
122.37     578.00
122.47     612.00
122.57     616.00
122.67     639.26
122.77     636.00
122.87     573.00
122.97     670.73
123.07     609.00
123.17     630.46
123.27     656.00
123.37     676.00
123.47     642.33
123.57     615.24
123.67     641.00
123.77     631.00
123.87     616.92
123.97     597.82
124.07     574.78
124.17     589.19
124.27     639.00
124.37     618.00
124.47     608.00
124.57     645.00
124.67     624.00
124.77     633.00
124.87     564.24
124.97     568.88
