  9.97     653.45
 10.07     700.00
 10.17     692.00
 10.27     641.00
 10.37     707.10
 10.47     651.00
 10.57     719.85
 10.67     716.20
 10.77     714.00
 10.87     661.00
 10.97     711.19
 11.07     696.00
 11.17     668.00
 11.27     667.00
 11.37     703.00
 11.47     712.00
 11.57     710.00
 11.67     774.00
 11.77     719.00
 11.87     643.44
 11.97     697.53
 12.07     843.00
 12.17     776.15
 12.27     748.49
 12.37     747.77
 12.47     721.00
 12.57     744.37
 12.67     733.87
 12.77     640.00
 12.87     703.88
 12.97     627.00
 13.07     631.00
 13.17     627.00
 13.27     647.00
 13.37     652.00
 13.47     623.00
 13.57     683.00
 13.67     633.32
 13.77     674.45
 13.87     697.58
 13.97     658.00
 14.07     646.00
 14.17     598.41
 14.27     601.00
 14.37     612.00
 14.47     680.01
 14.57     635.00
 14.67     608.00
 14.77     668.37
 14.87     627.00
 14.97     599.00
 15.07     651.06
 15.17     678.00
 15.27     624.00
 15.37     645.00
 15.47     616.00
 15.57     632.00
 15.67     661.66
 15.77     625.00
 15.87     591.00
 15.97     604.00
 16.07     658.00
 16.17     582.32
 16.27     676.57
 16.37     628.00
 16.47     657.43
 16.57     589.83
 16.67     624.00
 16.77     655.00
 16.87     661.92
 16.97     574.00
 17.07     609.00
 17.17     675.38
 17.27     631.28
 17.37     635.00
 17.47     608.00
 17.57     615.00
 17.67     616.00
 17.77     588.00
 17.87     596.00
 17.97     606.00
 18.07     610.42
 18.17     610.04
 18.27     636.51
 18.37     656.35
 18.47     596.00
 18.57     604.00
 18.67     659.88
 18.77     632.00
 18.87     638.22
 18.97     562.00
 19.07     628.05
 19.17     627.31
 19.27     615.00
 19.37     572.00
 19.47     629.00
 19.57     641.00
 19.67     609.00
 19.77     618.00
 19.87     601.03
 19.97     591.00
 20.07     600.00
 20.17     636.00
 20.27     556.00
 20.37     626.15
 20.47     568.68
 20.57     657.80
 20.67     618.27
 20.77     600.00
 20.87     607.00
 20.97     600.47
 21.07     631.84
 21.17     616.00
 21.27     545.00
 21.37     586.00
 21.47     592.52
 21.57     578.00
 21.67     594.00
 21.77     634.14
 21.87     635.54
 21.97     572.00
 22.07     628.73
 22.17     654.85
 22.27     581.00
 22.37     592.00
 22.47     640.27
 22.57     597.65
 22.67     542.00
 22.77     608.00
 22.87     564.01
 22.97     540.00
 23.07     608.00
 23.17     581.00
 23.27     641.73
 23.37     570.54
 23.47     626.74
 23.57     602.91
 23.67     594.00
 23.77     619.33
 23.87     628.48
 23.97     574.00
 24.07     626.87
 24.17     636.00
 24.27     593.00
 24.37     654.79
 24.47     708.00
 24.57     668.00
 24.67     668.00
 24.77     705.00
 24.87     637.37
 24.97     715.40
 25.07     697.00
 25.17     714.00
 25.27     641.00
 25.37     581.50
 25.47     638.00
 25.57     654.45
 25.67     624.00
 25.77     636.00
 25.87     570.86
 25.97     609.92
 26.07     651.40
 26.17     607.00
 26.27     659.00
 26.37     643.00
 26.47     574.07
 26.57     643.00
 26.67     662.00
 26.77     741.00
 26.87     670.00
 26.97     679.00
 27.07     673.15
 27.17     637.51
 27.27     629.00
 27.37     619.33
 27.47     720.00
 27.57     721.00
 27.67     797.00
 27.77     831.00
 27.87     972.00
 27.97    1147.00
 28.07    1730.56
 28.17    2605.00
 28.27    3952.05
 28.37    4687.00
 28.47    4562.86
 28.57    3944.31
 28.67    2878.00
 28.77    2216.00
 28.87    2182.00
 28.97    2550.00
 29.07    2802.24
 29.17    2766.00
 29.27    2402.00
 29.37    1842.00
 29.47    1305.00
 29.57    1063.00
 29.67     877.65
 29.77     805.24
 29.87     776.00
 29.97     749.00
 30.07     697.00
 30.17     595.74
 30.27     607.42
 30.37     676.01
 30.47     678.00
 30.57     646.00
 30.67     677.58
 30.77     605.56
 30.87     634.80
 30.97     654.15
 31.07     746.00
 31.17     705.25
 31.27     706.00
 31.37     700.00
 31.47     668.59
 31.57     600.60
 31.67     668.00
 31.77     631.00
 31.87     633.00
 31.97     614.00
 32.07     582.00
 32.17     573.64
 32.27     621.35
 32.37     587.07
 32.47     573.00
 32.57     584.00
 32.67     614.00
 32.77     583.00
 32.87     578.00
 32.97     607.80
 33.07     588.00
 33.17     597.00
 33.27     613.48
 33.37     636.94
 33.47     536.00
 33.57     653.00
 33.67     622.53
 33.77     649.00
 33.87     798.00
 33.97     838.00
 34.07    1003.00
 34.17    1120.00
 34.27    1193.36
 34.37    1149.00
 34.47     976.00
 34.57     792.00
 34.67     704.00
 34.77     693.00
 34.87     649.00
 34.97     652.90
 35.07     670.00
 35.17     638.51
 35.27     580.00
 35.37     568.00
 35.47     594.00
 35.57     542.00
 35.67     589.36
 35.77     538.88
 35.87     539.43
 35.97     585.00
 36.07     596.00
 36.17     527.75
 36.27     571.00
 36.37     573.00
 36.47     538.96
 36.57     552.00
 36.67     584.00
 36.77     546.00
 36.87     613.00
 36.97     524.00
 37.07     560.84
 37.17     551.00
 37.27     578.00
 37.37     589.00
 37.47     608.00
 37.57     568.00
 37.67     577.00
 37.77     562.56
 37.87     641.73
 37.97     581.71
 38.07     613.00
 38.17     618.40
 38.27     651.00
 38.37     587.00
 38.47     609.00
 38.57     624.00
 38.67     562.00
 38.77     547.23
 38.87     592.00
 38.97     566.00
 39.07     566.79
 39.17     502.00
 39.27     546.54
 39.37     597.81
 39.47     530.00
 39.57     574.00
 39.67     543.00
 39.77     575.00
 39.87     570.00
 39.97     541.34
 40.07     519.36
 40.17     557.80
 40.27     555.00
 40.37     561.00
 40.47     545.00
 40.57     522.00
 40.67     532.00
 40.77     569.00
 40.87     509.00
 40.97     567.00
 41.07     583.00
 41.17     559.04
 41.27     513.11
 41.37     547.63
 41.47     571.00
 41.57     550.00
 41.67     551.00
 41.77     587.73
 41.87     560.00
 41.97     577.71
 42.07     561.39
 42.17     528.12
 42.27     587.63
 42.37     506.00
 42.47     625.99
 42.57     598.00
 42.67     535.00
 42.77     651.85
 42.87     617.00
 42.97     676.00
 43.07     607.00
 43.17     667.73
 43.27     667.67
 43.37     535.00
 43.47     577.64
 43.57     555.71
 43.67     597.00
 43.77     541.30
 43.87     535.00
 43.97     565.00
 44.07     553.00
 44.17     584.00
 44.27     566.00
 44.37     555.00
 44.47     598.00
 44.57     607.00
 44.67     563.00
 44.77     560.00
 44.87     577.82
 44.97     512.20
 45.07     535.64
 45.17     560.00
 45.27     560.00
 45.37     613.00
 45.47     535.15
 45.57     549.00
 45.67     550.00
 45.77     559.27
 45.87     585.00
 45.97     551.00
 46.07     605.28
 46.17     550.00
 46.27     539.00
 46.37     580.68
 46.47     565.00
 46.57     514.00
 46.67     533.82
 46.77     556.85
 46.87     533.00
 46.97     529.00
 47.07     548.00
 47.17     561.88
 47.27     599.21
 47.37     519.32
 47.47     555.00
 47.57     552.00
 47.67     557.03
 47.77     578.00
 47.87     661.02
 47.97     608.00
 48.07     683.59
 48.17     679.00
 48.27     630.00
 48.37     635.00
 48.47     613.12
 48.57     662.00
 48.67     600.00
 48.77     635.65
 48.87     574.00
 48.97     588.00
 49.07     604.00
 49.17     554.46
 49.27     633.09
 49.37     630.00
 49.47     626.00
 49.57     607.00
 49.67     652.00
 49.77     775.00
 49.87     853.00
 49.97    1101.00
 50.07    1346.00
 50.17    1733.00
 50.27    2246.04
 50.37    2575.00
 50.47    2796.00
 50.57    2661.00
 50.67    2404.00
 50.77    2037.00
 50.87    1600.00
 50.97    1204.00
 51.07    1020.00
 51.17     832.38
 51.27     822.48
 51.37     766.00
 51.47     661.46
 51.57     699.00
 51.67     656.00
 51.77     658.00
 51.87     681.00
 51.97     600.49
 52.07     587.85
 52.17     643.00
 52.27     619.00
 52.37     610.00
 52.47     585.00
 52.57     678.00
 52.67     631.00
 52.77     618.00
 52.87     638.00
 52.97     651.00
 53.07     664.00
 53.17     711.41
 53.27     772.66
 53.37     877.00
 53.47     884.49
 53.57    1037.48
 53.67    1216.00
 53.77    1301.00
 53.87    1308.45
 53.97    1247.35
 54.07    1175.54
 54.17    1040.00
 54.27     968.00
 54.37     769.00
 54.47     769.00
 54.57     716.00
 54.67     674.00
 54.77     644.00
 54.87     660.37
 54.97     590.08
 55.07     666.00
 55.17     625.00
 55.27     716.00
 55.37     665.00
 55.47     601.89
 55.57     629.00
 55.67     576.00
 55.77     586.95
 55.87     599.00
 55.97     678.99
 56.07     666.00
 56.17     706.00
 56.27     767.55
 56.37     779.00
 56.47     880.92
 56.57    1089.45
 56.67    1177.00
 56.77    1444.00
 56.87    1745.00
 56.97    2167.23
 57.07    2489.00
 57.17    2589.00
 57.27    2695.00
 57.37    2424.00
 57.47    2276.00
 57.57    1952.00
 57.67    1508.93
 57.77    1379.98
 57.87    1089.00
 57.97     872.00
 58.07     802.00
 58.17     833.41
 58.27     732.00
 58.37     743.95
 58.47     826.00
 58.57     793.00
 58.67     860.00
 58.77     899.00
 58.87    1057.42
 58.97    1067.02
 59.07    1187.00
 59.17    1203.00
 59.27    1290.54
 59.37    1324.59
 59.47    1297.00
 59.57    1268.00
 59.67    1156.93
 59.77    1189.00
 59.87    1100.09
 59.97    1196.00
 60.07    1198.00
 60.17    1272.00
 60.27    1292.00
 60.37    1457.00
 60.47    1567.51
 60.57    1599.00
 60.67    1593.06
 60.77    1496.15
 60.87    1409.00
 60.97    1219.00
 61.07    1108.00
 61.17     943.00
 61.27     851.00
 61.37     882.00
 61.47     762.00
 61.57     787.00
 61.67     776.08
 61.77     776.00
 61.87     828.53
 61.97     943.00
 62.07    1034.85
 62.17    1200.00
 62.27    1342.00
 62.37    1419.00
 62.47    1623.00
 62.57    1491.00
 62.67    1494.00
 62.77    1419.00
 62.87    1231.94
 62.97    1135.00
 63.07    1011.00
 63.17     932.00
 63.27     867.65
 63.37     804.00
 63.47     700.95
 63.57     690.00
 63.67     644.90
 63.77     654.00
 63.87     704.00
 63.97     718.00
 64.07     699.00
 64.17     704.00
 64.27     765.00
 64.37     816.27
 64.47     842.00
 64.57     942.89
 64.67    1046.00
 64.77    1138.00
 64.87    1212.00
 64.97    1253.00
 65.07    1327.00
 65.17    1277.00
 65.27    1322.00
 65.37    1147.97
 65.47    1166.00
 65.57    1002.00
 65.67     895.00
 65.77     858.80
 65.87     817.31
 65.97     726.00
 66.07     679.31
 66.17     764.25
 66.27     665.00
 66.37     725.66
 66.47     715.51
 66.57     621.00
 66.67     623.00
 66.77     613.16
 66.87     648.00
 66.97     652.00
 67.07     670.00
 67.17     660.00
 67.27     656.00
 67.37     693.00
 67.47     741.00
 67.57     846.00
 67.67     922.92
 67.77    1058.00
 67.87    1220.81
 67.97    1385.00
 68.07    1647.38
 68.17    1912.00
 68.27    2217.73
 68.37    2369.00
 68.47    2442.00
 68.57    2416.00
 68.67    2459.00
 68.77    2123.62
 68.87    1997.52
 68.97    1676.00
 69.07    1496.00
 69.17    1243.00
 69.27    1156.24
 69.37    1016.10
 69.47     880.61
 69.57     792.69
 69.67     734.62
 69.77     727.91
 69.87     656.34
 69.97     696.67
 70.07     700.48
 70.17     620.92
 70.27     648.00
 70.37     619.00
 70.47     653.00
 70.57     623.56
 70.67     609.00
 70.77     611.59
 70.87     668.43
 70.97     665.00
 71.07     617.00
 71.17     702.00
 71.27     701.00
 71.37     773.00
 71.47     761.00
 71.57     765.53
 71.67     950.00
 71.77    1033.00
 71.87    1148.91
 71.97    1307.00
 72.07    1451.36
 72.17    1604.00
 72.27    1706.86
 72.37    1930.00
 72.47    1901.53
 72.57    1972.33
 72.67    1904.00
 72.77    1679.89
 72.87    1601.00
 72.97    1473.00
 73.07    1171.00
 73.17    1061.00
 73.27     950.63
 73.37     879.76
 73.47     817.52
 73.57     781.70
 73.67     693.00
 73.77     728.10
 73.87     668.00
 73.97     671.08
 74.07     637.00
 74.17     631.86
 74.27     643.00
 74.37     608.00
 74.47     657.62
 74.57     680.00
 74.67     670.00
 74.77     628.00
 74.87     630.00
 74.97     618.67
 75.07     707.00
 75.17     627.70
 75.27     606.78
 75.37     676.00
 75.47     685.00
 75.57     661.00
 75.67     634.92
 75.77     647.00
 75.87     598.44
 75.97     604.00
 76.07     618.38
 76.17     645.00
 76.27     616.00
 76.37     665.00
 76.47     729.51
 76.57     753.00
 76.67     756.30
 76.77     823.00
 76.87     850.00
 76.97     856.00
 77.07     914.00
 77.17     889.72
 77.27     820.60
 77.37     786.61
 77.47     760.00
 77.57     732.00
 77.67     707.00
 77.77     682.30
 77.87     644.00
 77.97     586.00
 78.07     597.48
 78.17     578.06
 78.27     651.70
 78.37     557.00
 78.47     613.13
 78.57     588.00
 78.67     543.36
 78.77     538.66
 78.87     584.00
 78.97     541.00
 79.07     599.00
 79.17     564.39
 79.27     545.27
 79.37     556.00
 79.47     558.00
 79.57     573.04
 79.67     590.96
 79.77     569.00
 79.87     552.00
 79.97     561.00
 80.07     593.31
 80.17     578.00
 80.27     613.00
 80.37     625.00
 80.47     608.00
 80.57     670.00
 80.67     715.87
 80.77     747.00
 80.87     786.00
 80.97     839.00
 81.07     879.24
 81.17     931.88
 81.27     943.28
 81.37    1053.00
 81.47    1049.00
 81.57    1055.00
 81.67    1125.00
 81.77    1141.00
 81.87    1100.00
 81.97    1014.96
 82.07    1020.00
 82.17     942.26
 82.27     923.55
 82.37     907.94
 82.47     851.00
 82.57     804.00
 82.67     753.00
 82.77     712.00
 82.87     730.00
 82.97     683.00
 83.07     643.00
 83.17     641.95
 83.27     597.00
 83.37     555.00
 83.47     648.00
 83.57     645.80
 83.67     587.00
 83.77     569.00
 83.87     583.00
 83.97     572.04
 84.07     638.00
 84.17     649.00
 84.27     630.44
 84.37     622.00
 84.47     604.00
 84.57     641.00
 84.67     588.00
 84.77     626.15
 84.87     606.49
 84.97     577.00
 85.07     588.00
 85.17     554.99
 85.27     578.00
 85.37     550.54
 85.47     573.00
 85.57     600.24
 85.67     598.04
 85.77     564.31
 85.87     566.00
 85.97     565.00
 86.07     543.92
 86.17     624.39
 86.27     521.00
 86.37     624.38
 86.47     608.00
 86.57     611.00
 86.67     614.63
 86.77     586.00
 86.87     628.89
 86.97     603.00
 87.07     613.00
 87.17     644.00
 87.27     653.00
 87.37     673.29
 87.47     594.41
 87.57     694.60
 87.67     660.13
 87.77     673.24
 87.87     676.00
 87.97     689.00
 88.07     763.00
 88.17     724.00
 88.27     670.07
 88.37     713.00
 88.47     650.00
 88.57     683.58
 88.67     653.00
 88.77     686.00
 88.87     631.00
 88.97     625.00
 89.07     620.21
 89.17     636.00
 89.27     562.44
 89.37     636.00
 89.47     642.00
 89.57     601.00
 89.67     607.77
 89.77     580.00
 89.87     645.67
 89.97     595.00
 90.07     680.80
 90.17     622.00
 90.27     683.00
 90.37     653.83
 90.47     622.00
 90.57     604.00
 90.67     565.50
 90.77     618.00
 90.87     555.00
 90.97     594.56
 91.07     548.00
 91.17     545.42
 91.27     560.00
 91.37     528.00
 91.47     532.79
 91.57     587.63
 91.67     550.00
 91.77     576.00
 91.87     579.00
 91.97     545.00
 92.07     548.53
 92.17     580.00
 92.27     552.00
 92.37     573.00
 92.47     589.00
 92.57     544.00
 92.67     587.00
 92.77     581.58
 92.87     606.11
 92.97     597.00
 93.07     685.00
 93.17     665.67
 93.27     685.00
 93.37     685.00
 93.47     674.86
 93.57     679.00
 93.67     739.00
 93.77     774.00
 93.87     777.00
 93.97     786.02
 94.07     836.00
 94.17     791.00
 94.27     897.63
 94.37     813.00
 94.47     920.87
 94.57     877.62
 94.67     917.00
 94.77     872.78
 94.87     936.93
 94.97     915.00
 95.07     905.50
 95.17     983.00
 95.27     983.00
 95.37     913.88
 95.47    1016.00
 95.57     944.00
 95.67     996.00
 95.77     975.00
 95.87     928.03
 95.97     929.00
 96.07     875.03
 96.17     811.87
 96.27     820.00
 96.37     822.00
 96.47     748.22
 96.57     764.00
 96.67     789.83
 96.77     737.00
 96.87     862.00
 96.97     817.00
 97.07     909.00
 97.17     886.52
 97.27     937.95
 97.37    1064.94
 97.47    1039.00
 97.57    1210.00
 97.67    1209.00
 97.77    1389.34
 97.87    1417.00
 97.97    1419.00
 98.07    1503.00
 98.17    1481.00
 98.27    1579.00
 98.37    1500.47
 98.47    1522.70
 98.57    1514.00
 98.67    1392.00
 98.77    1327.49
 98.87    1358.45
 98.97    1260.87
 99.07    1102.06
 99.17    1105.58
 99.27    1112.09
 99.37    1064.75
 99.47     947.00
 99.57     999.00
 99.67     943.00
 99.77    1003.06
 99.87    1020.00
 99.97     999.00
100.07    1109.72
100.17    1099.00
100.27    1147.00
100.37    1277.00
100.47    1411.00
100.57    1482.00
100.67    1595.76
100.77    1668.00
100.87    1649.56
100.97    1801.00
101.07    1922.00
101.17    1984.63
101.27    1981.00
101.37    1949.68
101.47    2074.63
101.57    2051.00
101.67    1965.19
101.77    2103.00
101.87    1930.00
101.97    1940.00
102.07    1836.00
102.17    1699.00
102.27    1643.00
102.37    1675.08
102.47    1570.42
102.57    1517.00
102.67    1355.00
102.77    1409.00
102.87    1255.00
102.97    1375.93
103.07    1207.58
103.17    1110.00
103.27    1276.55
103.37    1157.10
103.47    1111.00
103.57    1110.21
103.67    1114.04
103.77    1051.57
103.87    1006.00
103.97     912.00
104.07     949.00
104.17     913.00
104.27     816.24
104.37     799.00
104.47     756.00
104.57     693.00
104.67     678.25
104.77     713.00
104.87     693.00
104.97     679.00
105.07     635.82
105.17     557.85
105.27     571.22
105.37     639.12
105.47     579.00
105.57     616.00
105.67     627.00
105.77     609.00
105.87     612.00
105.97     558.00
106.07     621.63
106.17     542.94
106.27     593.00
106.37     550.19
106.47     599.00
106.57     581.93
106.67     625.00
106.77     635.72
106.87     566.00
106.97     630.00
107.07     621.00
107.17     668.00
107.27     662.00
107.37     680.00
107.47     645.26
107.57     701.12
107.67     753.00
107.77     668.34
107.87     688.75
107.97     709.00
108.07     771.00
108.17     746.05
108.27     777.01
108.37     712.38
108.47     706.65
108.57     713.00
108.67     705.00
108.77     733.00
108.87     756.00
108.97     739.66
109.07     680.12
109.17     784.53
109.27     711.00
109.37     754.00
109.47     767.56
109.57     727.41
109.67     751.41
109.77     795.57
109.87     749.00
109.97     686.00
110.07     724.00
110.17     695.00
110.27     718.00
110.37     666.00
110.47     691.00
110.57     669.00
110.67     706.00
110.77     661.00
110.87     695.09
110.97     595.79
111.07     612.90
111.17     633.00
111.27     656.00
111.37     650.72
111.47     584.40
111.57     616.34
111.67     565.00
111.77     581.00
111.87     596.00
111.97     559.35
112.07     617.00
112.17     597.00
112.27     554.59
112.37     562.00
112.47     607.00
112.57     554.00
112.67     578.00
112.77     567.00
112.87     575.00
112.97     612.42
113.07     606.00
113.17     565.00
113.27     614.00
113.37     571.00
113.47     574.00
113.57     586.00
113.67     644.00
113.77     653.07
113.87     621.70
113.97     613.00
114.07     608.00
114.17     692.33
114.27     638.00
114.37     728.22
114.47     680.00
114.57     733.00
114.67     740.00
114.77     776.00
114.87     778.00
114.97     898.00
115.07     972.49
115.17    1041.00
115.27    1150.00
115.37    1149.00
115.47    1401.52
115.57    1520.00
115.67    1856.00
115.77    2046.00
115.87    2172.00
115.97    2462.00
116.07    2645.20
116.17    2985.59
116.27    3385.00
116.37    3741.00
116.47    4042.00
116.57    4441.00
116.67    4780.00
116.77    5165.00
116.87    5584.90
116.97    5883.00
117.07    6244.00
117.17    6490.92
117.27    7052.00
117.37    7077.00
117.47    7291.00
117.57    7216.80
117.67    7270.00
117.77    7216.23
117.87    7000.00
117.97    6871.00
118.07    6601.66
118.17    6418.04
118.27    5948.57
118.37    5438.00
118.47    5331.16
118.57    4869.00
118.67    4513.00
118.77    4231.00
118.87    3915.00
118.97    3466.00
119.07    3175.00
119.17    2831.00
119.27    2631.00
119.37    2433.00
119.47    2176.06
119.57    1924.00
119.67    1699.00
119.77    1577.27
119.87    1428.00
119.97    1320.60
120.07    1250.33
120.17    1088.66
120.27    1042.00
120.37     998.00
120.47     949.00
120.57     916.00
120.67     799.00
120.77     814.00
120.87     785.00
120.97     765.71
121.07     745.84
121.17     694.00
121.27     715.56
121.37     712.00
121.47     736.77
121.57     724.60
121.67     672.00
121.77     630.97
121.87     639.62
121.97     609.00
122.07     638.00
122.17     620.00
122.27     618.23
122.37     587.00
122.47     632.00
122.57     680.80
122.67     700.61
122.77     723.19
122.87     642.00
122.97     675.80
123.07     709.00
123.17     663.00
123.27     684.94
123.37     695.00
123.47     699.00
123.57     721.00
123.67     715.79
123.77     698.07
123.87     678.00
123.97     708.70
124.07     732.00
124.17     727.00
124.27     735.00
124.37     669.47
124.47     665.20
124.57     696.00
124.67     705.70
124.77     645.32
124.87     743.00
124.97     706.36
