  9.97     532.24
 10.07     583.00
 10.17     573.00
 10.27     606.00
 10.37     651.00
 10.47     623.00
 10.57     574.00
 10.67     579.00
 10.77     564.00
 10.87     547.00
 10.97     604.00
 11.07     515.00
 11.17     631.00
 11.27     601.24
 11.37     639.00
 11.47     561.51
 11.57     637.00
 11.67     616.72
 11.77     618.00
 11.87     640.00
 11.97     649.00
 12.07     694.00
 12.17     653.00
 12.27     713.00
 12.37     676.00
 12.47     666.23
 12.57     609.74
 12.67     551.67
 12.77     616.00
 12.87     534.00
 12.97     600.25
 13.07     513.00
 13.17     558.00
 13.27     568.03
 13.37     593.00
 13.47     615.11
 13.57     565.00
 13.67     577.26
 13.77     572.73
 13.87     548.00
 13.97     567.00
 14.07     554.00
 14.17     569.06
 14.27     584.00
 14.37     503.00
 14.47     598.00
 14.57     600.00
 14.67     522.70
 14.77     588.00
 14.87     562.00
 14.97     598.18
 15.07     563.00
 15.17     608.95
 15.27     583.40
 15.37     560.00
 15.47     613.00
 15.57     561.75
 15.67     633.00
 15.77     564.00
 15.87     566.97
 15.97     517.00
 16.07     528.02
 16.17     564.00
 16.27     555.00
 16.37     610.11
 16.47     563.00
 16.57     543.00
 16.67     584.00
 16.77     595.00
 16.87     566.00
 16.97     540.00
 17.07     543.36
 17.17     569.00
 17.27     565.00
 17.37     537.00
 17.47     545.00
 17.57     582.00
 17.67     580.50
 17.77     533.00
 17.87     560.56
 17.97     572.76
 18.07     518.20
 18.17     538.00
 18.27     540.00
 18.37     525.34
 18.47     555.00
 18.57     598.22
 18.67     525.00
 18.77     596.00
 18.87     560.00
 18.97     593.00
 19.07     553.00
 19.17     541.00
 19.27     567.59
 19.37     576.00
 19.47     554.00
 19.57     521.00
 19.67     579.00
 19.77     595.55
 19.87     555.00
 19.97     548.68
 20.07     525.36
 20.17     509.89
 20.27     564.00
 20.37     514.00
 20.47     521.00
 20.57     516.36
 20.67     550.00
 20.77     564.00
 20.87     540.00
 20.97     554.00
 21.07     543.00
 21.17     531.51
 21.27     562.00
 21.37     536.00
 21.47     527.00
 21.57     530.00
 21.67     549.00
 21.77     534.00
 21.87     523.39
 21.97     536.00
 22.07     546.00
 22.17     561.83
 22.27     544.00
 22.37     531.10
 22.47     521.00
 22.57     521.61
 22.67     556.00
 22.77     564.00
 22.87     556.00
 22.97     598.00
 23.07     538.00
 23.17     507.41
 23.27     551.01
 23.37     578.59
 23.47     577.06
 23.57     546.74
 23.67     579.00
 23.77     537.00
 23.87     532.90
 23.97     578.00
 24.07     579.51
 24.17     535.00
 24.27     570.00
 24.37     579.00
 24.47     524.74
 24.57     594.78
 24.67     572.75
 24.77     639.00
 24.87     618.00
 24.97     619.00
 25.07     595.00
 25.17     578.12
 25.27     587.23
 25.37     566.70
 25.47     549.00
 25.57     503.00
 25.67     570.48
 25.77     500.00
 25.87     561.00
 25.97     531.86
 26.07     549.02
 26.17     540.00
 26.27     555.00
 26.37     525.70
 26.47     513.87
 26.57     551.00
 26.67     565.00
 26.77     506.00
 26.87     564.00
 26.97     520.00
 27.07     533.00
 27.17     543.78
 27.27     552.00
 27.37     569.23
 27.47     528.00
 27.57     549.00
 27.67     556.00
 27.77     624.00
 27.87     612.91
 27.97     651.85
 28.07     753.00
 28.17     856.77
 28.27     974.00
 28.37     941.00
 28.47     795.00
 28.57     710.00
 28.67     710.97
 28.77     782.00
 28.87     767.00
 28.97     889.93
 29.07     762.13
 29.17     698.00
 29.27     641.00
 29.37     643.43
 29.47     618.00
 29.57     530.07
 29.67     555.65
 29.77     597.00
 29.87     573.81
 29.97     525.00
 30.07     550.00
 30.17     579.00
 30.27     564.00
 30.37     527.00
 30.47     553.00
 30.57     598.00
 30.67     559.78
 30.77     553.00
 30.87     632.23
 30.97     634.00
 31.07     584.00
 31.17     563.00
 31.27     564.30
 31.37     558.00
 31.47     512.00
 31.57     556.61
 31.67     560.00
 31.77     495.73
 31.87     528.00
 31.97     547.13
 32.07     535.00
 32.17     549.00
 32.27     483.05
 32.37     481.91
 32.47     555.00
 32.57     503.41
 32.67     548.00
 32.77     534.00
 32.87     485.80
 32.97     536.34
 33.07     533.52
 33.17     514.00
 33.27     546.12
 33.37     498.12
 33.47     559.00
 33.57     623.67
 33.67     604.49
 33.77     748.00
 33.87     795.00
 33.97    1034.12
 34.07    1087.00
 34.17    1008.00
 34.27     912.00
 34.37     783.78
 34.47     642.00
 34.57     595.00
 34.67     596.00
 34.77     550.00
 34.87     542.00
 34.97     573.00
 35.07     525.14
 35.17     499.00
 35.27     491.00
 35.37     479.31
 35.47     537.12
 35.57     478.87
 35.67     489.00
 35.77     524.00
 35.87     490.00
 35.97     543.65
 36.07     480.00
 36.17     481.00
 36.27     495.00
 36.37     533.00
 36.47     507.00
 36.57     512.52
 36.67     501.00
 36.77     534.00
 36.87     498.00
 36.97     519.42
 37.07     505.00
 37.17     477.13
 37.27     530.00
 37.37     542.00
 37.47     505.46
 37.57     550.66
 37.67     545.00
 37.77     496.00
 37.87     498.00
 37.97     514.00
 38.07     523.00
 38.17     507.00
 38.27     515.00
 38.37     471.00
 38.47     471.24
 38.57     538.00
 38.67     476.00
 38.77     496.57
 38.87     535.72
 38.97     483.00
 39.07     476.00
 39.17     507.00
 39.27     535.00
 39.37     505.00
 39.47     494.05
 39.57     517.00
 39.67     527.00
 39.77     525.44
 39.87     501.00
 39.97     518.00
 40.07     478.00
 40.17     509.00
 40.27     483.00
 40.37     555.00
 40.47     527.00
 40.57     497.00
 40.67     517.87
 40.77     480.29
 40.87     506.00
 40.97     483.61
 41.07     452.00
 41.17     496.67
 41.27     477.34
 41.37     484.00
 41.47     471.35
 41.57     524.00
 41.67     528.00
 41.77     489.70
 41.87     473.00
 41.97     475.00
 42.07     502.00
 42.17     503.40
 42.27     535.00
 42.37     549.00
 42.47     543.57
 42.57     649.00
 42.67     634.72
 42.77     636.18
 42.87     613.00
 42.97     556.00
 43.07     589.00
 43.17     515.04
 43.27     494.15
 43.37     536.57
 43.47     530.09
 43.57     551.94
 43.67     481.00
 43.77     518.84
 43.87     518.46
 43.97     485.00
 44.07     525.00
 44.17     533.00
 44.27     548.00
 44.37     501.62
 44.47     486.00
 44.57     472.00
 44.67     517.67
 44.77     536.45
 44.87     478.43
 44.97     518.00
 45.07     507.00
 45.17     491.00
 45.27     496.00
 45.37     486.00
 45.47     537.00
 45.57     495.24
 45.67     472.00
 45.77     448.00
 45.87     508.00
 45.97     485.73
 46.07     516.00
 46.17     490.00
 46.27     488.00
 46.37     530.00
 46.47     537.86
 46.57     502.00
 46.67     520.00
 46.77     472.24
 46.87     503.00
 46.97     478.00
 47.07     500.00
 47.17     520.00
 47.27     545.47
 47.37     551.00
 47.47     553.00
 47.57     532.11
 47.67     588.00
 47.77     615.19
 47.87     635.00
 47.97     556.79
 48.07     547.00
 48.17     550.14
 48.27     584.09
 48.37     512.00
 48.47     527.86
 48.57     557.62
 48.67     499.07
 48.77     539.00
 48.87     545.00
 48.97     515.00
 49.07     538.00
 49.17     569.00
 49.27     577.45
 49.37     660.00
 49.47     669.85
 49.57     804.00
 49.67     900.00
 49.77    1113.39
 49.87    1514.00
 49.97    1792.39
 50.07    2280.00
 50.17    2487.91
 50.27    2492.94
 50.37    2195.00
 50.47    1961.48
 50.57    1363.00
 50.67    1010.00
 50.77     860.00
 50.87     663.00
 50.97     657.79
 51.07     587.35
 51.17     625.00
 51.27     616.00
 51.37     643.00
 51.47     586.81
 51.57     545.20
 51.67     528.69
 51.77     572.47
 51.87     544.00
 51.97     565.00
 52.07     570.35
 52.17     582.00
 52.27     530.02
 52.37     512.82
 52.47     577.00
 52.57     551.00
 52.67     524.88
 52.77     589.00
 52.87     674.00
 52.97     688.00
 53.07     792.52
 53.17     904.00
 53.27    1044.81
 53.37    1114.49
 53.47    1146.00
 53.57    1247.14
 53.67    1075.00
 53.77     947.00
 53.87     857.00
 53.97     741.00
 54.07     710.00
 54.17     624.52
 54.27     605.00
 54.37     570.00
 54.47     562.00
 54.57     567.00
 54.67     580.00
 54.77     562.00
 54.87     577.00
 54.97     550.00
 55.07     502.71
 55.17     552.00
 55.27     559.00
 55.37     588.82
 55.47     518.21
 55.57     587.00
 55.67     569.00
 55.77     596.66
 55.87     595.00
 55.97     613.00
 56.07     693.89
 56.17     721.00
 56.27     965.00
 56.37    1087.00
 56.47    1407.00
 56.57    1725.00
 56.67    2196.37
 56.77    2492.00
 56.87    2570.00
 56.97    2680.44
 57.07    2320.66
 57.17    2047.00
 57.27    1698.00
 57.37    1268.61
 57.47    1040.00
 57.57     906.82
 57.67     769.00
 57.77     758.00
 57.87     685.00
 57.97     674.96
 58.07     682.07
 58.17     737.00
 58.27     757.00
 58.37     786.00
 58.47     953.00
 58.57    1066.00
 58.67    1213.67
 58.77    1285.88
 58.87    1417.50
 58.97    1481.00
 59.07    1512.73
 59.17    1526.00
 59.27    1471.00
 59.37    1272.03
 59.47    1207.37
 59.57    1169.00
 59.67    1122.00
 59.77    1157.00
 59.87    1158.00
 59.97    1312.00
 60.07    1446.22
 60.17    1485.33
 60.27    1610.00
 60.37    1485.88
 60.47    1453.00
 60.57    1266.12
 60.67    1085.66
 60.77     939.00
 60.87     810.00
 60.97     717.61
 61.07     709.97
 61.17     642.00
 61.27     596.68
 61.37     672.60
 61.47     702.00
 61.57     782.00
 61.67     889.49
 61.77     976.00
 61.87    1168.92
 61.97    1265.00
 62.07    1332.00
 62.17    1405.00
 62.27    1372.69
 62.37    1349.00
 62.47    1179.30
 62.57    1004.82
 62.67     931.40
 62.77     746.16
 62.87     708.00
 62.97     643.00
 63.07     599.00
 63.17     626.00
 63.27     610.00
 63.37     583.00
 63.47     565.97
 63.57     597.02
 63.67     549.62
 63.77     553.67
 63.87     640.05
 63.97     668.00
 64.07     733.63
 64.17     801.00
 64.27     856.68
 64.37     926.00
 64.47    1035.00
 64.57    1040.00
 64.67    1003.00
 64.77     990.88
 64.87     992.43
 64.97     880.65
 65.07     839.72
 65.17     737.56
 65.27     790.00
 65.37     680.00
 65.47     664.72
 65.57     660.87
 65.67     625.23
 65.77     609.00
 65.87     586.00
 65.97     577.00
 66.07     580.09
 66.17     535.37
 66.27     523.91
 66.37     572.00
 66.47     600.35
 66.57     543.77
 66.67     544.00
 66.77     559.99
 66.87     606.00
 66.97     598.00
 67.07     668.00
 67.17     638.00
 67.27     729.08
 67.37     867.00
 67.47    1108.00
 67.57    1218.72
 67.67    1551.00
 67.77    1765.00
 67.87    2110.00
 67.97    2329.00
 68.07    2416.12
 68.17    2503.00
 68.27    2223.05
 68.37    2087.18
 68.47    1834.00
 68.57    1514.00
 68.67    1269.00
 68.77    1016.43
 68.87     873.50
 68.97     785.00
 69.07     694.00
 69.17     667.00
 69.27     578.72
 69.37     574.00
 69.47     556.90
 69.57     573.00
 69.67     603.00
 69.77     612.00
 69.87     556.32
 69.97     584.00
 70.07     559.00
 70.17     560.00
 70.27     554.00
 70.37     533.00
 70.47     619.54
 70.57     577.00
 70.67     576.00
 70.77     586.00
 70.87     637.17
 70.97     611.00
 71.07     672.01
 71.17     739.00
 71.27     834.00
 71.37     948.37
 71.47    1055.00
 71.57    1292.02
 71.67    1426.00
 71.77    1570.00
 71.87    1804.00
 71.97    1899.00
 72.07    1935.50
 72.17    1881.00
 72.27    1833.96
 72.37    1770.00
 72.47    1511.00
 72.57    1327.28
 72.67    1151.00
 72.77    1050.00
 72.87     868.00
 72.97     868.00
 73.07     834.00
 73.17     794.00
 73.27     703.00
 73.37     662.82
 73.47     671.00
 73.57     598.00
 73.67     591.00
 73.77     570.00
 73.87     618.13
 73.97     622.26
 74.07     566.17
 74.17     624.45
 74.27     592.00
 74.37     581.79
 74.47     543.44
 74.57     629.00
 74.67     641.00
 74.77     602.46
 74.87     646.00
 74.97     594.00
 75.07     522.90
 75.17     565.00
 75.27     599.32
 75.37     526.00
 75.47     591.37
 75.57     523.45
 75.67     549.00
 75.77     601.00
 75.87     598.52
 75.97     610.00
 76.07     638.00
 76.17     639.62
 76.27     651.49
 76.37     707.25
 76.47     700.00
 76.57     709.52
 76.67     701.00
 76.77     682.00
 76.87     645.00
 76.97     638.59
 77.07     604.39
 77.17     572.11
 77.27     557.60
 77.37     573.57
 77.47     549.00
 77.57     511.52
 77.67     553.65
 77.77     562.01
 77.87     488.00
 77.97     552.00
 78.07     564.69
 78.17     484.74
 78.27     512.00
 78.37     530.20
 78.47     557.00
 78.57     526.27
 78.67     558.00
 78.77     528.00
 78.87     515.46
 78.97     538.00
 79.07     568.11
 79.17     506.00
 79.27     523.24
 79.37     491.00
 79.47     517.00
 79.57     492.00
 79.67     497.00
 79.77     542.00
 79.87     543.00
 79.97     593.61
 80.07     555.01
 80.17     602.80
 80.27     601.00
 80.37     601.81
 80.47     544.00
 80.57     572.00
 80.67     594.00
 80.77     654.00
 80.87     699.13
 80.97     680.01
 81.07     692.00
 81.17     744.00
 81.27     781.00
 81.37     721.00
 81.47     724.00
 81.57     759.00
 81.67     722.00
 81.77     699.97
 81.87     700.00
 81.97     641.27
 82.07     724.00
 82.17     655.00
 82.27     642.46
 82.37     576.00
 82.47     642.00
 82.57     544.00
 82.67     593.00
 82.77     552.00
 82.87     571.00
 82.97     530.65
 83.07     528.00
 83.17     582.00
 83.27     545.00
 83.37     544.00
 83.47     544.00
 83.57     543.00
 83.67     542.67
 83.77     558.18
 83.87     550.07
 83.97     544.00
 84.07     602.90
 84.17     570.00
 84.27     537.00
 84.37     529.38
 84.47     537.00
 84.57     538.21
 84.67     554.97
 84.77     579.00
 84.87     534.00
 84.97     568.14
 85.07     536.76
 85.17     542.00
 85.27     561.63
 85.37     547.00
 85.47     545.00
 85.57     544.00
 85.67     544.00
 85.77     511.00
 85.87     486.89
 85.97     516.00
 86.07     513.00
 86.17     514.00
 86.27     514.00
 86.37     540.00
 86.47     512.24
 86.57     584.94
 86.67     591.30
 86.77     552.20
 86.87     594.00
 86.97     632.93
 87.07     650.00
 87.17     584.00
 87.27     593.39
 87.37     585.97
 87.47     636.00
 87.57     659.00
 87.67     625.00
 87.77     604.00
 87.87     652.91
 87.97     561.27
 88.07     610.00
 88.17     639.00
 88.27     641.00
 88.37     580.00
 88.47     546.18
 88.57     609.00
 88.67     603.35
 88.77     529.37
 88.87     537.56
 88.97     580.19
 89.07     613.00
 89.17     577.51
 89.27     620.00
 89.37     616.00
 89.47     604.00
 89.57     606.00
 89.67     624.66
 89.77     533.00
 89.87     564.00
 89.97     568.00
 90.07     565.00
 90.17     544.00
 90.27     500.00
 90.37     563.98
 90.47     508.26
 90.57     495.00
 90.67     522.00
 90.77     523.00
 90.87     518.00
 90.97     496.00
 91.07     506.00
 91.17     571.03
 91.27     487.00
 91.37     509.30
 91.47     558.00
 91.57     559.00
 91.67     516.00
 91.77     543.00
 91.87     561.00
 91.97     538.00
 92.07     545.13
 92.17     546.55
 92.27     575.00
 92.37     591.07
 92.47     590.00
 92.57     675.73
 92.67     693.00
 92.77     717.00
 92.87     681.00
 92.97     719.00
 93.07     715.93
 93.17     775.00
 93.27     828.00
 93.37     810.00
 93.47     751.84
 93.57     855.00
 93.67     841.00
 93.77     802.00
 93.87     871.46
 93.97     849.56
 94.07     784.03
 94.17     880.00
 94.27     918.00
 94.37     830.00
 94.47     941.00
 94.57     930.00
 94.67     940.33
 94.77     890.67
 94.87     929.00
 94.97     919.00
 95.07     921.00
 95.17     830.91
 95.27     905.00
 95.37     785.00
 95.47     769.94
 95.57     789.00
 95.67     717.00
 95.77     695.70
 95.87     718.00
 95.97     646.53
 96.07     666.00
 96.17     731.50
 96.27     679.96
 96.37     722.34
 96.47     782.00
 96.57     833.00
 96.67     905.00
 96.77    1008.00
 96.87    1121.82
 96.97    1113.31
 97.07    1246.17
 97.17    1316.00
 97.27    1321.67
 97.37    1448.53
 97.47    1371.08
 97.57    1431.29
 97.67    1444.00
 97.77    1389.00
 97.87    1283.00
 97.97    1310.14
 98.07    1212.00
 98.17    1147.00
 98.27    1020.08
 98.37     974.00
 98.47     983.00
 98.57     884.00
 98.67     807.92
 98.77     806.00
 98.87     826.00
 98.97     780.73
 99.07     799.00
 99.17     834.00
 99.27     912.00
 99.37     922.47
 99.47    1007.00
 99.57    1040.00
 99.67    1168.33
 99.77    1263.00
 99.87    1341.00
 99.97    1527.00
100.07    1656.00
100.17    1745.00
100.27    1826.00
100.37    1968.45
100.47    1972.00
100.57    2070.00
100.67    2141.13
100.77    2105.00
100.87    1984.93
100.97    1959.93
101.07    1917.45
101.17    1903.00
101.27    1827.00
101.37    1663.20
101.47    1637.39
101.57    1511.00
101.67    1412.00
101.77    1381.00
101.87    1347.52
101.97    1231.00
102.07    1103.00
102.17    1208.45
102.27    1121.00
102.37    1175.83
102.47    1135.96
102.57    1058.00
102.67    1047.00
102.77    1030.00
102.87    1043.38
102.97     948.00
103.07     918.03
103.17     907.00
103.27     904.00
103.37     836.00
103.47     814.00
103.57     699.15
103.67     679.91
103.77     712.28
103.87     630.11
103.97     664.00
104.07     560.00
104.17     603.00
104.27     593.37
104.37     584.00
104.47     527.04
104.57     555.00
104.67     556.00
104.77     543.00
104.87     554.00
104.97     486.00
105.07     537.00
105.17     559.00
105.27     549.00
105.37     506.64
105.47     561.16
105.57     541.00
105.67     586.55
105.77     570.00
105.87     593.20
105.97     537.00
106.07     544.00
106.17     591.00
106.27     572.00
106.37     613.00
106.47     575.00
106.57     590.00
106.67     625.74
106.77     650.00
106.87     626.00
106.97     631.00
107.07     683.32
107.17     713.00
107.27     683.61
107.37     689.00
107.47     715.00
107.57     744.74
107.67     666.07
107.77     738.00
107.87     636.00
107.97     607.00
108.07     653.41
108.17     689.00
108.27     704.25
108.37     703.00
108.47     666.00
108.57     664.00
108.67     721.05
108.77     732.00
108.87     708.73
108.97     722.00
109.07     643.00
109.17     697.00
109.27     657.00
109.37     633.20
109.47     641.00
109.57     626.71
109.67     642.00
109.77     600.00
109.87     625.00
109.97     588.00
110.07     600.00
110.17     590.85
110.27     552.00
110.37     568.00
110.47     505.91
110.57     524.00
110.67     541.03
110.77     602.00
110.87     570.00
110.97     567.89
111.07     578.76
111.17     519.00
111.27     519.68
111.37     535.00
111.47     537.00
111.57     536.00
111.67     524.00
111.77     509.04
111.87     559.00
111.97     575.00
112.07     561.00
112.17     581.00
112.27     588.37
112.37     578.00
112.47     598.00
112.57     603.00
112.67     587.00
112.77     625.00
112.87     619.00
112.97     618.57
113.07     679.52
113.17     698.00
113.27     722.00
113.37     768.42
113.47     810.57
113.57     791.00
113.67     838.00
113.77     867.35
113.87     955.00
113.97     920.09
114.07     997.12
114.17    1084.00
114.27    1105.29
114.37    1251.00
114.47    1283.00
114.57    1452.68
114.67    1534.00
114.77    1708.00
114.87    1867.10
114.97    2114.00
115.07    2335.00
115.17    2583.00
115.27    2939.00
115.37    3062.90
115.47    3461.04
115.57    3838.01
115.67    3975.00
115.77    4472.00
115.87    4892.19
115.97    5157.26
116.07    5465.00
116.17    5938.00
116.27    6185.82
116.37    6369.00
116.47    6745.00
116.57    6981.48
116.67    6777.34
116.77    6983.00
116.87    6792.00
116.97    6754.00
117.07    6329.00
117.17    6186.51
117.27    5731.00
117.37    5299.00
117.47    4998.00
117.57    4636.00
117.67    4340.00
117.77    3901.74
117.87    3644.00
117.97    3283.00
118.07    2981.00
118.17    2592.00
118.27    2328.00
118.37    2072.87
118.47    1716.00
118.57    1571.00
118.67    1363.00
118.77    1249.00
118.87    1176.08
118.97    1106.13
119.07     898.00
119.17     892.86
119.27     809.00
119.37     770.23
119.47     694.80
119.57     713.00
119.67     736.00
119.77     646.49
119.87     643.26
119.97     588.00
120.07     623.00
120.17     568.00
120.27     598.00
120.37     547.00
120.47     566.00
120.57     572.70
120.67     567.00
120.77     559.00
120.87     606.63
120.97     599.73
121.07     539.00
121.17     552.00
121.27     613.00
121.37     585.78
121.47     587.00
121.57     533.92
121.67     594.00
121.77     623.00
121.87     572.00
121.97     634.00
122.07     617.53
122.17     623.00
122.27     655.37
122.37     652.00
122.47     624.00
122.57     634.00
122.67     619.34
122.77     649.35
122.87     629.00
122.97     646.00
123.07     656.58
123.17     667.00
123.27     607.41
123.37     658.00
123.47     613.00
123.57     671.38
123.67     672.01
123.77     607.00
123.87     613.46
123.97     586.00
124.07     622.00
124.17     592.00
124.27     617.00
124.37     562.00
124.47     571.29
124.57     570.00
124.67     547.00
124.77     541.00
124.87     562.25
124.97     579.37
