  9.97     608.00
 10.07     545.09
 10.17     562.00
 10.27     578.00
 10.37     575.56
 10.47     587.00
 10.57     556.00
 10.67     592.00
 10.77     550.16
 10.87     591.25
 10.97     548.80
 11.07     604.53
 11.17     557.00
 11.27     587.00
 11.37     554.00
 11.47     540.00
 11.57     584.00
 11.67     631.56
 11.77     668.00
 11.87     666.00
 11.97     595.85
 12.07     712.61
 12.17     684.43
 12.27     672.00
 12.37     678.00
 12.47     623.00
 12.57     659.71
 12.67     589.00
 12.77     589.38
 12.87     561.24
 12.97     594.82
 13.07     555.00
 13.17     583.00
 13.27     607.00
 13.37     570.01
 13.47     552.00
 13.57     577.00
 13.67     569.70
 13.77     558.00
 13.87     580.32
 13.97     561.00
 14.07     538.00
 14.17     596.00
 14.27     546.53
 14.37     561.00
 14.47     550.00
 14.57     569.45
 14.67     527.23
 14.77     586.59
 14.87     547.00
 14.97     535.38
 15.07     523.00
 15.17     574.63
 15.27     544.00
 15.37     579.00
 15.47     591.92
 15.57     602.00
 15.67     556.00
 15.77     536.00
 15.87     535.54
 15.97     563.00
 16.07     548.00
 16.17     556.00
 16.27     578.31
 16.37     556.00
 16.47     560.00
 16.57     559.00
 16.67     573.00
 16.77     563.00
 16.87     563.00
 16.97     591.00
 17.07     526.00
 17.17     565.97
 17.27     562.00
 17.37     532.67
 17.47     601.13
 17.57     585.00
 17.67     587.00
 17.77     561.00
 17.87     607.00
 17.97     548.00
 18.07     564.75
 18.17     558.00
 18.27     563.00
 18.37     544.00
 18.47     529.57
 18.57     542.54
 18.67     570.00
 18.77     535.00
 18.87     527.03
 18.97     585.00
 19.07     533.00
 19.17     547.73
 19.27     584.00
 19.37     574.26
 19.47     583.00
 19.57     529.00
 19.67     553.00
 19.77     543.03
 19.87     588.00
 19.97     539.00
 20.07     541.00
 20.17     582.00
 20.27     578.00
 20.37     528.00
 20.47     578.00
 20.57     528.36
 20.67     514.71
 20.77     553.45
 20.87     519.00
 20.97     554.99
 21.07     572.38
 21.17     584.00
 21.27     531.00
 21.37     587.00
 21.47     548.00
 21.57     578.00
 21.67     555.00
 21.77     586.00
 21.87     571.00
 21.97     574.00
 22.07     514.00
 22.17     585.58
 22.27     579.43
 22.37     551.00
 22.47     568.00
 22.57     545.00
 22.67     551.00
 22.77     540.00
 22.87     592.12
 22.97     569.00
 23.07     533.39
 23.17     542.00
 23.27     587.60
 23.37     534.00
 23.47     562.74
 23.57     552.00
 23.67     543.00
 23.77     574.60
 23.87     586.00
 23.97     582.00
 24.07     560.00
 24.17     558.95
 24.27     599.00
 24.37     528.38
 24.47     594.85
 24.57     596.00
 24.67     533.00
 24.77     616.00
 24.87     609.00
 24.97     635.00
 25.07     614.07
 25.17     569.00
 25.27     561.00
 25.37     578.00
 25.47     551.00
 25.57     562.94
 25.67     543.00
 25.77     552.00
 25.87     560.00
 25.97     595.00
 26.07     577.00
 26.17     533.00
 26.27     502.00
 26.37     562.45
 26.47     513.00
 26.57     548.00
 26.67     528.00
 26.77     558.00
 26.87     557.12
 26.97     578.91
 27.07     530.00
 27.17     543.00
 27.27     567.17
 27.37     571.00
 27.47     552.00
 27.57     579.00
 27.67     590.00
 27.77     542.88
 27.87     613.13
 27.97     689.00
 28.07     787.47
 28.17     849.80
 28.27     956.00
 28.37     920.00
 28.47     772.00
 28.57     696.00
 28.67     700.02
 28.77     773.73
 28.87     829.00
 28.97     805.30
 29.07     777.00
 29.17     682.49
 29.27     633.00
 29.37     596.53
 29.47     554.58
 29.57     527.08
 29.67     582.00
 29.77     612.00
 29.87     601.00
 29.97     524.59
 30.07     551.00
 30.17     573.00
 30.27     598.00
 30.37     564.00
 30.47     581.00
 30.57     557.00
 30.67     538.65
 30.77     570.00
 30.87     586.00
 30.97     649.00
 31.07     599.48
 31.17     584.00
 31.27     575.17
 31.37     561.00
 31.47     568.97
 31.57     518.08
 31.67     558.47
 31.77     493.34
 31.87     526.00
 31.97     567.00
 32.07     488.43
 32.17     554.93
 32.27     576.00
 32.37     484.62
 32.47     556.00
 32.57     537.67
 32.67     547.00
 32.77     538.00
 32.87     538.73
 32.97     550.33
 33.07     524.00
 33.17     526.60
 33.27     530.00
 33.37     518.00
 33.47     541.00
 33.57     620.00
 33.67     653.16
 33.77     701.30
 33.87     873.33
 33.97     983.00
 34.07    1071.00
 34.17     966.00
 34.27     935.20
 34.37     757.00
 34.47     662.00
 34.57     566.00
 34.67     573.00
 34.77     543.00
 34.87     546.00
 34.97     531.00
 35.07     563.07
 35.17     483.20
 35.27     536.43
 35.37     523.00
 35.47     503.00
 35.57     478.24
 35.67     502.00
 35.77     462.00
 35.87     493.00
 35.97     520.00
 36.07     493.00
 36.17     553.55
 36.27     500.42
 36.37     490.45
 36.47     508.19
 36.57     504.00
 36.67     504.00
 36.77     501.00
 36.87     493.74
 36.97     506.00
 37.07     484.00
 37.17     544.00
 37.27     478.11
 37.37     477.48
 37.47     513.98
 37.57     541.17
 37.67     538.00
 37.77     553.00
 37.87     513.86
 37.97     549.00
 38.07     557.05
 38.17     492.00
 38.27     536.74
 38.37     527.77
 38.47     542.77
 38.57     475.00
 38.67     520.89
 38.77     473.72
 38.87     525.96
 38.97     492.00
 39.07     519.15
 39.17     508.00
 39.27     504.00
 39.37     475.00
 39.47     504.00
 39.57     485.10
 39.67     548.05
 39.77     476.00
 39.87     472.00
 39.97     494.66
 40.07     466.00
 40.17     509.00
 40.27     497.00
 40.37     488.95
 40.47     513.41
 40.57     504.00
 40.67     524.00
 40.77     533.00
 40.87     496.00
 40.97     522.00
 41.07     487.00
 41.17     512.00
 41.27     525.00
 41.37     533.00
 41.47     547.99
 41.57     541.00
 41.67     489.00
 41.77     550.02
 41.87     483.00
 41.97     507.26
 42.07     551.00
 42.17     490.00
 42.27     501.00
 42.37     584.00
 42.47     572.10
 42.57     582.00
 42.67     621.06
 42.77     579.67
 42.87     571.00
 42.97     558.00
 43.07     526.00
 43.17     551.78
 43.27     499.25
 43.37     540.00
 43.47     524.00
 43.57     486.64
 43.67     478.47
 43.77     511.04
 43.87     493.88
 43.97     493.00
 44.07     499.56
 44.17     495.00
 44.27     525.00
 44.37     469.00
 44.47     515.00
 44.57     476.00
 44.67     539.75
 44.77     477.84
 44.87     470.00
 44.97     530.50
 45.07     527.00
 45.17     485.00
 45.27     531.00
 45.37     510.00
 45.47     520.00
 45.57     530.00
 45.67     522.00
 45.77     485.00
 45.87     531.10
 45.97     483.00
 46.07     542.00
 46.17     498.00
 46.27     521.00
 46.37     527.00
 46.47     515.76
 46.57     482.00
 46.67     506.00
 46.77     461.00
 46.87     499.00
 46.97     512.00
 47.07     467.00
 47.17     473.84
 47.27     520.00
 47.37     537.00
 47.47     579.20
 47.57     551.00
 47.67     596.00
 47.77     592.00
 47.87     640.00
 47.97     559.00
 48.07     608.88
 48.17     534.00
 48.27     570.00
 48.37     566.40
 48.47     540.00
 48.57     599.00
 48.67     528.00
 48.77     521.00
 48.87     548.00
 48.97     552.87
 49.07     595.44
 49.17     562.00
 49.27     563.00
 49.37     610.00
 49.47     618.76
 49.57     743.00
 49.67     871.00
 49.77    1092.18
 49.87    1451.00
 49.97    1854.41
 50.07    2214.31
 50.17    2441.00
 50.27    2434.00
 50.37    2206.00
 50.47    1931.94
 50.57    1415.00
 50.67    1074.00
 50.77     854.00
 50.87     690.73
 50.97     701.00
 51.07     629.00
 51.17     635.00
 51.27     599.00
 51.37     596.00
 51.47     587.04
 51.57     546.00
 51.67     608.00
 51.77     558.00
 51.87     543.00
 51.97     502.00
 52.07     478.00
 52.17     543.79
 52.27     550.14
 52.37     544.00
 52.47     568.79
 52.57     579.00
 52.67     551.44
 52.77     598.67
 52.87     627.18
 52.97     753.67
 53.07     824.00
 53.17     934.00
 53.27    1088.00
 53.37    1142.00
 53.47    1212.35
 53.57    1189.00
 53.67    1154.59
 53.77    1048.40
 53.87     863.95
 53.97     777.00
 54.07     649.00
 54.17     633.00
 54.27     588.52
 54.37     559.94
 54.47     584.00
 54.57     518.87
 54.67     558.00
 54.77     575.00
 54.87     519.00
 54.97     541.00
 55.07     596.00
 55.17     506.91
 55.27     531.88
 55.37     569.00
 55.47     533.53
 55.57     603.75
 55.67     597.00
 55.77     608.00
 55.87     604.21
 55.97     650.95
 56.07     695.77
 56.17     797.80
 56.27     981.20
 56.37    1212.96
 56.47    1498.00
 56.57    1800.27
 56.67    2261.59
 56.77    2587.04
 56.87    2548.00
 56.97    2609.00
 57.07    2379.00
 57.17    1966.17
 57.27    1584.75
 57.37    1256.64
 57.47    1086.00
 57.57     826.41
 57.67     820.00
 57.77     727.02
 57.87     704.97
 57.97     646.44
 58.07     626.06
 58.17     712.00
 58.27     774.00
 58.37     827.00
 58.47     808.00
 58.57     996.00
 58.67    1132.23
 58.77    1273.47
 58.87    1279.00
 58.97    1356.00
 59.07    1494.00
 59.17    1378.00
 59.27    1391.00
 59.37    1296.00
 59.47    1113.49
 59.57    1172.92
 59.67    1168.00
 59.77    1117.23
 59.87    1248.00
 59.97    1353.00
 60.07    1499.00
 60.17    1462.68
 60.27    1541.35
 60.37    1482.00
 60.47    1432.43
 60.57    1247.00
 60.67    1040.00
 60.77     966.65
 60.87     786.18
 60.97     676.00
 61.07     634.00
 61.17     621.00
 61.27     633.00
 61.37     687.00
 61.47     732.69
 61.57     786.07
 61.67     895.00
 61.77     971.00
 61.87    1082.00
 61.97    1270.00
 62.07    1354.00
 62.17    1413.48
 62.27    1472.24
 62.37    1316.00
 62.47    1258.94
 62.57    1036.74
 62.67     933.36
 62.77     839.90
 62.87     672.00
 62.97     622.00
 63.07     596.00
 63.17     633.00
 63.27     621.00
 63.37     566.98
 63.47     590.00
 63.57     604.00
 63.67     589.00
 63.77     671.00
 63.87     632.58
 63.97     671.00
 64.07     700.12
 64.17     799.00
 64.27     851.00
 64.37     921.00
 64.47     905.00
 64.57    1029.31
 64.67     971.64
 64.77    1053.87
 64.87     976.06
 64.97     946.40
 65.07     871.00
 65.17     815.00
 65.27     747.00
 65.37     706.00
 65.47     648.00
 65.57     655.00
 65.67     619.00
 65.77     555.00
 65.87     560.00
 65.97     551.00
 66.07     534.00
 66.17     549.00
 66.27     585.00
 66.37     553.00
 66.47     605.00
 66.57     582.70
 66.67     574.00
 66.77     586.00
 66.87     641.00
 66.97     596.00
 67.07     653.00
 67.17     677.56
 67.27     763.00
 67.37     894.14
 67.47    1102.00
 67.57    1261.00
 67.67    1603.00
 67.77    1846.25
 67.87    1993.23
 67.97    2296.00
 68.07    2453.79
 68.17    2471.00
 68.27    2335.00
 68.37    2229.00
 68.47    1827.11
 68.57    1470.00
 68.67    1335.34
 68.77    1023.00
 68.87     916.90
 68.97     815.00
 69.07     711.00
 69.17     686.00
 69.27     628.00
 69.37     596.00
 69.47     591.00
 69.57     610.00
 69.67     550.61
 69.77     552.39
 69.87     560.00
 69.97     574.00
 70.07     568.00
 70.17     584.00
 70.27     551.00
 70.37     579.00
 70.47     577.00
 70.57     600.97
 70.67     620.00
 70.77     587.00
 70.87     653.00
 70.97     651.00
 71.07     684.92
 71.17     687.00
 71.27     846.00
 71.37     959.00
 71.47    1092.25
 71.57    1306.00
 71.67    1493.07
 71.77    1657.67
 71.87    1829.00
 71.97    1868.00
 72.07    1847.00
 72.17    1806.00
 72.27    1691.00
 72.37    1576.39
 72.47    1500.57
 72.57    1244.00
 72.67    1050.00
 72.77    1048.15
 72.87     857.00
 72.97     777.00
 73.07     776.00
 73.17     716.00
 73.27     651.42
 73.37     628.14
 73.47     626.00
 73.57     614.00
 73.67     578.00
 73.77     574.36
 73.87     635.00
 73.97     579.73
 74.07     648.00
 74.17     538.11
 74.27     622.28
 74.37     599.00
 74.47     587.00
 74.57     645.00
 74.67     562.70
 74.77     579.65
 74.87     651.00
 74.97     531.93
 75.07     566.00
 75.17     599.00
 75.27     567.00
 75.37     591.00
 75.47     520.62
 75.57     565.00
 75.67     569.00
 75.77     543.87
 75.87     552.11
 75.97     620.00
 76.07     660.00
 76.17     673.00
 76.27     716.38
 76.37     758.00
 76.47     724.00
 76.57     747.00
 76.67     669.00
 76.77     727.00
 76.87     688.14
 76.97     623.00
 77.07     575.00
 77.17     596.00
 77.27     564.00
 77.37     570.02
 77.47     523.00
 77.57     532.00
 77.67     556.13
 77.77     582.47
 77.87     542.00
 77.97     513.00
 78.07     522.00
 78.17     522.00
 78.27     539.01
 78.37     557.10
 78.47     517.10
 78.57     487.00
 78.67     467.00
 78.77     495.00
 78.87     549.92
 78.97     482.00
 79.07     491.00
 79.17     507.35
 79.27     535.00
 79.37     514.05
 79.47     525.27
 79.57     544.00
 79.67     529.50
 79.77     506.00
 79.87     535.00
 79.97     579.00
 80.07     536.00
 80.17     530.00
 80.27     587.60
 80.37     554.00
 80.47     548.00
 80.57     655.63
 80.67     633.00
 80.77     609.00
 80.87     668.06
 80.97     654.00
 81.07     704.00
 81.17     768.00
 81.27     772.00
 81.37     708.61
 81.47     762.00
 81.57     717.69
 81.67     786.00
 81.77     658.00
 81.87     754.94
 81.97     652.45
 82.07     638.60
 82.17     622.00
 82.27     634.00
 82.37     620.00
 82.47     607.00
 82.57     626.00
 82.67     585.00
 82.77     530.00
 82.87     579.95
 82.97     555.06
 83.07     545.00
 83.17     523.00
 83.27     568.00
 83.37     551.24
 83.47     573.00
 83.57     516.00
 83.67     544.00
 83.77     613.66
 83.87     579.13
 83.97     542.00
 84.07     567.00
 84.17     590.00
 84.27     601.57
 84.37     602.68
 84.47     522.76
 84.57     603.65
 84.67     556.74
 84.77     550.00
 84.87     549.29
 84.97     541.00
 85.07     515.00
 85.17     577.34
 85.27     563.00
 85.37     553.00
 85.47     542.69
 85.57     504.62
 85.67     534.00
 85.77     553.00
 85.87     531.00
 85.97     531.00
 86.07     571.00
 86.17     539.36
 86.27     500.01
 86.37     546.00
 86.47     597.19
 86.57     554.00
 86.67     548.04
 86.77     543.82
 86.87     575.00
 86.97     623.00
 87.07     635.00
 87.17     655.00
 87.27     665.00
 87.37     670.23
 87.47     633.80
 87.57     666.00
 87.67     594.00
 87.77     577.84
 87.87     622.00
 87.97     661.00
 88.07     586.31
 88.17     600.63
 88.27     563.36
 88.37     610.00
 88.47     623.00
 88.57     584.42
 88.67     574.00
 88.77     615.53
 88.87     609.72
 88.97     605.00
 89.07     614.00
 89.17     624.00
 89.27     621.00
 89.37     598.67
 89.47     602.00
 89.57     618.00
 89.67     592.24
 89.77     575.00
 89.87     609.00
 89.97     604.00
 90.07     547.00
 90.17     523.85
 90.27     593.65
 90.37     569.00
 90.47     523.00
 90.57     512.00
 90.67     521.00
 90.77     511.00
 90.87     532.43
 90.97     495.42
 91.07     541.00
 91.17     536.00
 91.27     540.01
 91.37     521.00
 91.47     532.00
 91.57     521.00
 91.67     549.00
 91.77     541.00
 91.87     555.00
 91.97     552.00
 92.07     611.00
 92.17     569.00
 92.27     587.00
 92.37     636.49
 92.47     587.00
 92.57     631.00
 92.67     691.00
 92.77     700.25
 92.87     720.00
 92.97     754.00
 93.07     746.00
 93.17     764.17
 93.27     799.00
 93.37     792.00
 93.47     831.00
 93.57     794.75
 93.67     812.66
 93.77     817.00
 93.87     862.00
 93.97     821.25
 94.07     852.00
 94.17     842.80
 94.27     870.00
 94.37     876.00
 94.47     898.00
 94.57     942.00
 94.67     999.00
 94.77     928.00
 94.87     909.00
 94.97     955.00
 95.07     971.00
 95.17     823.79
 95.27     815.71
 95.37     839.00
 95.47     813.00
 95.57     756.00
 95.67     716.00
 95.77     723.00
 95.87     724.00
 95.97     671.32
 96.07     694.00
 96.17     757.00
 96.27     757.54
 96.37     769.00
 96.47     811.00
 96.57     918.31
 96.67     964.00
 96.77     956.32
 96.87    1050.00
 96.97    1207.00
 97.07    1259.00
 97.17    1241.00
 97.27    1419.36
 97.37    1443.00
 97.47    1425.00
 97.57    1423.00
 97.67    1472.07
 97.77    1365.00
 97.87    1314.28
 97.97    1277.70
 98.07    1193.00
 98.17    1151.00
 98.27    1152.10
 98.37     976.17
 98.47     964.00
 98.57     896.00
 98.67     902.00
 98.77     827.00
 98.87     817.00
 98.97     746.00
 99.07     822.00
 99.17     817.00
 99.27     871.00
 99.37     926.87
 99.47    1033.00
 99.57    1159.92
 99.67    1209.00
 99.77    1249.00
 99.87    1348.33
 99.97    1572.00
100.07    1616.93
100.17    1719.00
100.27    1809.00
100.37    1917.76
100.47    1995.95
100.57    2002.81
100.67    2004.00
100.77    2091.54
100.87    2020.67
100.97    1896.00
101.07    1958.00
101.17    1824.23
101.27    1792.79
101.37    1608.59
101.47    1544.00
101.57    1442.95
101.67    1417.00
101.77    1358.00
101.87    1336.50
101.97    1306.91
102.07    1234.20
102.17    1150.00
102.27    1106.00
102.37    1170.00
102.47    1147.85
102.57    1034.00
102.67    1043.00
102.77    1085.58
102.87    1000.00
102.97     991.00
103.07     947.81
103.17     907.57
103.27     875.00
103.37     853.59
103.47     736.06
103.57     725.00
103.67     712.65
103.77     696.00
103.87     729.00
103.97     646.00
104.07     623.00
104.17     586.00
104.27     560.39
104.37     540.91
104.47     540.00
104.57     566.00
104.67     566.00
104.77     516.06
104.87     561.00
104.97     548.00
105.07     515.61
105.17     546.08
105.27     535.00
105.37     550.00
105.47     558.00
105.57     575.00
105.67     566.83
105.77     563.00
105.87     573.88
105.97     573.34
106.07     599.63
106.17     605.00
106.27     636.69
106.37     623.18
106.47     610.00
106.57     660.00
106.67     687.01
106.77     689.90
106.87     680.00
106.97     633.29
107.07     689.00
107.17     661.60
107.27     718.00
107.37     667.00
107.47     706.00
107.57     663.00
107.67     687.85
107.77     649.00
107.87     702.00
107.97     698.73
108.07     650.00
108.17     705.18
108.27     719.06
108.37     662.93
108.47     713.57
108.57     685.00
108.67     735.86
108.77     717.00
108.87     660.00
108.97     725.33
109.07     670.00
109.17     668.00
109.27     634.67
109.37     685.00
109.47     628.10
109.57     616.00
109.67     655.00
109.77     608.77
109.87     592.71
109.97     618.84
110.07     570.00
110.17     573.00
110.27     593.48
110.37     599.00
110.47     597.90
110.57     525.65
110.67     590.00
110.77     499.60
110.87     572.22
110.97     554.00
111.07     504.76
111.17     508.58
111.27     525.00
111.37     515.00
111.47     538.00
111.57     514.00
111.67     563.00
111.77     544.27
111.87     582.00
111.97     542.00
112.07     563.00
112.17     536.00
112.27     581.00
112.37     566.73
112.47     613.02
112.57     561.00
112.67     582.00
112.77     602.00
112.87     628.76
112.97     672.00
113.07     614.00
113.17     699.63
113.27     680.00
113.37     731.93
113.47     635.00
113.57     683.00
113.67     779.69
113.77     801.00
113.87     887.24
113.97     835.00
114.07     895.57
114.17     916.00
114.27    1054.19
114.37    1218.00
114.47    1254.68
114.57    1391.00
114.67    1479.00
114.77    1577.98
114.87    1804.00
114.97    2072.97
115.07    2378.00
115.17    2427.73
115.27    2915.00
115.37    3207.00
115.47    3516.00
115.57    3774.36
115.67    4057.48
115.77    4416.00
115.87    4947.60
115.97    5249.00
116.07    5496.00
116.17    5865.00
116.27    6258.06
116.37    6456.00
116.47    6550.00
116.57    6674.18
116.67    6854.27
116.77    6709.00
116.87    6784.31
116.97    6481.27
117.07    6075.00
117.17    5908.00
117.27    5520.00
117.37    5194.00
117.47    4806.00
117.57    4676.84
117.67    4245.00
117.77    3891.00
117.87    3469.06
117.97    3187.83
118.07    2931.00
118.17    2536.63
118.27    2210.00
118.37    2063.21
118.47    1784.00
118.57    1598.88
118.67    1464.00
118.77    1346.22
118.87    1124.87
118.97    1020.96
119.07     981.76
119.17     896.00
119.27     842.49
119.37     826.00
119.47     704.00
119.57     743.00
119.67     702.00
119.77     647.00
119.87     610.96
119.97     674.00
120.07     634.00
120.17     558.00
120.27     575.62
120.37     597.00
120.47     573.88
120.57     619.00
120.67     567.00
120.77     567.66
120.87     579.00
120.97     619.13
121.07     537.00
121.17     606.00
121.27     567.00
121.37     570.52
121.47     555.00
121.57     587.00
121.67     623.00
121.77     615.00
121.87     603.00
121.97     641.01
122.07     571.87
122.17     591.78
122.27     631.00
122.37     661.19
122.47     665.00
122.57     663.00
122.67     642.00
122.77     690.00
122.87     639.00
122.97     618.70
123.07     625.55
123.17     648.00
123.27     616.00
123.37     647.00
123.47     597.17
123.57     601.69
123.67     613.07
123.77     613.00
123.87     630.00
123.97     638.00
124.07     662.00
124.17     627.00
124.27     622.00
124.37     646.00
124.47     574.00
124.57     564.72
124.67     611.86
124.77     617.32
124.87     557.99
124.97     597.00
