  9.97     571.52
 10.07     649.00
 10.17     598.00
 10.27     642.00
 10.37     617.00
 10.47     588.00
 10.57     583.00
 10.67     579.00
 10.77     593.00
 10.87     612.00
 10.97     586.00
 11.07     603.00
 11.17     540.61
 11.27     589.00
 11.37     568.00
 11.47     614.00
 11.57     588.00
 11.67     568.82
 11.77     590.00
 11.87     611.50
 11.97     676.00
 12.07     641.30
 12.17     713.00
 12.27     684.00
 12.37     659.00
 12.47     692.34
 12.57     577.00
 12.67     570.00
 12.77     568.01
 12.87     525.00
 12.97     543.00
 13.07     546.37
 13.17     574.00
 13.27     581.00
 13.37     601.15
 13.47     564.00
 13.57     606.00
 13.67     543.00
 13.77     546.00
 13.87     606.70
 13.97     540.84
 14.07     508.00
 14.17     546.00
 14.27     546.83
 14.37     555.00
 14.47     578.00
 14.57     549.00
 14.67     584.00
 14.77     540.11
 14.87     543.00
 14.97     574.28
 15.07     532.00
 15.17     553.75
 15.27     603.81
 15.37     562.00
 15.47     566.33
 15.57     556.16
 15.67     594.00
 15.77     542.60
 15.87     586.00
 15.97     594.47
 16.07     553.00
 16.17     560.00
 16.27     575.00
 16.37     549.00
 16.47     531.00
 16.57     514.00
 16.67     592.99
 16.77     562.00
 16.87     574.00
 16.97     564.00
 17.07     573.00
 17.17     535.45
 17.27     604.01
 17.37     567.00
 17.47     545.13
 17.57     551.25
 17.67     538.08
 17.77     520.65
 17.87     552.00
 17.97     568.00
 18.07     594.05
 18.17     563.00
 18.27     564.06
 18.37     558.00
 18.47     585.89
 18.57     538.00
 18.67     571.00
 18.77     580.00
 18.87     571.71
 18.97     546.00
 19.07     555.00
 19.17     588.00
 19.27     602.46
 19.37     560.00
 19.47     602.00
 19.57     560.27
 19.67     557.64
 19.77     534.00
 19.87     535.90
 19.97     531.80
 20.07     520.10
 20.17     571.00
 20.27     518.52
 20.37     590.00
 20.47     594.60
 20.57     550.00
 20.67     545.00
 20.77     517.00
 20.87     574.00
 20.97     574.00
 21.07     552.21
 21.17     534.00
 21.27     538.00
 21.37     594.00
 21.47     554.85
 21.57     586.00
 21.67     548.00
 21.77     604.00
 21.87     525.00
 21.97     536.00
 22.07     552.11
 22.17     581.00
 22.27     608.00
 22.37     526.00
 22.47     540.96
 22.57     519.00
 22.67     545.00
 22.77     552.00
 22.87     523.42
 22.97     585.00
 23.07     547.00
 23.17     573.00
 23.27     532.00
 23.37     586.04
 23.47     534.70
 23.57     517.00
 23.67     515.00
 23.77     600.00
 23.87     562.00
 23.97     506.40
 24.07     570.00
 24.17     546.00
 24.27     564.00
 24.37     519.82
 24.47     577.75
 24.57     603.00
 24.67     558.00
 24.77     655.00
 24.87     629.76
 24.97     612.00
 25.07     522.00
 25.17     531.97
 25.27     515.80
 25.37     578.00
 25.47     561.00
 25.57     555.18
 25.67     567.00
 25.77     571.00
 25.87     556.00
 25.97     525.02
 26.07     557.00
 26.17     573.00
 26.27     522.00
 26.37     520.86
 26.47     555.27
 26.57     505.36
 26.67     558.00
 26.77     555.00
 26.87     581.88
 26.97     537.00
 27.07     543.00
 27.17     539.63
 27.27     541.00
 27.37     582.59
 27.47     550.00
 27.57     564.00
 27.67     589.00
 27.77     528.33
 27.87     612.00
 27.97     691.75
 28.07     832.00
 28.17     933.00
 28.27     940.00
 28.37     932.00
 28.47     737.00
 28.57     726.51
 28.67     668.00
 28.77     759.18
 28.87     774.00
 28.97     808.95
 29.07     777.82
 29.17     670.00
 29.27     649.00
 29.37     599.00
 29.47     544.72
 29.57     573.00
 29.67     592.40
 29.77     591.00
 29.87     574.42
 29.97     635.00
 30.07     566.00
 30.17     568.00
 30.27     569.00
 30.37     568.00
 30.47     584.00
 30.57     555.00
 30.67     582.00
 30.77     608.00
 30.87     596.00
 30.97     612.00
 31.07     642.18
 31.17     572.00
 31.27     537.37
 31.37     540.90
 31.47     530.00
 31.57     542.00
 31.67     544.00
 31.77     510.59
 31.87     527.00
 31.97     490.00
 32.07     532.00
 32.17     531.41
 32.27     540.00
 32.37     510.00
 32.47     539.00
 32.57     543.00
 32.67     575.00
 32.77     574.42
 32.87     556.00
 32.97     520.00
 33.07     560.27
 33.17     549.00
 33.27     558.00
 33.37     540.00
 33.47     586.00
 33.57     634.46
 33.67     652.00
 33.77     743.70
 33.87     915.00
 33.97    1069.00
 34.07    1076.00
 34.17    1027.00
 34.27     916.00
 34.37     787.17
 34.47     666.00
 34.57     571.00
 34.67     588.00
 34.77     544.00
 34.87     537.09
 34.97     516.00
 35.07     541.00
 35.17     553.87
 35.27     503.00
 35.37     525.00
 35.47     525.14
 35.57     509.00
 35.67     532.00
 35.77     511.00
 35.87     475.53
 35.97     520.00
 36.07     526.00
 36.17     513.00
 36.27     508.59
 36.37     542.00
 36.47     534.00
 36.57     492.00
 36.67     508.00
 36.77     554.42
 36.87     480.69
 36.97     548.00
 37.07     557.04
 37.17     472.07
 37.27     474.95
 37.37     531.00
 37.47     499.88
 37.57     503.00
 37.67     530.00
 37.77     523.00
 37.87     496.00
 37.97     497.00
 38.07     463.00
 38.17     479.00
 38.27     504.71
 38.37     499.90
 38.47     473.56
 38.57     466.49
 38.67     501.00
 38.77     548.61
 38.87     519.00
 38.97     509.00
 39.07     498.81
 39.17     528.10
 39.27     464.51
 39.37     496.00
 39.47     522.00
 39.57     537.41
 39.67     493.52
 39.77     482.00
 39.87     540.55
 39.97     499.71
 40.07     503.00
 40.17     465.00
 40.27     507.00
 40.37     469.66
 40.47     489.00
 40.57     479.30
 40.67     470.00
 40.77     469.00
 40.87     492.78
 40.97     486.00
 41.07     525.96
 41.17     460.00
 41.27     473.31
 41.37     510.53
 41.47     480.46
 41.57     472.95
 41.67     512.00
 41.77     521.42
 41.87     486.00
 41.97     448.00
 42.07     485.00
 42.17     519.00
 42.27     506.86
 42.37     585.00
 42.47     613.49
 42.57     578.00
 42.67     666.59
 42.77     558.00
 42.87     635.61
 42.97     533.46
 43.07     549.70
 43.17     510.00
 43.27     484.00
 43.37     508.00
 43.47     515.00
 43.57     460.28
 43.67     485.00
 43.77     505.26
 43.87     489.00
 43.97     463.00
 44.07     533.00
 44.17     519.79
 44.27     497.00
 44.37     464.81
 44.47     503.00
 44.57     477.00
 44.67     482.00
 44.77     535.00
 44.87     515.95
 44.97     544.29
 45.07     515.00
 45.17     545.92
 45.27     486.00
 45.37     466.43
 45.47     464.20
 45.57     470.72
 45.67     470.00
 45.77     524.00
 45.87     479.00
 45.97     488.00
 46.07     497.00
 46.17     497.49
 46.27     522.71
 46.37     461.00
 46.47     541.17
 46.57     526.00
 46.67     460.64
 46.77     546.00
 46.87     469.00
 46.97     460.00
 47.07     507.97
 47.17     529.62
 47.27     499.00
 47.37     492.00
 47.47     537.00
 47.57     528.01
 47.67     525.93
 47.77     533.83
 47.87     540.74
 47.97     583.00
 48.07     535.00
 48.17     544.00
 48.27     557.00
 48.37     554.91
 48.47     559.00
 48.57     550.00
 48.67     555.00
 48.77     552.00
 48.87     541.02
 48.97     530.00
 49.07     517.00
 49.17     605.00
 49.27     600.00
 49.37     684.00
 49.47     733.00
 49.57     789.00
 49.67     928.00
 49.77    1124.03
 49.87    1449.00
 49.97    1850.43
 50.07    2272.00
 50.17    2513.36
 50.27    2502.47
 50.37    2299.96
 50.47    1890.00
 50.57    1422.00
 50.67    1117.27
 50.77     830.77
 50.87     687.00
 50.97     636.00
 51.07     611.00
 51.17     616.17
 51.27     603.93
 51.37     562.00
 51.47     525.09
 51.57     571.00
 51.67     554.00
 51.77     528.00
 51.87     521.54
 51.97     551.00
 52.07     505.47
 52.17     565.00
 52.27     549.00
 52.37     548.00
 52.47     584.29
 52.57     528.11
 52.67     583.00
 52.77     559.00
 52.87     634.40
 52.97     699.00
 53.07     814.00
 53.17     944.00
 53.27    1067.00
 53.37    1093.90
 53.47    1271.69
 53.57    1266.47
 53.67    1081.00
 53.77    1003.00
 53.87     856.00
 53.97     738.00
 54.07     707.24
 54.17     617.86
 54.27     592.00
 54.37     567.00
 54.47     538.28
 54.57     586.85
 54.67     566.08
 54.77     592.00
 54.87     565.14
 54.97     509.80
 55.07     586.00
 55.17     535.87
 55.27     518.95
 55.37     579.00
 55.47     563.28
 55.57     566.00
 55.67     578.00
 55.77     603.00
 55.87     624.36
 55.97     639.00
 56.07     725.84
 56.17     771.89
 56.27     899.00
 56.37    1074.00
 56.47    1466.00
 56.57    1728.00
 56.67    2259.45
 56.77    2445.42
 56.87    2610.00
 56.97    2662.00
 57.07    2456.00
 57.17    1977.72
 57.27    1634.00
 57.37    1280.00
 57.47    1050.90
 57.57     881.29
 57.67     786.04
 57.77     653.21
 57.87     639.30
 57.97     708.00
 58.07     687.00
 58.17     655.00
 58.27     746.16
 58.37     870.00
 58.47    1005.68
 58.57    1070.38
 58.67    1316.65
 58.77    1424.00
 58.87    1583.00
 58.97    1644.67
 59.07    1632.00
 59.17    1566.10
 59.27    1408.89
 59.37    1342.00
 59.47    1307.90
 59.57    1214.00
 59.67    1192.00
 59.77    1146.00
 59.87    1281.00
 59.97    1284.00
 60.07    1440.00
 60.17    1463.00
 60.27    1542.00
 60.37    1567.64
 60.47    1520.00
 60.57    1317.00
 60.67    1085.00
 60.77     891.00
 60.87     762.45
 60.97     669.00
 61.07     645.00
 61.17     675.77
 61.27     679.00
 61.37     653.00
 61.47     669.00
 61.57     771.00
 61.67     872.62
 61.77     936.00
 61.87    1092.00
 61.97    1195.00
 62.07    1353.00
 62.17    1443.00
 62.27    1479.86
 62.37    1337.00
 62.47    1147.00
 62.57    1076.00
 62.67     949.00
 62.77     800.64
 62.87     677.00
 62.97     621.00
 63.07     565.00
 63.17     600.00
 63.27     617.13
 63.37     584.47
 63.47     556.18
 63.57     611.00
 63.67     561.55
 63.77     593.00
 63.87     607.54
 63.97     629.00
 64.07     694.94
 64.17     759.00
 64.27     804.69
 64.37     942.84
 64.47     937.47
 64.57     969.90
 64.67    1074.70
 64.77     973.67
 64.87     930.84
 64.97     839.00
 65.07     860.77
 65.17     744.20
 65.27     778.00
 65.37     710.00
 65.47     606.23
 65.57     625.00
 65.67     571.00
 65.77     559.85
 65.87     623.00
 65.97     554.00
 66.07     582.00
 66.17     556.00
 66.27     559.00
 66.37     543.30
 66.47     537.25
 66.57     511.00
 66.67     543.00
 66.77     564.00
 66.87     582.00
 66.97     576.00
 67.07     653.00
 67.17     685.45
 67.27     711.00
 67.37     867.62
 67.47    1048.00
 67.57    1213.70
 67.67    1545.63
 67.77    1836.48
 67.87    2106.52
 67.97    2352.16
 68.07    2411.49
 68.17    2395.00
 68.27    2258.00
 68.37    2022.00
 68.47    1837.00
 68.57    1523.00
 68.67    1331.00
 68.77    1023.00
 68.87     868.18
 68.97     774.00
 69.07     711.44
 69.17     678.00
 69.27     669.00
 69.37     598.00
 69.47     595.00
 69.57     594.00
 69.67     576.00
 69.77     590.00
 69.87     565.00
 69.97     544.05
 70.07     526.02
 70.17     584.00
 70.27     549.00
 70.37     551.00
 70.47     609.50
 70.57     570.00
 70.67     563.46
 70.77     601.43
 70.87     588.00
 70.97     593.00
 71.07     679.00
 71.17     713.00
 71.27     803.00
 71.37     928.00
 71.47    1032.17
 71.57    1295.00
 71.67    1275.00
 71.77    1579.00
 71.87    1750.00
 71.97    1884.00
 72.07    1906.63
 72.17    1895.37
 72.27    1719.00
 72.37    1688.00
 72.47    1583.00
 72.57    1429.00
 72.67    1158.81
 72.77    1087.00
 72.87     992.00
 72.97     900.00
 73.07     808.00
 73.17     818.16
 73.27     733.00
 73.37     773.42
 73.47     694.54
 73.57     656.49
 73.67     590.00
 73.77     593.00
 73.87     578.00
 73.97     614.00
 74.07     561.00
 74.17     604.00
 74.27     528.27
 74.37     602.00
 74.47     656.00
 74.57     615.00
 74.67     546.46
 74.77     607.13
 74.87     594.40
 74.97     619.00
 75.07     568.00
 75.17     547.90
 75.27     560.00
 75.37     530.00
 75.47     533.28
 75.57     539.58
 75.67     590.00
 75.77     585.51
 75.87     545.85
 75.97     652.26
 76.07     662.83
 76.17     660.00
 76.27     703.00
 76.37     634.00
 76.47     697.00
 76.57     702.00
 76.67     671.00
 76.77     708.75
 76.87     664.91
 76.97     656.00
 77.07     613.42
 77.17     587.17
 77.27     578.00
 77.37     537.00
 77.47     519.45
 77.57     515.00
 77.67     511.00
 77.77     490.00
 77.87     534.00
 77.97     493.00
 78.07     507.00
 78.17     505.00
 78.27     520.00
 78.37     511.31
 78.47     512.15
 78.57     577.00
 78.67     470.00
 78.77     483.97
 78.87     539.00
 78.97     499.87
 79.07     524.00
 79.17     560.09
 79.27     492.00
 79.37     497.00
 79.47     492.00
 79.57     539.00
 79.67     570.00
 79.77     516.00
 79.87     525.82
 79.97     529.00
 80.07     550.00
 80.17     558.92
 80.27     568.00
 80.37     552.18
 80.47     614.00
 80.57     575.00
 80.67     600.46
 80.77     644.19
 80.87     697.82
 80.97     646.00
 81.07     683.00
 81.17     704.00
 81.27     771.66
 81.37     736.00
 81.47     783.00
 81.57     740.00
 81.67     763.00
 81.77     685.85
 81.87     732.00
 81.97     751.00
 82.07     638.00
 82.17     686.00
 82.27     636.00
 82.37     643.00
 82.47     582.90
 82.57     598.00
 82.67     621.49
 82.77     583.00
 82.87     558.00
 82.97     601.31
 83.07     591.27
 83.17     584.23
 83.27     554.00
 83.37     557.00
 83.47     588.53
 83.57     590.72
 83.67     606.78
 83.77     569.34
 83.87     554.00
 83.97     543.00
 84.07     562.00
 84.17     553.00
 84.27     520.00
 84.37     599.00
 84.47     530.00
 84.57     577.00
 84.67     539.00
 84.77     588.00
 84.87     543.00
 84.97     572.00
 85.07     535.75
 85.17     536.00
 85.27     534.00
 85.37     552.00
 85.47     504.00
 85.57     531.00
 85.67     541.00
 85.77     511.00
 85.87     505.00
 85.97     544.00
 86.07     565.83
 86.17     537.00
 86.27     526.52
 86.37     533.00
 86.47     578.25
 86.57     610.00
 86.67     517.00
 86.77     623.00
 86.87     558.00
 86.97     646.00
 87.07     628.14
 87.17     596.00
 87.27     631.00
 87.37     637.00
 87.47     689.00
 87.57     665.90
 87.67     665.00
 87.77     589.69
 87.87     627.00
 87.97     562.00
 88.07     555.08
 88.17     584.00
 88.27     617.00
 88.37     590.00
 88.47     584.00
 88.57     587.00
 88.67     582.00
 88.77     577.00
 88.87     620.00
 88.97     631.24
 89.07     615.00
 89.17     596.00
 89.27     640.24
 89.37     580.00
 89.47     612.00
 89.57     615.00
 89.67     613.27
 89.77     546.37
 89.87     529.00
 89.97     538.53
 90.07     594.51
 90.17     533.28
 90.27     594.83
 90.37     562.00
 90.47     540.67
 90.57     517.27
 90.67     500.82
 90.77     521.41
 90.87     489.05
 90.97     493.63
 91.07     558.49
 91.17     534.00
 91.27     494.24
 91.37     527.13
 91.47     539.00
 91.57     542.00
 91.67     565.74
 91.77     536.21
 91.87     525.00
 91.97     592.92
 92.07     564.00
 92.17     554.68
 92.27     567.42
 92.37     622.00
 92.47     627.00
 92.57     636.00
 92.67     682.00
 92.77     651.24
 92.87     761.00
 92.97     708.00
 93.07     770.00
 93.17     764.00
 93.27     797.00
 93.37     791.00
 93.47     860.00
 93.57     843.00
 93.67     785.03
 93.77     838.00
 93.87     833.00
 93.97     857.00
 94.07     854.00
 94.17     868.00
 94.27     827.56
 94.37     847.70
 94.47     902.00
 94.57     946.00
 94.67     859.78
 94.77     874.79
 94.87     830.44
 94.97     874.51
 95.07     929.00
 95.17     823.42
 95.27     864.00
 95.37     797.00
 95.47     747.00
 95.57     778.37
 95.67     775.00
 95.77     739.00
 95.87     688.49
 95.97     708.00
 96.07     662.00
 96.17     676.00
 96.27     723.00
 96.37     719.75
 96.47     831.00
 96.57     838.00
 96.67     898.00
 96.77     985.66
 96.87    1045.00
 96.97    1156.00
 97.07    1219.00
 97.17    1273.73
 97.27    1367.00
 97.37    1387.00
 97.47    1397.00
 97.57    1467.00
 97.67    1401.00
 97.77    1368.00
 97.87    1361.00
 97.97    1312.00
 98.07    1239.00
 98.17    1150.00
 98.27    1010.00
 98.37    1011.45
 98.47    1000.48
 98.57     926.00
 98.67     870.20
 98.77     806.00
 98.87     787.22
 98.97     758.04
 99.07     746.00
 99.17     852.10
 99.27     844.00
 99.37     932.00
 99.47     988.00
 99.57    1149.21
 99.67    1244.49
 99.77    1313.29
 99.87    1473.00
 99.97    1472.61
100.07    1562.48
100.17    1797.40
100.27    1841.00
100.37    2006.89
100.47    1993.44
100.57    2125.00
100.67    2082.24
100.77    2084.00
100.87    2129.00
100.97    2038.09
101.07    1915.95
101.17    1854.41
101.27    1743.62
101.37    1782.58
101.47    1616.00
101.57    1516.85
101.67    1480.00
101.77    1317.10
101.87    1276.25
101.97    1222.36
102.07    1215.00
102.17    1134.00
102.27    1094.00
102.37    1091.00
102.47    1058.00
102.57    1134.00
102.67    1078.59
102.77    1035.92
102.87    1017.00
102.97     932.00
103.07     878.00
103.17     886.00
103.27     837.31
103.37     834.00
103.47     801.00
103.57     810.00
103.67     735.55
103.77     659.00
103.87     628.10
103.97     606.00
104.07     616.00
104.17     584.00
104.27     595.00
104.37     603.97
104.47     577.00
104.57     575.00
104.67     551.02
104.77     556.00
104.87     577.12
104.97     572.47
105.07     540.55
105.17     593.00
105.27     578.80
105.37     531.00
105.47     523.00
105.57     534.06
105.67     507.00
105.77     536.00
105.87     567.70
105.97     555.00
106.07     593.00
106.17     591.00
106.27     592.00
106.37     647.56
106.47     606.00
106.57     647.00
106.67     626.00
106.77     663.74
106.87     643.00
106.97     653.00
107.07     655.00
107.17     701.00
107.27     705.00
107.37     657.00
107.47     674.00
107.57     713.00
107.67     691.00
107.77     656.12
107.87     704.06
107.97     704.00
108.07     699.00
108.17     672.46
108.27     671.00
108.37     695.00
108.47     692.52
108.57     665.65
108.67     687.00
108.77     701.00
108.87     705.00
108.97     710.76
109.07     664.00
109.17     675.00
109.27     655.68
109.37     637.55
109.47     652.00
109.57     619.00
109.67     644.00
109.77     569.93
109.87     619.00
109.97     583.10
110.07     588.61
110.17     573.69
110.27     587.00
110.37     548.00
110.47     578.54
110.57     586.85
110.67     525.00
110.77     553.00
110.87     535.18
110.97     499.62
111.07     542.00
111.17     572.22
111.27     524.34
111.37     543.00
111.47     553.00
111.57     529.00
111.67     557.77
111.77     560.00
111.87     506.00
111.97     618.00
112.07     542.00
112.17     525.00
112.27     623.32
112.37     614.96
112.47     594.00
112.57     570.26
112.67     628.00
112.77     635.00
112.87     617.00
112.97     670.00
113.07     655.12
113.17     727.00
113.27     738.00
113.37     747.76
113.47     797.00
113.57     844.44
113.67     906.00
113.77     899.00
113.87     933.00
113.97    1008.02
114.07    1042.16
114.17    1179.99
114.27    1239.80
114.37    1268.45
114.47    1316.59
114.57    1493.70
114.67    1628.00
114.77    1780.00
114.87    1956.00
114.97    2129.00
115.07    2326.49
115.17    2535.00
115.27    2868.00
115.37    3089.00
115.47    3363.14
115.57    3818.00
115.67    4120.00
115.77    4390.00
115.87    4742.00
115.97    5162.00
116.07    5638.00
116.17    6065.00
116.27    6287.00
116.37    6578.00
116.47    6879.51
116.57    6949.00
116.67    7079.04
116.77    6954.00
116.87    6719.44
116.97    6780.00
117.07    6644.00
117.17    6191.00
117.27    5658.00
117.37    5346.08
117.47    5016.00
117.57    4751.76
117.67    4243.00
117.77    3904.00
117.87    3662.00
117.97    3252.00
118.07    2828.95
118.17    2557.00
118.27    2304.00
118.37    1945.00
118.47    1783.00
118.57    1588.41
118.67    1338.00
118.77    1202.00
118.87    1148.14
118.97    1052.00
119.07     953.00
119.17     869.00
119.27     869.85
119.37     771.00
119.47     703.00
119.57     731.11
119.67     663.00
119.77     617.00
119.87     641.00
119.97     655.00
120.07     647.79
120.17     577.35
120.27     601.00
120.37     639.04
120.47     633.37
120.57     591.51
120.67     604.53
120.77     591.18
120.87     549.35
120.97     582.00
121.07     539.82
121.17     552.00
121.27     574.00
121.37     569.00
121.47     572.00
121.57     580.40
121.67     602.00
121.77     622.00
121.87     614.00
121.97     643.00
122.07     610.15
122.17     610.00
122.27     591.07
122.37     647.00
122.47     606.00
122.57     620.00
122.67     627.39
122.77     628.00
122.87     660.07
122.97     679.00
123.07     654.00
123.17     680.08
123.27     675.00
123.37     664.00
123.47     592.95
123.57     675.50
123.67     636.00
123.77     582.00
123.87     643.70
123.97     639.35
124.07     665.00
124.17     650.00
124.27     643.00
124.37     620.94
124.47     645.96
124.57     581.00
124.67     647.00
124.77     599.00
124.87     551.79
124.97     587.00
