  9.97     707.00
 10.07     738.00
 10.17     732.07
 10.27     716.00
 10.37     709.25
 10.47     672.43
 10.57     704.69
 10.67     691.00
 10.77     746.23
 10.87     755.43
 10.97     731.00
 11.07     668.00
 11.17     714.79
 11.27     660.00
 11.37     780.00
 11.47     716.00
 11.57     756.79
 11.67     741.00
 11.77     658.68
 11.87     753.00
 11.97     844.00
 12.07     834.00
 12.17     862.00
 12.27     835.00
 12.37     879.00
 12.47     825.24
 12.57     778.00
 12.67     729.00
 12.77     757.00
 12.87     719.00
 12.97     659.57
 13.07     661.00
 13.17     686.00
 13.27     683.00
 13.37     654.00
 13.47     614.00
 13.57     686.00
 13.67     697.29
 13.77     691.00
 13.87     692.00
 13.97     712.20
 14.07     707.00
 14.17     637.24
 14.27     658.00
 14.37     635.00
 14.47     670.00
 14.57     680.05
 14.67     664.00
 14.77     659.00
 14.87     694.39
 14.97     686.00
 15.07     641.00
 15.17     658.00
 15.27     623.10
 15.37     615.68
 15.47     652.90
 15.57     657.00
 15.67     606.00
 15.77     639.00
 15.87     692.00
 15.97     627.00
 16.07     678.13
 16.17     650.00
 16.27     670.47
 16.37     603.00
 16.47     703.36
 16.57     664.00
 16.67     670.00
 16.77     632.00
 16.87     689.00
 16.97     589.00
 17.07     597.00
 17.17     625.00
 17.27     610.00
 17.37     629.67
 17.47     597.00
 17.57     654.00
 17.67     628.00
 17.77     627.00
 17.87     628.00
 17.97     645.00
 18.07     627.00
 18.17     652.74
 18.27     654.00
 18.37     696.00
 18.47     627.00
 18.57     688.95
 18.67     634.00
 18.77     646.00
 18.87     680.56
 18.97     612.00
 19.07     634.00
 19.17     644.00
 19.27     598.73
 19.37     645.00
 19.47     654.26
 19.57     599.00
 19.67     627.00
 19.77     645.80
 19.87     611.00
 19.97     666.61
 20.07     653.22
 20.17     582.00
 20.27     593.15
 20.37     671.26
 20.47     675.54
 20.57     646.38
 20.67     628.00
 20.77     621.00
 20.87     596.00
 20.97     637.00
 21.07     622.00
 21.17     651.03
 21.27     593.51
 21.37     566.00
 21.47     590.86
 21.57     657.64
 21.67     618.00
 21.77     620.46
 21.87     639.45
 21.97     644.00
 22.07     641.00
 22.17     642.83
 22.27     647.00
 22.37     672.90
 22.47     637.00
 22.57     656.31
 22.67     657.00
 22.77     668.54
 22.87     656.00
 22.97     652.00
 23.07     601.00
 23.17     595.40
 23.27     590.00
 23.37     638.00
 23.47     588.97
 23.57     631.00
 23.67     576.25
 23.77     665.00
 23.87     659.36
 23.97     580.00
 24.07     595.03
 24.17     645.00
 24.27     600.00
 24.37     614.34
 24.47     626.00
 24.57     626.00
 24.67     697.00
 24.77     704.58
 24.87     697.55
 24.97     723.00
 25.07     713.00
 25.17     692.40
 25.27     662.84
 25.37     623.04
 25.47     639.00
 25.57     671.72
 25.67     632.00
 25.77     630.00
 25.87     615.97
 25.97     637.99
 26.07     649.00
 26.17     611.65
 26.27     630.45
 26.37     681.22
 26.47     654.34
 26.57     635.00
 26.67     654.00
 26.77     698.56
 26.87     676.00
 26.97     702.00
 27.07     675.00
 27.17     672.92
 27.27     720.77
 27.37     701.00
 27.47     739.22
 27.57     787.00
 27.67     829.00
 27.77     941.76
 27.87     986.90
 27.97    1350.60
 28.07    1973.00
 28.17    3176.00
 28.27    5206.90
 28.37    7038.00
 28.47    7729.00
 28.57    7019.00
 28.67    5239.00
 28.77    3976.00
 28.87    3268.00
 28.97    3624.00
 29.07    4025.00
 29.17    4376.00
 29.27    3806.00
 29.37    3043.27
 29.47    2073.70
 29.57    1535.00
 29.67    1132.00
 29.77     958.67
 29.87     885.71
 29.97     813.00
 30.07     787.10
 30.17     711.45
 30.27     654.35
 30.37     716.11
 30.47     664.71
 30.57     726.00
 30.67     689.00
 30.77     689.00
 30.87     683.00
 30.97     725.00
 31.07     733.00
 31.17     750.00
 31.27     705.04
 31.37     776.00
 31.47     684.00
 31.57     667.00
 31.67     688.00
 31.77     711.00
 31.87     581.80
 31.97     664.42
 32.07     580.92
 32.17     637.00
 32.27     633.00
 32.37     608.00
 32.47     605.00
 32.57     646.99
 32.67     626.00
 32.77     627.00
 32.87     656.00
 32.97     677.00
 33.07     633.00
 33.17     591.00
 33.27     598.31
 33.37     680.00
 33.47     627.00
 33.57     650.57
 33.67     637.00
 33.77     695.49
 33.87     737.00
 33.97     881.29
 34.07    1010.00
 34.17    1123.00
 34.27    1189.44
 34.37    1231.00
 34.47    1169.43
 34.57     963.00
 34.67     852.99
 34.77     763.00
 34.87     688.00
 34.97     694.00
 35.07     677.00
 35.17     630.00
 35.27     687.00
 35.37     576.64
 35.47     624.54
 35.57     609.69
 35.67     608.00
 35.77     647.00
 35.87     595.00
 35.97     572.46
 36.07     591.00
 36.17     601.00
 36.27     635.67
 36.37     598.00
 36.47     620.67
 36.57     610.00
 36.67     620.15
 36.77     544.81
 36.87     604.00
 36.97     589.00
 37.07     553.54
 37.17     588.00
 37.27     563.00
 37.37     564.00
 37.47     579.18
 37.57     676.00
 37.67     644.00
 37.77     650.00
 37.87     637.00
 37.97     665.55
 38.07     690.30
 38.17     727.89
 38.27     699.00
 38.37     725.48
 38.47     686.00
 38.57     683.99
 38.67     654.55
 38.77     621.02
 38.87     639.00
 38.97     609.00
 39.07     632.00
 39.17     577.65
 39.27     592.11
 39.37     579.00
 39.47     579.00
 39.57     580.85
 39.67     567.00
 39.77     538.63
 39.87     622.00
 39.97     568.00
 40.07     622.00
 40.17     606.00
 40.27     553.00
 40.37     588.00
 40.47     543.00
 40.57     555.00
 40.67     545.13
 40.77     569.61
 40.87     543.60
 40.97     599.00
 41.07     577.00
 41.17     556.00
 41.27     614.00
 41.37     556.00
 41.47     592.55
 41.57     551.00
 41.67     610.19
 41.77     582.00
 41.87     580.32
 41.97     609.00
 42.07     548.15
 42.17     567.00
 42.27     598.00
 42.37     561.00
 42.47     593.00
 42.57     590.00
 42.67     638.00
 42.77     702.35
 42.87     620.00
 42.97     678.00
 43.07     668.61
 43.17     692.00
 43.27     698.76
 43.37     645.00
 43.47     655.00
 43.57     637.00
 43.67     643.84
 43.77     588.02
 43.87     614.00
 43.97     646.00
 44.07     622.00
 44.17     625.00
 44.27     617.00
 44.37     555.90
 44.47     599.00
 44.57     619.00
 44.67     601.00
 44.77     549.62
 44.87     600.00
 44.97     609.83
 45.07     562.58
 45.17     608.00
 45.27     556.36
 45.37     549.20
 45.47     581.00
 45.57     555.00
 45.67     594.00
 45.77     589.00
 45.87     614.00
 45.97     574.00
 46.07     545.00
 46.17     596.00
 46.27     580.00
 46.37     580.59
 46.47     582.00
 46.57     615.32
 46.67     597.00
 46.77     633.08
 46.87     567.00
 46.97     577.68
 47.07     629.00
 47.17     581.00
 47.27     600.00
 47.37     601.00
 47.47     615.70
 47.57     577.45
 47.67     645.00
 47.77     609.00
 47.87     616.00
 47.97     617.00
 48.07     676.22
 48.17     681.00
 48.27     698.00
 48.37     722.00
 48.47     705.00
 48.57     684.00
 48.67     659.86
 48.77     613.36
 48.87     622.00
 48.97     680.96
 49.07     620.62
 49.17     635.00
 49.27     633.36
 49.37     689.00
 49.47     675.61
 49.57     655.00
 49.67     707.00
 49.77     773.00
 49.87     865.34
 49.97     981.00
 50.07    1250.00
 50.17    1557.00
 50.27    2041.53
 50.37    2570.00
 50.47    2906.00
 50.57    3054.52
 50.67    2962.58
 50.77    2595.00
 50.87    2166.00
 50.97    1634.00
 51.07    1250.74
 51.17    1088.28
 51.27    1006.00
 51.37     852.00
 51.47     839.00
 51.57     777.00
 51.67     752.18
 51.77     752.16
 51.87     702.00
 51.97     703.49
 52.07     633.93
 52.17     680.00
 52.27     704.18
 52.37     645.84
 52.47     696.00
 52.57     687.00
 52.67     698.83
 52.77     685.00
 52.87     623.11
 52.97     623.91
 53.07     690.34
 53.17     713.00
 53.27     749.92
 53.37     788.00
 53.47     863.00
 53.57     991.26
 53.67    1066.19
 53.77    1152.00
 53.87    1231.56
 53.97    1281.00
 54.07    1257.00
 54.17    1179.00
 54.27    1135.00
 54.37     955.00
 54.47     869.00
 54.57     830.62
 54.67     766.00
 54.77     744.00
 54.87     714.00
 54.97     727.63
 55.07     688.64
 55.17     648.00
 55.27     620.77
 55.37     675.00
 55.47     692.40
 55.57     688.00
 55.67     661.00
 55.77     634.00
 55.87     634.00
 55.97     638.14
 56.07     724.00
 56.17     692.71
 56.27     716.42
 56.37     793.00
 56.47     814.00
 56.57     887.00
 56.67    1026.00
 56.77    1211.00
 56.87    1510.44
 56.97    1904.69
 57.07    2216.00
 57.17    2419.00
 57.27    2601.51
 57.37    2696.00
 57.47    2504.88
 57.57    2263.72
 57.67    1963.00
 57.77    1691.63
 57.87    1370.03
 57.97    1104.00
 58.07    1003.00
 58.17     851.88
 58.27     809.00
 58.37     785.00
 58.47     800.00
 58.57     829.00
 58.67     810.00
 58.77     971.97
 58.87    1055.75
 58.97    1055.16
 59.07    1150.00
 59.17    1257.00
 59.27    1269.00
 59.37    1365.00
 59.47    1313.27
 59.57    1275.00
 59.67    1303.81
 59.77    1285.04
 59.87    1200.69
 59.97    1226.00
 60.07    1260.52
 60.17    1244.00
 60.27    1362.86
 60.37    1424.38
 60.47    1474.00
 60.57    1540.00
 60.67    1549.00
 60.77    1589.69
 60.87    1556.59
 60.97    1407.70
 61.07    1271.36
 61.17    1123.00
 61.27     990.00
 61.37     944.51
 61.47     889.81
 61.57     842.07
 61.67     790.00
 61.77     847.00
 61.87     832.00
 61.97     960.11
 62.07    1074.00
 62.17    1102.00
 62.27    1258.48
 62.37    1510.00
 62.47    1529.00
 62.57    1663.00
 62.67    1701.00
 62.77    1702.00
 62.87    1642.66
 62.97    1455.51
 63.07    1341.95
 63.17    1099.88
 63.27     997.60
 63.37     874.00
 63.47     854.00
 63.57     777.00
 63.67     792.00
 63.77     728.00
 63.87     770.00
 63.97     742.60
 64.07     764.89
 64.17     744.00
 64.27     794.71
 64.37     789.00
 64.47     857.00
 64.57     874.00
 64.67    1040.00
 64.77    1071.37
 64.87    1211.38
 64.97    1389.00
 65.07    1481.00
 65.17    1517.00
 65.27    1472.51
 65.37    1420.93
 65.47    1389.00
 65.57    1336.00
 65.67    1224.00
 65.77    1129.90
 65.87     981.65
 65.97     940.00
 66.07     854.91
 66.17     787.00
 66.27     781.37
 66.37     739.00
 66.47     703.00
 66.57     738.32
 66.67     638.00
 66.77     654.00
 66.87     701.00
 66.97     720.00
 67.07     693.00
 67.17     669.00
 67.27     698.00
 67.37     754.00
 67.47     757.00
 67.57     833.39
 67.67     894.93
 67.77     948.68
 67.87    1006.00
 67.97    1196.00
 68.07    1360.00
 68.17    1571.67
 68.27    1881.32
 68.37    2118.00
 68.47    2367.63
 68.57    2401.56
 68.67    2605.00
 68.77    2566.00
 68.87    2311.00
 68.97    2170.00
 69.07    1833.00
 69.17    1601.00
 69.27    1433.00
 69.37    1125.41
 69.47     985.03
 69.57     935.00
 69.67     945.00
 69.77     745.97
 69.87     772.00
 69.97     768.30
 70.07     765.00
 70.17     719.00
 70.27     715.00
 70.37     709.00
 70.47     690.00
 70.57     707.00
 70.67     680.42
 70.77     716.64
 70.87     688.00
 70.97     680.00
 71.07     682.00
 71.17     682.00
 71.27     717.66
 71.37     772.85
 71.47     805.08
 71.57     771.00
 71.67     854.00
 71.77     968.93
 71.87     996.75
 71.97    1145.90
 72.07    1310.00
 72.17    1391.27
 72.27    1638.35
 72.37    1811.52
 72.47    1901.00
 72.57    1863.00
 72.67    1911.51
 72.77    1885.00
 72.87    1884.84
 72.97    1680.00
 73.07    1481.00
 73.17    1351.00
 73.27    1270.19
 73.37    1013.00
 73.47     902.00
 73.57     864.00
 73.67     770.14
 73.77     765.00
 73.87     703.00
 73.97     661.34
 74.07     707.00
 74.17     690.26
 74.27     704.09
 74.37     642.30
 74.47     675.50
 74.57     664.00
 74.67     691.00
 74.77     652.00
 74.87     675.00
 74.97     695.00
 75.07     727.00
 75.17     708.00
 75.27     655.47
 75.37     744.00
 75.47     700.00
 75.57     654.42
 75.67     705.00
 75.77     700.00
 75.87     698.00
 75.97     629.47
 76.07     678.58
 76.17     664.00
 76.27     724.00
 76.37     697.00
 76.47     730.00
 76.57     735.00
 76.67     836.00
 76.77     830.00
 76.87     879.00
 76.97     974.20
 77.07     941.90
 77.17    1000.82
 77.27     994.00
 77.37    1057.00
 77.47     895.78
 77.57     866.00
 77.67     844.00
 77.77     786.00
 77.87     807.00
 77.97     696.00
 78.07     676.00
 78.17     661.44
 78.27     642.00
 78.37     638.06
 78.47     626.00
 78.57     631.14
 78.67     603.61
 78.77     605.72
 78.87     650.00
 78.97     579.00
 79.07     613.00
 79.17     576.98
 79.27     611.00
 79.37     604.00
 79.47     602.00
 79.57     555.00
 79.67     666.04
 79.77     598.21
 79.87     587.00
 79.97     595.52
 80.07     594.00
 80.17     676.77
 80.27     648.06
 80.37     639.00
 80.47     654.56
 80.57     676.00
 80.67     749.24
 80.77     752.76
 80.87     781.22
 80.97     904.00
 81.07     955.00
 81.17    1049.00
 81.27    1052.60
 81.37    1210.00
 81.47    1337.00
 81.57    1300.00
 81.67    1438.00
 81.77    1427.00
 81.87    1281.97
 81.97    1379.00
 82.07    1409.00
 82.17    1167.60
 82.27    1200.00
 82.37    1153.00
 82.47    1058.00
 82.57    1039.16
 82.67     893.12
 82.77     871.26
 82.87     820.00
 82.97     789.00
 83.07     814.95
 83.17     696.00
 83.27     696.80
 83.37     649.00
 83.47     644.46
 83.57     608.00
 83.67     666.51
 83.77     674.53
 83.87     653.00
 83.97     575.00
 84.07     599.00
 84.17     585.00
 84.27     641.78
 84.37     680.00
 84.47     668.00
 84.57     654.00
 84.67     661.00
 84.77     608.00
 84.87     675.00
 84.97     682.94
 85.07     613.00
 85.17     677.00
 85.27     625.00
 85.37     629.00
 85.47     606.04
 85.57     611.98
 85.67     609.00
 85.77     637.00
 85.87     643.00
 85.97     627.00
 86.07     599.00
 86.17     654.00
 86.27     628.00
 86.37     626.00
 86.47     637.00
 86.57     621.73
 86.67     622.00
 86.77     673.00
 86.87     681.00
 86.97     654.77
 87.07     660.82
 87.17     651.00
 87.27     630.59
 87.37     697.27
 87.47     707.00
 87.57     724.14
 87.67     676.79
 87.77     737.70
 87.87     676.26
 87.97     752.00
 88.07     724.00
 88.17     668.47
 88.27     696.00
 88.37     705.75
 88.47     749.00
 88.57     725.00
 88.67     725.00
 88.77     730.61
 88.87     701.00
 88.97     692.00
 89.07     644.00
 89.17     672.00
 89.27     677.00
 89.37     606.18
 89.47     611.00
 89.57     634.00
 89.67     645.00
 89.77     687.60
 89.87     635.00
 89.97     679.07
 90.07     746.00
 90.17     670.70
 90.27     738.00
 90.37     670.00
 90.47     642.37
 90.57     650.06
 90.67     687.21
 90.77     640.16
 90.87     647.72
 90.97     616.00
 91.07     616.60
 91.17     680.00
 91.27     602.00
 91.37     618.00
 91.47     596.00
 91.57     601.00
 91.67     583.00
 91.77     580.00
 91.87     566.00
 91.97     570.00
 92.07     588.00
 92.17     568.97
 92.27     626.00
 92.37     570.67
 92.47     598.68
 92.57     592.00
 92.67     597.00
 92.77     579.00
 92.87     631.95
 92.97     684.03
 93.07     630.54
 93.17     650.00
 93.27     673.00
 93.37     676.03
 93.47     744.00
 93.57     697.68
 93.67     730.74
 93.77     785.00
 93.87     823.76
 93.97     813.00
 94.07     797.00
 94.17     827.64
 94.27     897.00
 94.37     787.00
 94.47     845.00
 94.57     940.00
 94.67     883.64
 94.77     947.45
 94.87     905.00
 94.97    1000.91
 95.07    1018.45
 95.17    1042.97
 95.27    1020.30
 95.37    1064.00
 95.47    1101.00
 95.57     993.10
 95.67    1056.65
 95.77    1014.00
 95.87    1051.76
 95.97    1043.38
 96.07     968.00
 96.17     915.40
 96.27     919.00
 96.37     870.00
 96.47     899.00
 96.57     845.79
 96.67     778.01
 96.77     832.00
 96.87     839.00
 96.97     861.00
 97.07     839.86
 97.17     857.25
 97.27     872.25
 97.37     917.33
 97.47    1041.00
 97.57    1119.29
 97.67    1183.00
 97.77    1247.00
 97.87    1354.69
 97.97    1324.00
 98.07    1357.00
 98.17    1547.95
 98.27    1491.00
 98.37    1565.00
 98.47    1604.00
 98.57    1615.00
 98.67    1582.20
 98.77    1483.00
 98.87    1398.61
 98.97    1415.48
 99.07    1326.00
 99.17    1338.78
 99.27    1230.00
 99.37    1156.49
 99.47    1077.00
 99.57    1070.00
 99.67    1015.00
 99.77     946.49
 99.87     974.00
 99.97    1058.00
100.07    1076.00
100.17    1020.36
100.27    1093.00
100.37    1123.88
100.47    1182.00
100.57    1300.00
100.67    1319.30
100.77    1468.00
100.87    1655.00
100.97    1748.00
101.07    1707.33
101.17    1789.70
101.27    1929.00
101.37    1948.00
101.47    1947.66
101.57    2052.00
101.67    2121.00
101.77    2166.00
101.87    2152.00
101.97    2117.00
102.07    2063.00
102.17    1965.91
102.27    1954.00
102.37    1802.99
102.47    1792.58
102.57    1738.18
102.67    1638.00
102.77    1591.00
102.87    1535.34
102.97    1456.00
103.07    1332.00
103.17    1359.59
103.27    1382.90
103.37    1273.00
103.47    1270.00
103.57    1203.00
103.67    1285.00
103.77    1231.14
103.87    1208.12
103.97    1103.00
104.07    1086.00
104.17     996.00
104.27    1008.55
104.37     935.00
104.47     911.46
104.57     876.00
104.67     839.00
104.77     796.00
104.87     805.00
104.97     778.00
105.07     754.00
105.17     687.07
105.27     671.00
105.37     659.00
105.47     668.00
105.57     670.00
105.67     620.00
105.77     638.00
105.87     612.00
105.97     617.00
106.07     633.41
106.17     553.74
106.27     619.00
106.37     582.00
106.47     649.24
106.57     582.43
106.67     567.57
106.77     636.00
106.87     644.04
106.97     658.38
107.07     686.82
107.17     605.12
107.27     653.00
107.37     669.00
107.47     733.00
107.57     695.00
107.67     708.00
107.77     798.00
107.87     699.83
107.97     742.00
108.07     769.48
108.17     745.56
108.27     804.80
108.37     828.26
108.47     758.27
108.57     763.00
108.67     768.00
108.77     735.56
108.87     754.08
108.97     812.66
109.07     768.00
109.17     717.00
109.27     708.00
109.37     745.00
109.47     735.00
109.57     762.70
109.67     805.27
109.77     779.00
109.87     778.00
109.97     817.92
110.07     800.52
110.17     780.00
110.27     758.00
110.37     734.00
110.47     779.00
110.57     733.00
110.67     722.00
110.77     685.00
110.87     759.69
110.97     677.00
111.07     645.13
111.17     646.05
111.27     670.00
111.37     678.00
111.47     676.00
111.57     590.90
111.67     653.00
111.77     620.00
111.87     663.00
111.97     624.00
112.07     602.84
112.17     583.00
112.27     588.00
112.37     623.82
112.47     614.00
112.57     591.00
112.67     604.00
112.77     612.00
112.87     633.00
112.97     583.81
113.07     637.00
113.17     641.68
113.27     641.00
113.37     624.00
113.47     592.66
113.57     622.00
113.67     615.62
113.77     675.00
113.87     629.00
113.97     679.29
114.07     601.27
114.17     660.00
114.27     693.32
114.37     694.00
114.47     637.00
114.57     679.00
114.67     674.00
114.77     700.00
114.87     814.46
114.97     851.95
115.07     856.00
115.17     884.00
115.27     918.39
115.37     989.00
115.47    1058.00
115.57    1221.00
115.67    1328.98
115.77    1429.00
115.87    1634.00
115.97    1831.00
116.07    2155.00
116.17    2331.00
116.27    2617.00
116.37    2960.00
116.47    3239.00
116.57    3417.00
116.67    3882.00
116.77    4206.72
116.87    4664.00
116.97    4940.00
117.07    5329.00
117.17    6010.41
117.27    6327.00
117.37    6615.00
117.47    6830.00
117.57    7132.00
117.67    7362.00
117.77    7556.00
117.87    7501.00
117.97    7517.00
118.07    7415.00
118.17    7321.00
118.27    7069.00
118.37    6800.00
118.47    6341.00
118.57    5962.00
118.67    5701.00
118.77    5390.00
118.87    4955.00
118.97    4839.00
119.07    4404.93
119.17    4060.00
119.27    3578.18
119.37    3299.00
119.47    3037.00
119.57    2579.42
119.67    2446.61
119.77    2217.00
119.87    2022.00
119.97    1903.00
120.07    1701.00
120.17    1533.00
120.27    1340.57
120.37    1287.00
120.47    1252.00
120.57    1174.00
120.67    1057.00
120.77    1000.10
120.87     941.00
120.97     889.67
121.07     930.00
121.17     868.00
121.27     837.00
121.37     808.00
121.47     766.00
121.57     742.00
121.67     750.00
121.77     727.00
121.87     707.00
121.97     738.47
122.07     722.26
122.17     666.00
122.27     684.00
122.37     701.00
122.47     733.46
122.57     706.69
122.67     692.44
122.77     633.00
122.87     667.00
122.97     733.00
123.07     701.18
123.17     710.00
123.27     724.00
123.37     726.00
123.47     688.44
123.57     731.00
123.67     778.95
123.77     749.10
123.87     710.77
123.97     764.00
124.07     782.00
124.17     770.00
124.27     786.71
124.37     781.66
124.47     794.00
124.57     759.36
124.67     788.00
124.77     761.00
124.87     752.00
124.97     822.00
