  9.97     685.00
 10.07     667.00
 10.17     573.76
 10.27     689.00
 10.37     684.00
 10.47     683.00
 10.57     676.00
 10.67     649.50
 10.77     662.00
 10.87     591.55
 10.97     662.00
 11.07     625.00
 11.17     684.00
 11.27     678.00
 11.37     640.62
 11.47     649.00
 11.57     659.00
 11.67     713.00
 11.77     653.09
 11.87     719.00
 11.97     652.94
 12.07     693.22
 12.17     757.00
 12.27     752.00
 12.37     755.00
 12.47     697.00
 12.57     634.00
 12.67     703.17
 12.77     626.00
 12.87     650.77
 12.97     621.39
 13.07     659.00
 13.17     623.00
 13.27     636.00
 13.37     654.64
 13.47     620.00
 13.57     631.00
 13.67     619.25
 13.77     600.13
 13.87     614.20
 13.97     626.30
 14.07     639.00
 14.17     675.58
 14.27     627.00
 14.37     659.18
 14.47     608.08
 14.57     680.99
 14.67     624.32
 14.77     625.31
 14.87     588.08
 14.97     628.00
 15.07     576.86
 15.17     633.00
 15.27     655.74
 15.37     616.00
 15.47     619.00
 15.57     692.38
 15.67     615.00
 15.77     612.00
 15.87     594.00
 15.97     627.00
 16.07     633.52
 16.17     652.00
 16.27     622.30
 16.37     588.80
 16.47     691.45
 16.57     619.00
 16.67     654.00
 16.77     595.00
 16.87     681.04
 16.97     617.97
 17.07     614.00
 17.17     633.00
 17.27     584.00
 17.37     658.88
 17.47     626.01
 17.57     620.92
 17.67     663.42
 17.77     617.00
 17.87     606.00
 17.97     579.00
 18.07     621.00
 18.17     681.12
 18.27     588.21
 18.37     642.00
 18.47     658.75
 18.57     627.00
 18.67     592.72
 18.77     615.00
 18.87     597.33
 18.97     636.00
 19.07     571.00
 19.17     570.00
 19.27     611.00
 19.37     610.09
 19.47     570.00
 19.57     617.00
 19.67     615.94
 19.77     627.00
 19.87     595.00
 19.97     673.68
 20.07     616.26
 20.17     582.00
 20.27     574.00
 20.37     632.00
 20.47     583.00
 20.57     614.00
 20.67     613.00
 20.77     632.67
 20.87     589.00
 20.97     607.00
 21.07     630.69
 21.17     597.78
 21.27     625.00
 21.37     603.00
 21.47     600.00
 21.57     615.00
 21.67     596.87
 21.77     612.00
 21.87     671.28
 21.97     623.00
 22.07     618.00
 22.17     629.00
 22.27     601.00
 22.37     637.89
 22.47     602.71
 22.57     565.00
 22.67     590.00
 22.77     631.00
 22.87     581.86
 22.97     630.00
 23.07     573.20
 23.17     639.03
 23.27     614.07
 23.37     659.68
 23.47     627.00
 23.57     598.00
 23.67     613.00
 23.77     671.00
 23.87     683.00
 23.97     658.00
 24.07     626.88
 24.17     625.00
 24.27     656.60
 24.37     642.00
 24.47     649.31
 24.57     672.00
 24.67     678.00
 24.77     726.00
 24.87     749.14
 24.97     722.00
 25.07     696.00
 25.17     676.93
 25.27     616.99
 25.37     629.00
 25.47     666.00
 25.57     613.00
 25.67     666.00
 25.77     601.58
 25.87     607.92
 25.97     679.35
 26.07     668.00
 26.17     677.35
 26.27     725.00
 26.37     681.00
 26.47     659.00
 26.57     567.39
 26.67     697.00
 26.77     591.42
 26.87     677.00
 26.97     698.00
 27.07     725.00
 27.17     624.81
 27.27     741.00
 27.37     715.00
 27.47     747.00
 27.57     770.00
 27.67     768.00
 27.77     836.00
 27.87     783.00
 27.97     813.00
 28.07    1005.00
 28.17     999.25
 28.27    1161.15
 28.37    1353.38
 28.47    1299.35
 28.57    1183.00
 28.67    1014.00
 28.77     986.00
 28.87    1001.49
 28.97    1108.00
 29.07    1144.00
 29.17    1132.00
 29.27     942.44
 29.37     901.00
 29.47     905.00
 29.57     774.00
 29.67     795.00
 29.77     640.81
 29.87     756.00
 29.97     633.97
 30.07     729.00
 30.17     613.21
 30.27     695.00
 30.37     728.00
 30.47     608.08
 30.57     704.00
 30.67     666.00
 30.77     706.00
 30.87     651.01
 30.97     759.00
 31.07     715.92
 31.17     648.04
 31.27     688.00
 31.37     601.75
 31.47     709.00
 31.57     651.00
 31.67     657.00
 31.77     604.00
 31.87     637.43
 31.97     627.00
 32.07     654.35
 32.17     595.00
 32.27     550.06
 32.37     556.61
 32.47     678.00
 32.57     605.00
 32.67     575.00
 32.77     602.00
 32.87     610.00
 32.97     561.00
 33.07     658.74
 33.17     638.00
 33.27     629.00
 33.37     636.00
 33.47     647.73
 33.57     602.00
 33.67     663.00
 33.77     705.91
 33.87     745.88
 33.97     836.00
 34.07     961.48
 34.17    1039.22
 34.27    1043.00
 34.37     994.00
 34.47     836.82
 34.57     763.00
 34.67     716.00
 34.77     668.00
 34.87     622.00
 34.97     586.84
 35.07     625.33
 35.17     643.54
 35.27     598.16
 35.37     613.19
 35.47     573.79
 35.57     640.17
 35.67     587.66
 35.77     534.00
 35.87     600.20
 35.97     572.00
 36.07     617.00
 36.17     532.00
 36.27     493.00
 36.37     573.00
 36.47     569.00
 36.57     548.47
 36.67     509.40
 36.77     558.00
 36.87     585.29
 36.97     521.47
 37.07     538.68
 37.17     542.00
 37.27     592.00
 37.37     540.32
 37.47     575.00
 37.57     564.00
 37.67     549.89
 37.77     533.90
 37.87     595.00
 37.97     553.00
 38.07     532.00
 38.17     553.00
 38.27     503.00
 38.37     588.03
 38.47     546.00
 38.57     599.98
 38.67     550.00
 38.77     537.00
 38.87     539.64
 38.97     575.83
 39.07     552.95
 39.17     577.00
 39.27     575.00
 39.37     556.00
 39.47     523.73
 39.57     514.00
 39.67     548.00
 39.77     500.00
 39.87     531.00
 39.97     540.42
 40.07     521.00
 40.17     554.00
 40.27     495.00
 40.37     504.45
 40.47     519.00
 40.57     507.00
 40.67     601.53
 40.77     505.87
 40.87     550.73
 40.97     513.80
 41.07     529.00
 41.17     532.00
 41.27     514.00
 41.37     581.36
 41.47     507.00
 41.57     518.00
 41.67     536.00
 41.77     502.77
 41.87     522.00
 41.97     555.00
 42.07     569.00
 42.17     573.04
 42.27     531.00
 42.37     592.35
 42.47     564.00
 42.57     560.00
 42.67     584.00
 42.77     606.10
 42.87     679.74
 42.97     666.03
 43.07     601.00
 43.17     651.00
 43.27     543.00
 43.37     577.00
 43.47     569.78
 43.57     565.00
 43.67     550.59
 43.77     511.82
 43.87     521.00
 43.97     548.00
 44.07     594.95
 44.17     525.77
 44.27     572.35
 44.37     572.00
 44.47     559.00
 44.57     531.00
 44.67     486.97
 44.77     515.18
 44.87     512.00
 44.97     493.61
 45.07     500.87
 45.17     520.00
 45.27     480.43
 45.37     548.00
 45.47     518.00
 45.57     565.16
 45.67     531.00
 45.77     560.00
 45.87     584.13
 45.97     575.34
 46.07     580.02
 46.17     484.42
 46.27     575.90
 46.37     498.76
 46.47     543.00
 46.57     489.00
 46.67     541.00
 46.77     549.00
 46.87     562.00
 46.97     506.16
 47.07     602.00
 47.17     599.00
 47.27     525.00
 47.37     580.00
 47.47     553.78
 47.57     588.64
 47.67     562.00
 47.77     620.36
 47.87     656.00
 47.97     629.00
 48.07     639.00
 48.17     662.00
 48.27     606.34
 48.37     563.76
 48.47     582.00
 48.57     574.00
 48.67     584.00
 48.77     542.00
 48.87     597.00
 48.97     555.00
 49.07     616.58
 49.17     578.00
 49.27     635.00
 49.37     579.00
 49.47     584.00
 49.57     699.55
 49.67     685.00
 49.77     801.00
 49.87     934.00
 49.97    1129.51
 50.07    1389.77
 50.17    1770.00
 50.27    1971.90
 50.37    2302.93
 50.47    2384.00
 50.57    2218.00
 50.67    1806.00
 50.77    1489.00
 50.87    1159.00
 50.97    1033.91
 51.07     801.00
 51.17     813.49
 51.27     816.24
 51.37     698.00
 51.47     629.00
 51.57     648.00
 51.67     656.00
 51.77     600.63
 51.87     570.55
 51.97     644.18
 52.07     633.21
 52.17     557.10
 52.27     669.00
 52.37     582.00
 52.47     562.00
 52.57     579.00
 52.67     609.00
 52.77     649.00
 52.87     649.00
 52.97     671.00
 53.07     651.00
 53.17     752.00
 53.27     837.92
 53.37     889.00
 53.47    1031.00
 53.57    1161.00
 53.67    1237.00
 53.77    1216.00
 53.87    1234.00
 53.97    1163.55
 54.07    1027.00
 54.17     931.36
 54.27     761.00
 54.37     723.00
 54.47     650.52
 54.57     684.00
 54.67     596.65
 54.77     642.00
 54.87     664.00
 54.97     639.28
 55.07     571.06
 55.17     624.00
 55.27     645.00
 55.37     572.43
 55.47     562.00
 55.57     643.00
 55.67     586.00
 55.77     658.00
 55.87     679.95
 55.97     662.00
 56.07     685.71
 56.17     673.00
 56.27     773.37
 56.37     893.03
 56.47    1008.45
 56.57    1116.25
 56.67    1384.00
 56.77    1605.12
 56.87    2023.05
 56.97    2265.00
 57.07    2476.00
 57.17    2545.41
 57.27    2453.29
 57.37    2164.00
 57.47    1865.00
 57.57    1489.00
 57.67    1286.00
 57.77    1044.00
 57.87     887.00
 57.97     830.57
 58.07     734.40
 58.17     820.59
 58.27     711.17
 58.37     738.59
 58.47     782.00
 58.57     844.87
 58.67     858.00
 58.77     964.00
 58.87     971.00
 58.97    1074.00
 59.07    1157.00
 59.17    1222.00
 59.27    1159.07
 59.37    1225.06
 59.47    1247.22
 59.57    1308.00
 59.67    1143.42
 59.77    1222.00
 59.87    1203.00
 59.97    1227.00
 60.07    1198.16
 60.17    1344.00
 60.27    1523.00
 60.37    1534.59
 60.47    1668.00
 60.57    1589.00
 60.67    1504.00
 60.77    1335.00
 60.87    1239.00
 60.97    1046.00
 61.07     924.00
 61.17     850.00
 61.27     826.00
 61.37     768.20
 61.47     762.00
 61.57     712.46
 61.67     731.00
 61.77     833.00
 61.87     846.00
 61.97     967.79
 62.07    1035.00
 62.17    1136.00
 62.27    1343.00
 62.37    1360.00
 62.47    1311.00
 62.57    1370.37
 62.67    1230.00
 62.77    1149.22
 62.87    1039.00
 62.97    1023.49
 63.07     859.55
 63.17     740.00
 63.27     690.00
 63.37     672.32
 63.47     639.19
 63.57     666.00
 63.67     664.00
 63.77     680.67
 63.87     673.49
 63.97     665.00
 64.07     680.00
 64.17     712.00
 64.27     701.00
 64.37     759.27
 64.47     865.00
 64.57     842.00
 64.67     958.00
 64.77    1035.40
 64.87    1165.00
 64.97    1065.62
 65.07    1088.00
 65.17     944.38
 65.27     977.00
 65.37     904.75
 65.47     898.45
 65.57     807.75
 65.67     776.48
 65.77     723.00
 65.87     698.00
 65.97     675.00
 66.07     697.25
 66.17     627.00
 66.27     679.23
 66.37     605.00
 66.47     614.00
 66.57     608.84
 66.67     607.00
 66.77     581.00
 66.87     624.00
 66.97     677.00
 67.07     590.23
 67.17     628.00
 67.27     732.00
 67.37     693.00
 67.47     818.00
 67.57     835.00
 67.67    1037.90
 67.77    1133.94
 67.87    1293.00
 67.97    1602.00
 68.07    1811.00
 68.17    2002.00
 68.27    2257.00
 68.37    2256.35
 68.47    2391.42
 68.57    2284.00
 68.67    2124.00
 68.77    2021.33
 68.87    1634.07
 68.97    1419.00
 69.07    1216.00
 69.17    1048.00
 69.27    1013.74
 69.37     829.00
 69.47     827.00
 69.57     705.00
 69.67     680.00
 69.77     688.00
 69.87     697.00
 69.97     648.00
 70.07     614.00
 70.17     609.00
 70.27     641.00
 70.37     635.61
 70.47     594.00
 70.57     601.00
 70.67     561.24
 70.77     599.00
 70.87     636.72
 70.97     661.00
 71.07     661.00
 71.17     714.00
 71.27     738.60
 71.37     740.00
 71.47     793.00
 71.57     936.36
 71.67     946.16
 71.77    1120.00
 71.87    1265.00
 71.97    1469.31
 72.07    1561.33
 72.17    1664.00
 72.27    1887.68
 72.37    1863.00
 72.47    1867.00
 72.57    1810.00
 72.67    1737.00
 72.77    1512.00
 72.87    1413.21
 72.97    1188.00
 73.07    1036.00
 73.17    1003.00
 73.27     860.67
 73.37     790.00
 73.47     654.84
 73.57     617.09
 73.67     634.95
 73.77     681.88
 73.87     610.59
 73.97     656.00
 74.07     581.70
 74.17     641.00
 74.27     619.00
 74.37     619.00
 74.47     542.04
 74.57     704.00
 74.67     669.00
 74.77     586.15
 74.87     673.00
 74.97     600.86
 75.07     536.65
 75.17     560.86
 75.27     666.00
 75.37     650.00
 75.47     668.00
 75.57     663.00
 75.67     587.00
 75.77     683.00
 75.87     618.00
 75.97     602.00
 76.07     589.00
 76.17     603.00
 76.27     678.00
 76.37     621.02
 76.47     617.17
 76.57     745.93
 76.67     747.77
 76.77     737.00
 76.87     687.09
 76.97     761.23
 77.07     772.12
 77.17     704.00
 77.27     723.00
 77.37     704.00
 77.47     680.74
 77.57     658.05
 77.67     664.60
 77.77     637.16
 77.87     636.12
 77.97     618.08
 78.07     586.00
 78.17     556.00
 78.27     538.00
 78.37     577.00
 78.47     539.42
 78.57     566.00
 78.67     579.00
 78.77     544.00
 78.87     514.51
 78.97     563.00
 79.07     557.00
 79.17     542.56
 79.27     547.49
 79.37     562.00
 79.47     577.25
 79.57     553.00
 79.67     547.00
 79.77     552.79
 79.87     596.00
 79.97     554.75
 80.07     610.43
 80.17     564.00
 80.27     577.00
 80.37     589.00
 80.47     600.00
 80.57     549.27
 80.67     643.12
 80.77     586.69
 80.87     667.00
 80.97     687.00
 81.07     650.49
 81.17     739.00
 81.27     689.00
 81.37     715.00
 81.47     835.10
 81.57     829.00
 81.67     848.74
 81.77     756.00
 81.87     780.00
 81.97     776.00
 82.07     773.00
 82.17     821.39
 82.27     693.68
 82.37     678.45
 82.47     694.00
 82.57     709.00
 82.67     669.00
 82.77     608.91
 82.87     641.00
 82.97     583.00
 83.07     657.72
 83.17     531.00
 83.27     514.00
 83.37     596.00
 83.47     588.00
 83.57     611.26
 83.67     636.95
 83.77     597.13
 83.87     538.52
 83.97     591.07
 84.07     650.25
 84.17     656.76
 84.27     641.43
 84.37     594.00
 84.47     589.00
 84.57     571.41
 84.67     594.00
 84.77     571.00
 84.87     574.00
 84.97     640.66
 85.07     625.26
 85.17     595.84
 85.27     518.00
 85.37     573.00
 85.47     521.00
 85.57     521.00
 85.67     560.00
 85.77     569.00
 85.87     500.28
 85.97     592.21
 86.07     552.60
 86.17     526.00
 86.27     526.00
 86.37     578.00
 86.47     504.00
 86.57     582.77
 86.67     553.00
 86.77     566.00
 86.87     569.76
 86.97     583.00
 87.07     600.00
 87.17     610.00
 87.27     653.70
 87.37     582.50
 87.47     617.00
 87.57     664.53
 87.67     612.00
 87.77     654.00
 87.87     694.00
 87.97     671.00
 88.07     675.00
 88.17     656.00
 88.27     673.25
 88.37     632.00
 88.47     642.00
 88.57     624.97
 88.67     629.00
 88.77     647.00
 88.87     548.79
 88.97     556.00
 89.07     651.12
 89.17     572.99
 89.27     624.00
 89.37     604.00
 89.47     591.00
 89.57     545.00
 89.67     639.98
 89.77     632.00
 89.87     606.00
 89.97     564.43
 90.07     636.00
 90.17     630.00
 90.27     625.38
 90.37     566.00
 90.47     594.00
 90.57     575.00
 90.67     568.73
 90.77     534.26
 90.87     567.00
 90.97     561.00
 91.07     537.00
 91.17     580.00
 91.27     575.00
 91.37     510.00
 91.47     606.29
 91.57     528.00
 91.67     502.00
 91.77     501.59
 91.87     498.49
 91.97     522.00
 92.07     555.00
 92.17     592.36
 92.27     545.00
 92.37     547.01
 92.47     573.00
 92.57     567.31
 92.67     610.08
 92.77     589.00
 92.87     592.67
 92.97     619.00
 93.07     620.00
 93.17     668.00
 93.27     698.00
 93.37     733.00
 93.47     696.00
 93.57     696.00
 93.67     713.92
 93.77     783.13
 93.87     824.00
 93.97     817.00
 94.07     841.83
 94.17     788.83
 94.27     872.00
 94.37     831.00
 94.47     874.00
 94.57     896.00
 94.67     925.00
 94.77     878.17
 94.87     868.00
 94.97     935.00
 95.07     904.00
 95.17     977.00
 95.27     940.00
 95.37     915.07
 95.47     878.31
 95.57     921.00
 95.67     918.00
 95.77     808.12
 95.87     779.25
 95.97     821.00
 96.07     800.00
 96.17     803.00
 96.27     781.00
 96.37     802.73
 96.47     775.00
 96.57     703.93
 96.67     766.00
 96.77     800.00
 96.87     885.94
 96.97     827.27
 97.07     941.00
 97.17     951.00
 97.27    1022.00
 97.37    1147.00
 97.47    1193.00
 97.57    1286.63
 97.67    1284.00
 97.77    1443.00
 97.87    1427.00
 97.97    1466.00
 98.07    1412.53
 98.17    1486.00
 98.27    1475.00
 98.37    1487.87
 98.47    1439.99
 98.57    1316.00
 98.67    1255.00
 98.77    1184.00
 98.87    1148.00
 98.97    1089.04
 99.07    1026.00
 99.17     964.92
 99.27     989.78
 99.37     943.87
 99.47     977.00
 99.57    1013.00
 99.67     889.00
 99.77    1016.00
 99.87    1031.60
 99.97    1092.00
100.07    1125.00
100.17    1197.33
100.27    1347.47
100.37    1423.00
100.47    1418.52
100.57    1595.00
100.67    1558.14
100.77    1743.00
100.87    1864.00
100.97    1930.00
101.07    1985.00
101.17    1937.00
101.27    2011.00
101.37    2022.58
101.47    1976.00
101.57    1999.00
101.67    1870.87
101.77    1905.00
101.87    1815.00
101.97    1745.00
102.07    1587.00
102.17    1585.58
102.27    1492.55
102.37    1454.00
102.47    1436.47
102.57    1277.00
102.67    1279.00
102.77    1238.00
102.87    1216.46
102.97    1273.59
103.07    1148.00
103.17    1101.00
103.27    1133.88
103.37    1101.00
103.47    1083.00
103.57    1043.00
103.67    1003.00
103.77     931.00
103.87     913.00
103.97     878.00
104.07     821.74
104.17     835.00
104.27     770.00
104.37     727.00
104.47     699.00
104.57     661.00
104.67     661.98
104.77     644.00
104.87     612.00
104.97     653.00
105.07     636.64
105.17     643.00
105.27     630.00
105.37     605.00
105.47     601.00
105.57     573.93
105.67     595.00
105.77     528.43
105.87     585.00
105.97     586.00
106.07     549.34
106.17     621.00
106.27     553.00
106.37     646.00
106.47     588.00
106.57     602.73
106.67     660.02
106.77     594.00
106.87     657.63
106.97     663.91
107.07     696.73
107.17     640.00
107.27     677.00
107.37     722.81
107.47     680.78
107.57     697.78
107.67     731.00
107.77     697.00
107.87     706.00
107.97     711.00
108.07     724.00
108.17     706.00
108.27     787.42
108.37     760.81
108.47     711.00
108.57     670.00
108.67     724.06
108.77     733.00
108.87     741.24
108.97     778.50
109.07     719.60
109.17     696.52
109.27     727.00
109.37     750.00
109.47     706.00
109.57     721.49
109.67     714.00
109.77     725.00
109.87     658.01
109.97     759.00
110.07     642.25
110.17     642.31
110.27     665.00
110.37     678.00
110.47     659.00
110.57     633.05
110.67     630.00
110.77     668.00
110.87     668.69
110.97     588.00
111.07     645.00
111.17     601.70
111.27     616.00
111.37     586.00
111.47     607.00
111.57     559.00
111.67     578.00
111.77     602.00
111.87     576.00
111.97     522.00
112.07     573.00
112.17     574.00
112.27     527.00
112.37     570.00
112.47     597.00
112.57     598.00
112.67     577.00
112.77     569.00
112.87     582.00
112.97     623.67
113.07     557.12
113.17     606.00
113.27     609.24
113.37     551.00
113.47     644.00
113.57     613.00
113.67     620.00
113.77     657.00
113.87     682.77
113.97     625.00
114.07     630.00
114.17     697.76
114.27     691.00
114.37     691.27
114.47     786.00
114.57     751.00
114.67     896.00
114.77     847.34
114.87     943.00
114.97    1040.00
115.07    1110.00
115.17    1305.00
115.27    1453.00
115.37    1573.00
115.47    1754.00
115.57    2041.00
115.67    2264.00
115.77    2551.00
115.87    2563.03
115.97    3078.00
116.07    3331.00
116.17    3674.00
116.27    4201.00
116.37    4333.42
116.47    4692.00
116.57    4939.52
116.67    5371.32
116.77    5872.00
116.87    6330.00
116.97    6415.00
117.07    6602.78
117.17    7025.00
117.27    6966.40
117.37    7199.22
117.47    6911.00
117.57    7027.00
117.67    6785.40
117.77    6825.20
117.87    6184.00
117.97    6205.00
118.07    5521.00
118.17    5424.44
118.27    4864.00
118.37    4689.00
118.47    4335.00
118.57    3914.00
118.67    3611.00
118.77    3254.00
118.87    3003.00
118.97    2656.00
119.07    2470.06
119.17    2151.00
119.27    1924.00
119.37    1800.00
119.47    1626.00
119.57    1512.00
119.67    1353.50
119.77    1178.00
119.87    1183.13
119.97    1114.00
120.07    1001.00
120.17     978.83
120.27     916.00
120.37     875.00
120.47     820.28
120.57     835.63
120.67     724.98
120.77     724.54
120.87     752.59
120.97     750.36
121.07     674.00
121.17     654.00
121.27     623.00
121.37     664.07
121.47     650.33
121.57     631.00
121.67     645.00
121.77     686.31
121.87     614.00
121.97     648.00
122.07     666.00
122.17     610.00
122.27     624.00
122.37     641.00
122.47     671.17
122.57     650.26
122.67     631.00
122.77     636.00
122.87     650.00
122.97     602.07
123.07     674.00
123.17     685.00
123.27     653.38
123.37     692.00
123.47     675.00
123.57     623.95
123.67     690.00
123.77     710.51
123.87     689.00
123.97     637.00
124.07     663.00
124.17     724.65
124.27     685.00
124.37     689.00
124.47     612.72
124.57     676.78
124.67     707.00
124.77     632.00
124.87     618.46
124.97     624.00
