  9.97     508.06
 10.07     591.00
 10.17     577.55
 10.27     583.00
 10.37     572.00
 10.47     556.65
 10.57     586.22
 10.67     616.00
 10.77     563.00
 10.87     564.00
 10.97     552.00
 11.07     601.00
 11.17     575.68
 11.27     530.33
 11.37     548.00
 11.47     622.00
 11.57     593.00
 11.67     595.40
 11.77     602.00
 11.87     561.80
 11.97     685.00
 12.07     636.00
 12.17     686.00
 12.27     739.73
 12.37     710.48
 12.47     654.00
 12.57     589.69
 12.67     629.71
 12.77     525.00
 12.87     507.00
 12.97     526.00
 13.07     588.00
 13.17     593.00
 13.27     567.00
 13.37     573.00
 13.47     540.00
 13.57     563.00
 13.67     600.82
 13.77     592.16
 13.87     560.00
 13.97     519.00
 14.07     539.00
 14.17     605.93
 14.27     553.38
 14.37     547.12
 14.47     555.00
 14.57     564.00
 14.67     588.00
 14.77     533.00
 14.87     568.00
 14.97     528.00
 15.07     552.91
 15.17     559.00
 15.27     548.00
 15.37     551.00
 15.47     598.33
 15.57     581.25
 15.67     543.17
 15.77     514.93
 15.87     521.00
 15.97     544.00
 16.07     556.00
 16.17     544.67
 16.27     538.00
 16.37     555.00
 16.47     526.60
 16.57     582.00
 16.67     538.35
 16.77     541.00
 16.87     529.00
 16.97     523.00
 17.07     564.00
 17.17     541.00
 17.27     583.19
 17.37     550.29
 17.47     584.83
 17.57     546.00
 17.67     582.56
 17.77     546.00
 17.87     525.83
 17.97     529.00
 18.07     590.98
 18.17     544.00
 18.27     535.00
 18.37     534.00
 18.47     529.00
 18.57     566.00
 18.67     540.00
 18.77     553.00
 18.87     529.21
 18.97     515.85
 19.07     552.46
 19.17     534.00
 19.27     538.00
 19.37     535.00
 19.47     559.00
 19.57     538.90
 19.67     550.00
 19.77     548.00
 19.87     548.32
 19.97     550.94
 20.07     567.00
 20.17     543.00
 20.27     560.00
 20.37     515.00
 20.47     557.00
 20.57     512.00
 20.67     548.08
 20.77     537.27
 20.87     552.00
 20.97     551.00
 21.07     588.94
 21.17     559.00
 21.27     507.29
 21.37     543.00
 21.47     564.43
 21.57     530.00
 21.67     511.65
 21.77     531.00
 21.87     542.63
 21.97     588.00
 22.07     551.48
 22.17     506.00
 22.27     524.26
 22.37     591.00
 22.47     502.45
 22.57     601.00
 22.67     578.00
 22.77     540.00
 22.87     538.02
 22.97     541.00
 23.07     585.51
 23.17     579.63
 23.27     507.00
 23.37     549.21
 23.47     537.00
 23.57     567.00
 23.67     530.00
 23.77     558.14
 23.87     575.71
 23.97     547.00
 24.07     564.00
 24.17     555.00
 24.27     547.45
 24.37     612.00
 24.47     553.00
 24.57     590.00
 24.67     569.00
 24.77     630.00
 24.87     599.00
 24.97     663.00
 25.07     612.00
 25.17     546.00
 25.27     591.00
 25.37     573.00
 25.47     548.00
 25.57     588.92
 25.67     540.00
 25.77     564.63
 25.87     542.00
 25.97     578.00
 26.07     580.00
 26.17     546.00
 26.27     567.00
 26.37     560.55
 26.47     583.53
 26.57     570.00
 26.67     555.00
 26.77     574.00
 26.87     563.28
 26.97     584.85
 27.07     580.00
 27.17     563.00
 27.27     564.00
 27.37     525.00
 27.47     561.13
 27.57     553.00
 27.67     574.00
 27.77     567.00
 27.87     568.00
 27.97     618.00
 28.07     772.00
 28.17     845.45
 28.27     914.48
 28.37     926.00
 28.47     853.00
 28.57     797.98
 28.67     761.00
 28.77     726.00
 28.87     755.00
 28.97     819.95
 29.07     784.00
 29.17     782.82
 29.27     666.00
 29.37     572.00
 29.47     575.00
 29.57     603.00
 29.67     531.93
 29.77     603.00
 29.87     530.40
 29.97     579.00
 30.07     569.49
 30.17     586.47
 30.27     588.00
 30.37     548.00
 30.47     527.41
 30.57     570.33
 30.67     544.00
 30.77     597.00
 30.87     606.00
 30.97     603.00
 31.07     560.31
 31.17     556.00
 31.27     542.48
 31.37     583.00
 31.47     551.00
 31.57     520.00
 31.67     515.00
 31.77     544.00
 31.87     564.00
 31.97     537.00
 32.07     575.00
 32.17     530.00
 32.27     561.09
 32.37     567.20
 32.47     547.00
 32.57     550.00
 32.67     539.00
 32.77     527.00
 32.87     557.13
 32.97     536.58
 33.07     549.00
 33.17     563.00
 33.27     545.00
 33.37     511.00
 33.47     551.39
 33.57     626.00
 33.67     673.00
 33.77     732.59
 33.87     855.36
 33.97     957.00
 34.07     970.50
 34.17    1047.25
 34.27     961.00
 34.37     796.00
 34.47     715.75
 34.57     605.94
 34.67     625.33
 34.77     564.12
 34.87     559.18
 34.97     551.00
 35.07     518.00
 35.17     523.00
 35.27     538.25
 35.37     502.00
 35.47     495.00
 35.57     504.52
 35.67     492.00
 35.77     506.00
 35.87     522.00
 35.97     510.00
 36.07     535.35
 36.17     528.00
 36.27     509.00
 36.37     508.00
 36.47     497.00
 36.57     518.00
 36.67     481.80
 36.77     460.00
 36.87     515.00
 36.97     534.39
 37.07     468.00
 37.17     533.00
 37.27     492.97
 37.37     533.00
 37.47     534.00
 37.57     522.00
 37.67     488.00
 37.77     494.00
 37.87     458.00
 37.97     554.88
 38.07     472.00
 38.17     534.47
 38.27     496.41
 38.37     478.00
 38.47     464.00
 38.57     485.26
 38.67     462.38
 38.77     486.00
 38.87     491.00
 38.97     496.00
 39.07     479.83
 39.17     478.00
 39.27     502.00
 39.37     478.00
 39.47     510.00
 39.57     492.00
 39.67     524.00
 39.77     537.12
 39.87     506.00
 39.97     478.00
 40.07     477.47
 40.17     503.00
 40.27     505.00
 40.37     477.21
 40.47     504.00
 40.57     528.89
 40.67     506.00
 40.77     456.60
 40.87     485.00
 40.97     503.00
 41.07     478.86
 41.17     522.03
 41.27     481.00
 41.37     502.09
 41.47     515.00
 41.57     494.00
 41.67     501.33
 41.77     464.31
 41.87     487.00
 41.97     487.00
 42.07     491.56
 42.17     544.49
 42.27     492.21
 42.37     539.94
 42.47     548.00
 42.57     581.00
 42.67     612.00
 42.77     620.00
 42.87     585.00
 42.97     553.00
 43.07     556.00
 43.17     573.89
 43.27     512.00
 43.37     495.00
 43.47     546.00
 43.57     509.00
 43.67     457.84
 43.77     537.89
 43.87     458.00
 43.97     461.00
 44.07     493.00
 44.17     470.86
 44.27     493.00
 44.37     478.00
 44.47     503.32
 44.57     501.00
 44.67     523.04
 44.77     499.00
 44.87     507.00
 44.97     474.00
 45.07     516.57
 45.17     531.31
 45.27     525.16
 45.37     461.22
 45.47     466.00
 45.57     546.00
 45.67     491.84
 45.77     525.00
 45.87     524.62
 45.97     472.20
 46.07     460.78
 46.17     525.00
 46.27     515.05
 46.37     480.00
 46.47     476.00
 46.57     492.00
 46.67     509.00
 46.77     520.00
 46.87     485.00
 46.97     535.00
 47.07     485.00
 47.17     474.00
 47.27     517.00
 47.37     500.00
 47.47     472.00
 47.57     575.00
 47.67     547.00
 47.77     556.00
 47.87     592.00
 47.97     549.01
 48.07     563.98
 48.17     593.98
 48.27     584.08
 48.37     555.00
 48.47     580.29
 48.57     533.00
 48.67     564.00
 48.77     512.00
 48.87     528.00
 48.97     547.00
 49.07     504.37
 49.17     525.00
 49.27     584.00
 49.37     583.00
 49.47     604.59
 49.57     649.00
 49.67     765.00
 49.77     932.00
 49.87    1172.88
 49.97    1488.52
 50.07    1873.00
 50.17    2225.00
 50.27    2325.00
 50.37    2364.25
 50.47    2002.00
 50.57    1696.60
 50.67    1292.00
 50.77    1021.00
 50.87     830.00
 50.97     726.87
 51.07     708.00
 51.17     600.50
 51.27     625.28
 51.37     590.00
 51.47     616.35
 51.57     556.36
 51.67     586.30
 51.77     535.00
 51.87     550.00
 51.97     495.00
 52.07     491.44
 52.17     553.00
 52.27     536.00
 52.37     497.48
 52.47     580.00
 52.57     539.00
 52.67     545.96
 52.77     592.00
 52.87     622.00
 52.97     632.79
 53.07     687.00
 53.17     797.00
 53.27     862.77
 53.37    1075.16
 53.47    1134.79
 53.57    1232.96
 53.67    1121.00
 53.77    1054.95
 53.87     954.00
 53.97     882.84
 54.07     757.31
 54.17     679.00
 54.27     667.42
 54.37     594.00
 54.47     584.00
 54.57     543.86
 54.67     573.00
 54.77     539.00
 54.87     560.00
 54.97     509.00
 55.07     531.35
 55.17     555.00
 55.27     604.00
 55.37     631.00
 55.47     540.00
 55.57     551.00
 55.67     581.00
 55.77     587.00
 55.87     639.00
 55.97     649.48
 56.07     677.00
 56.17     730.00
 56.27     809.22
 56.37     975.00
 56.47    1173.00
 56.57    1449.00
 56.67    1919.19
 56.77    2260.33
 56.87    2397.63
 56.97    2636.37
 57.07    2457.00
 57.17    2254.80
 57.27    1921.00
 57.37    1585.00
 57.47    1332.00
 57.57    1030.45
 57.67     872.11
 57.77     817.66
 57.87     701.00
 57.97     734.00
 58.07     732.00
 58.17     699.00
 58.27     725.30
 58.37     746.00
 58.47     835.47
 58.57     957.75
 58.67    1004.05
 58.77    1126.80
 58.87    1147.76
 58.97    1163.42
 59.07    1337.38
 59.17    1353.39
 59.27    1338.00
 59.37    1305.00
 59.47    1224.25
 59.57    1211.00
 59.67    1104.00
 59.77    1156.00
 59.87    1191.00
 59.97    1241.74
 60.07    1368.00
 60.17    1494.91
 60.27    1478.22
 60.37    1535.00
 60.47    1510.00
 60.57    1380.00
 60.67    1151.51
 60.77    1050.00
 60.87     925.00
 60.97     801.00
 61.07     706.00
 61.17     687.00
 61.27     683.71
 61.37     674.00
 61.47     636.13
 61.57     762.00
 61.67     806.80
 61.77     837.17
 61.87    1036.08
 61.97    1082.41
 62.07    1220.00
 62.17    1305.30
 62.27    1407.91
 62.37    1339.87
 62.47    1213.17
 62.57    1113.00
 62.67    1020.00
 62.77     895.00
 62.87     756.67
 62.97     712.00
 63.07     613.47
 63.17     654.00
 63.27     612.00
 63.37     585.00
 63.47     560.34
 63.57     555.00
 63.67     545.00
 63.77     571.00
 63.87     590.26
 63.97     589.12
 64.07     646.84
 64.17     734.76
 64.27     744.00
 64.37     880.12
 64.47     937.93
 64.57     939.00
 64.67     982.00
 64.77    1023.00
 64.87     973.75
 64.97     972.00
 65.07     904.98
 65.17     905.00
 65.27     820.14
 65.37     718.00
 65.47     674.57
 65.57     661.00
 65.67     611.00
 65.77     582.89
 65.87     527.00
 65.97     576.89
 66.07     529.71
 66.17     534.00
 66.27     578.00
 66.37     543.72
 66.47     538.00
 66.57     570.00
 66.67     534.00
 66.77     598.00
 66.87     580.00
 66.97     617.00
 67.07     618.00
 67.17     676.00
 67.27     692.00
 67.37     823.37
 67.47     935.00
 67.57    1061.00
 67.67    1287.00
 67.77    1541.00
 67.87    1800.00
 67.97    1979.28
 68.07    2295.00
 68.17    2393.00
 68.27    2345.00
 68.37    2275.00
 68.47    2006.02
 68.57    1857.00
 68.67    1663.00
 68.77    1285.00
 68.87    1144.00
 68.97     927.00
 69.07     847.44
 69.17     775.00
 69.27     696.78
 69.37     632.00
 69.47     607.00
 69.57     613.00
 69.67     624.00
 69.77     573.00
 69.87     611.11
 69.97     562.00
 70.07     568.00
 70.17     590.00
 70.27     561.00
 70.37     571.00
 70.47     537.00
 70.57     613.00
 70.67     596.00
 70.77     600.10
 70.87     607.00
 70.97     640.00
 71.07     663.18
 71.17     711.54
 71.27     697.00
 71.37     805.00
 71.47     960.00
 71.57    1125.47
 71.67    1302.23
 71.77    1420.00
 71.87    1584.00
 71.97    1760.00
 72.07    1883.58
 72.17    1848.00
 72.27    1789.00
 72.37    1784.00
 72.47    1597.00
 72.57    1439.00
 72.67    1312.00
 72.77    1077.86
 72.87     959.58
 72.97     919.93
 73.07     830.00
 73.17     725.56
 73.27     693.00
 73.37     703.00
 73.47     636.00
 73.57     624.00
 73.67     609.00
 73.77     578.00
 73.87     612.48
 73.97     575.05
 74.07     551.00
 74.17     606.53
 74.27     588.32
 74.37     592.00
 74.47     551.54
 74.57     635.00
 74.67     622.00
 74.77     617.46
 74.87     580.61
 74.97     608.00
 75.07     556.06
 75.17     635.00
 75.27     579.00
 75.37     595.67
 75.47     552.00
 75.57     526.32
 75.67     519.35
 75.77     532.75
 75.87     603.81
 75.97     610.00
 76.07     621.00
 76.17     612.00
 76.27     664.54
 76.37     624.16
 76.47     716.22
 76.57     673.77
 76.67     686.03
 76.77     691.00
 76.87     656.53
 76.97     657.00
 77.07     699.82
 77.17     641.00
 77.27     618.89
 77.37     580.00
 77.47     582.48
 77.57     557.00
 77.67     564.00
 77.77     502.88
 77.87     515.37
 77.97     500.00
 78.07     473.00
 78.17     498.00
 78.27     526.84
 78.37     503.00
 78.47     512.53
 78.57     545.00
 78.67     502.00
 78.77     487.81
 78.87     513.00
 78.97     519.00
 79.07     516.00
 79.17     473.24
 79.27     500.00
 79.37     500.00
 79.47     523.00
 79.57     510.00
 79.67     535.77
 79.77     513.00
 79.87     529.00
 79.97     556.92
 80.07     545.00
 80.17     532.16
 80.27     563.00
 80.37     558.00
 80.47     546.00
 80.57     547.00
 80.67     610.15
 80.77     667.25
 80.87     615.35
 80.97     711.00
 81.07     679.00
 81.17     699.00
 81.27     749.00
 81.37     727.00
 81.47     790.00
 81.57     720.49
 81.67     741.88
 81.77     754.00
 81.87     701.00
 81.97     703.46
 82.07     691.00
 82.17     705.00
 82.27     635.34
 82.37     599.00
 82.47     631.52
 82.57     578.00
 82.67     606.00
 82.77     576.00
 82.87     543.34
 82.97     578.50
 83.07     569.00
 83.17     538.00
 83.27     556.00
 83.37     528.58
 83.47     568.00
 83.57     581.60
 83.67     524.03
 83.77     557.00
 83.87     502.00
 83.97     584.00
 84.07     559.83
 84.17     542.00
 84.27     568.54
 84.37     526.00
 84.47     569.00
 84.57     563.00
 84.67     540.30
 84.77     519.00
 84.87     565.00
 84.97     522.00
 85.07     511.00
 85.17     544.00
 85.27     533.00
 85.37     532.00
 85.47     530.00
 85.57     513.00
 85.67     521.00
 85.77     509.00
 85.87     506.00
 85.97     505.00
 86.07     521.00
 86.17     561.74
 86.27     544.18
 86.37     491.54
 86.47     495.18
 86.57     574.00
 86.67     551.00
 86.77     536.00
 86.87     596.48
 86.97     566.88
 87.07     578.00
 87.17     600.83
 87.27     628.00
 87.37     626.00
 87.47     632.99
 87.57     648.53
 87.67     663.00
 87.77     637.00
 87.87     632.00
 87.97     584.98
 88.07     606.00
 88.17     602.00
 88.27     544.00
 88.37     592.00
 88.47     584.00
 88.57     573.00
 88.67     590.85
 88.77     516.62
 88.87     551.00
 88.97     588.98
 89.07     608.25
 89.17     606.22
 89.27     616.00
 89.37     637.00
 89.47     620.00
 89.57     583.00
 89.67     587.00
 89.77     632.00
 89.87     612.00
 89.97     560.00
 90.07     553.00
 90.17     562.00
 90.27     584.26
 90.37     510.00
 90.47     516.50
 90.57     520.00
 90.67     521.00
 90.77     517.00
 90.87     497.00
 90.97     474.62
 91.07     548.07
 91.17     527.00
 91.27     504.00
 91.37     503.00
 91.47     532.00
 91.57     493.04
 91.67     530.00
 91.77     484.00
 91.87     518.81
 91.97     561.88
 92.07     570.80
 92.17     541.00
 92.27     589.76
 92.37     527.00
 92.47     564.48
 92.57     574.00
 92.67     643.00
 92.77     597.00
 92.87     690.00
 92.97     711.57
 93.07     724.14
 93.17     737.00
 93.27     709.05
 93.37     790.67
 93.47     804.00
 93.57     744.00
 93.67     814.00
 93.77     810.00
 93.87     788.00
 93.97     817.00
 94.07     773.57
 94.17     805.81
 94.27     865.64
 94.37     866.00
 94.47     836.45
 94.57     886.00
 94.67     869.00
 94.77     999.00
 94.87     912.00
 94.97     954.00
 95.07     810.01
 95.17     813.51
 95.27     926.00
 95.37     763.14
 95.47     842.00
 95.57     817.71
 95.67     724.00
 95.77     740.22
 95.87     738.00
 95.97     733.04
 96.07     670.27
 96.17     744.00
 96.27     687.00
 96.37     740.68
 96.47     746.00
 96.57     799.00
 96.67     799.00
 96.77     860.70
 96.87     892.00
 96.97     994.76
 97.07    1071.00
 97.17    1102.39
 97.27    1151.00
 97.37    1267.46
 97.47    1414.52
 97.57    1361.94
 97.67    1344.91
 97.77    1423.00
 97.87    1404.00
 97.97    1334.00
 98.07    1268.61
 98.17    1338.00
 98.27    1206.00
 98.37    1118.00
 98.47    1076.45
 98.57     965.38
 98.67     928.01
 98.77     933.00
 98.87     858.64
 98.97     903.62
 99.07     768.00
 99.17     802.62
 99.27     891.00
 99.37     925.00
 99.47     960.00
 99.57    1006.00
 99.67    1106.00
 99.77    1185.00
 99.87    1242.00
 99.97    1291.00
100.07    1407.00
100.17    1559.26
100.27    1600.00
100.37    1717.95
100.47    1803.00
100.57    1903.00
100.67    1882.00
100.77    1923.00
100.87    1984.00
100.97    1946.94
101.07    1964.41
101.17    1976.00
101.27    1837.31
101.37    1796.00
101.47    1663.40
101.57    1664.09
101.67    1640.27
101.77    1574.00
101.87    1394.00
101.97    1338.00
102.07    1316.00
102.17    1199.00
102.27    1311.00
102.37    1194.00
102.47    1154.85
102.57    1125.98
102.67    1162.95
102.77    1064.67
102.87    1073.56
102.97    1061.00
103.07     945.00
103.17     986.15
103.27     910.00
103.37     866.00
103.47     917.00
103.57     827.00
103.67     806.00
103.77     745.00
103.87     735.00
103.97     691.55
104.07     686.60
104.17     644.07
104.27     617.00
104.37     635.00
104.47     576.00
104.57     624.00
104.67     564.00
104.77     566.00
104.87     552.00
104.97     559.00
105.07     528.92
105.17     522.00
105.27     556.00
105.37     571.00
105.47     553.00
105.57     526.00
105.67     568.01
105.77     546.00
105.87     540.00
105.97     583.07
106.07     553.89
106.17     527.19
106.27     528.24
106.37     587.00
106.47     573.00
106.57     580.00
106.67     628.00
106.77     609.00
106.87     650.00
106.97     660.89
107.07     649.00
107.17     706.20
107.27     619.00
107.37     709.56
107.47     663.00
107.57     689.92
107.67     676.30
107.77     683.99
107.87     667.20
107.97     679.00
108.07     649.00
108.17     647.00
108.27     618.00
108.37     654.00
108.47     675.00
108.57     703.56
108.67     692.00
108.77     678.00
108.87     651.70
108.97     733.14
109.07     704.00
109.17     648.61
109.27     723.00
109.37     643.00
109.47     633.91
109.57     631.00
109.67     621.00
109.77     638.00
109.87     674.00
109.97     653.75
110.07     590.29
110.17     602.31
110.27     588.26
110.37     578.00
110.47     546.77
110.57     533.00
110.67     570.00
110.77     578.00
110.87     510.20
110.97     556.87
111.07     532.00
111.17     557.00
111.27     502.48
111.37     571.00
111.47     537.00
111.57     524.73
111.67     517.00
111.77     499.00
111.87     525.00
111.97     554.00
112.07     561.00
112.17     570.00
112.27     550.00
112.37     550.00
112.47     573.00
112.57     543.00
112.67     580.00
112.77     542.67
112.87     615.00
112.97     562.00
113.07     601.00
113.17     604.50
113.27     576.12
113.37     636.00
113.47     657.18
113.57     621.00
113.67     675.00
113.77     655.00
113.87     743.19
113.97     711.01
114.07     718.00
114.17     810.00
114.27     838.00
114.37     894.96
114.47     951.30
114.57    1039.00
114.67    1181.91
114.77    1344.70
114.87    1424.00
114.97    1697.00
115.07    1755.69
115.17    1904.18
115.27    2134.41
115.37    2517.45
115.47    2757.00
115.57    3091.00
115.67    3376.00
115.77    3847.03
115.87    4228.00
115.97    4346.00
116.07    4821.08
116.17    5099.29
116.27    5591.85
116.37    5779.00
116.47    6119.00
116.57    6485.03
116.67    6676.00
116.77    6781.00
116.87    6906.95
116.97    6719.82
117.07    6679.72
117.17    6645.00
117.27    6368.00
117.37    6023.00
117.47    5723.81
117.57    5467.00
117.67    5116.00
117.77    4670.00
117.87    4490.59
117.97    4160.00
118.07    3726.00
118.17    3269.47
118.27    2993.00
118.37    2743.14
118.47    2590.00
118.57    2281.00
118.67    2028.52
118.77    1700.00
118.87    1588.00
118.97    1412.00
119.07    1335.00
119.17    1131.00
119.27    1078.95
119.37    1000.00
119.47     869.11
119.57     834.00
119.67     817.08
119.77     727.36
119.87     747.00
119.97     693.00
120.07     655.00
120.17     613.74
120.27     601.10
120.37     587.81
120.47     621.00
120.57     608.00
120.67     581.04
120.77     583.00
120.87     623.47
120.97     562.00
121.07     533.74
121.17     578.00
121.27     539.66
121.37     539.00
121.47     578.00
121.57     552.00
121.67     567.00
121.77     603.00
121.87     559.00
121.97     588.70
122.07     586.00
122.17     599.00
122.27     571.00
122.37     629.24
122.47     597.00
122.57     609.00
122.67     605.70
122.77     661.00
122.87     611.00
122.97     625.00
123.07     644.00
123.17     642.28
123.27     633.00
123.37     608.00
123.47     639.00
123.57     613.00
123.67     644.00
123.77     616.00
123.87     615.07
123.97     631.00
124.07     559.25
124.17     551.89
124.27     588.84
124.37     577.10
124.47     628.46
124.57     570.00
124.67     617.00
124.77     597.81
124.87     531.32
124.97     563.00
