  9.97     629.00
 10.07     600.03
 10.17     573.00
 10.27     592.86
 10.37     595.00
 10.47     553.00
 10.57     568.52
 10.67     599.00
 10.77     605.28
 10.87     561.38
 10.97     598.91
 11.07     596.42
 11.17     613.00
 11.27     599.00
 11.37     569.00
 11.47     573.00
 11.57     633.00
 11.67     593.00
 11.77     670.00
 11.87     626.00
 11.97     686.00
 12.07     685.77
 12.17     698.06
 12.27     704.74
 12.37     671.00
 12.47     601.00
 12.57     628.00
 12.67     587.00
 12.77     586.00
 12.87     595.34
 12.97     584.00
 13.07     594.00
 13.17     555.00
 13.27     613.26
 13.37     546.96
 13.47     530.00
 13.57     545.44
 13.67     598.00
 13.77     606.00
 13.87     519.00
 13.97     570.00
 14.07     570.65
 14.17     600.12
 14.27     588.00
 14.37     564.00
 14.47     548.00
 14.57     547.00
 14.67     533.00
 14.77     515.00
 14.87     599.00
 14.97     562.00
 15.07     557.00
 15.17     579.83
 15.27     562.00
 15.37     577.54
 15.47     574.00
 15.57     555.72
 15.67     544.00
 15.77     596.96
 15.87     598.96
 15.97     573.00
 16.07     589.53
 16.17     546.69
 16.27     581.88
 16.37     562.00
 16.47     532.00
 16.57     588.00
 16.67     552.98
 16.77     559.00
 16.87     551.00
 16.97     562.00
 17.07     529.25
 17.17     566.00
 17.27     601.80
 17.37     518.90
 17.47     559.00
 17.57     558.00
 17.67     576.21
 17.77     549.00
 17.87     546.00
 17.97     533.00
 18.07     548.00
 18.17     542.00
 18.27     535.00
 18.37     565.00
 18.47     537.00
 18.57     535.12
 18.67     559.29
 18.77     553.29
 18.87     558.29
 18.97     516.00
 19.07     551.53
 19.17     577.00
 19.27     558.00
 19.37     542.00
 19.47     562.00
 19.57     548.00
 19.67     575.00
 19.77     564.35
 19.87     564.00
 19.97     555.00
 20.07     548.00
 20.17     527.71
 20.27     544.93
 20.37     509.59
 20.47     568.00
 20.57     563.00
 20.67     543.75
 20.77     547.00
 20.87     535.32
 20.97     553.00
 21.07     554.00
 21.17     577.82
 21.27     549.00
 21.37     538.00
 21.47     503.00
 21.57     524.00
 21.67     537.00
 21.77     572.00
 21.87     553.00
 21.97     522.15
 22.07     560.00
 22.17     580.00
 22.27     614.00
 22.37     587.65
 22.47     584.53
 22.57     545.00
 22.67     562.27
 22.77     582.08
 22.87     525.89
 22.97     555.00
 23.07     541.00
 23.17     508.29
 23.27     553.00
 23.37     518.00
 23.47     539.00
 23.57     566.42
 23.67     548.00
 23.77     518.61
 23.87     551.00
 23.97     581.63
 24.07     568.00
 24.17     529.40
 24.27     518.80
 24.37     607.00
 24.47     595.00
 24.57     612.00
 24.67     625.00
 24.77     625.00
 24.87     628.64
 24.97     605.00
 25.07     605.00
 25.17     578.00
 25.27     592.00
 25.37     566.49
 25.47     575.00
 25.57     525.16
 25.67     584.00
 25.77     586.61
 25.87     508.56
 25.97     582.90
 26.07     548.00
 26.17     572.90
 26.27     541.00
 26.37     506.00
 26.47     517.00
 26.57     561.91
 26.67     549.00
 26.77     552.98
 26.87     545.00
 26.97     536.00
 27.07     560.00
 27.17     508.00
 27.27     527.05
 27.37     510.89
 27.47     597.00
 27.57     584.30
 27.67     518.44
 27.77     573.00
 27.87     582.00
 27.97     670.00
 28.07     727.00
 28.17     931.84
 28.27     941.00
 28.37     880.83
 28.47     845.00
 28.57     734.00
 28.67     680.00
 28.77     753.67
 28.87     795.34
 28.97     800.00
 29.07     804.00
 29.17     677.79
 29.27     640.00
 29.37     606.00
 29.47     621.22
 29.57     578.00
 29.67     628.00
 29.77     586.00
 29.87     524.00
 29.97     588.01
 30.07     582.26
 30.17     536.03
 30.27     555.00
 30.37     548.00
 30.47     558.67
 30.57     619.00
 30.67     568.00
 30.77     575.00
 30.87     593.00
 30.97     579.00
 31.07     608.00
 31.17     530.00
 31.27     578.00
 31.37     511.45
 31.47     531.08
 31.57     560.00
 31.67     537.19
 31.77     530.00
 31.87     565.96
 31.97     556.00
 32.07     537.00
 32.17     519.00
 32.27     570.00
 32.37     490.19
 32.47     560.00
 32.57     555.00
 32.67     530.00
 32.77     538.49
 32.87     539.00
 32.97     562.42
 33.07     511.00
 33.17     541.00
 33.27     564.00
 33.37     555.00
 33.47     600.00
 33.57     600.00
 33.67     615.72
 33.77     803.00
 33.87     825.00
 33.97    1048.00
 34.07    1101.00
 34.17    1000.12
 34.27     874.00
 34.37     763.00
 34.47     628.00
 34.57     588.00
 34.67     570.70
 34.77     526.00
 34.87     532.21
 34.97     556.00
 35.07     547.36
 35.17     514.00
 35.27     533.00
 35.37     488.03
 35.47     533.06
 35.57     500.00
 35.67     532.95
 35.77     541.05
 35.87     487.00
 35.97     494.00
 36.07     507.00
 36.17     480.00
 36.27     551.41
 36.37     533.00
 36.47     482.72
 36.57     541.13
 36.67     482.00
 36.77     524.00
 36.87     544.00
 36.97     471.40
 37.07     542.00
 37.17     522.46
 37.27     502.48
 37.37     482.00
 37.47     505.00
 37.57     523.00
 37.67     523.00
 37.77     525.00
 37.87     548.00
 37.97     530.00
 38.07     556.41
 38.17     506.00
 38.27     502.00
 38.37     506.00
 38.47     498.00
 38.57     530.72
 38.67     546.00
 38.77     540.25
 38.87     506.30
 38.97     497.00
 39.07     488.00
 39.17     503.00
 39.27     488.27
 39.37     526.99
 39.47     558.00
 39.57     465.00
 39.67     465.00
 39.77     537.00
 39.87     475.24
 39.97     481.00
 40.07     528.00
 40.17     506.48
 40.27     534.00
 40.37     508.00
 40.47     483.00
 40.57     538.84
 40.67     514.00
 40.77     501.00
 40.87     539.00
 40.97     503.00
 41.07     480.00
 41.17     492.00
 41.27     502.00
 41.37     526.28
 41.47     474.00
 41.57     508.00
 41.67     538.62
 41.77     464.51
 41.87     509.00
 41.97     484.22
 42.07     537.00
 42.17     528.00
 42.27     524.00
 42.37     581.00
 42.47     583.00
 42.57     638.00
 42.67     567.00
 42.77     639.86
 42.87     590.00
 42.97     569.75
 43.07     590.00
 43.17     498.00
 43.27     493.00
 43.37     485.90
 43.47     486.65
 43.57     493.79
 43.67     528.23
 43.77     509.51
 43.87     472.27
 43.97     469.00
 44.07     476.00
 44.17     461.24
 44.27     517.37
 44.37     506.00
 44.47     520.21
 44.57     476.00
 44.67     498.00
 44.77     487.00
 44.87     510.00
 44.97     481.00
 45.07     463.47
 45.17     516.00
 45.27     524.00
 45.37     544.15
 45.47     497.00
 45.57     498.39
 45.67     568.00
 45.77     492.00
 45.87     462.51
 45.97     473.00
 46.07     476.81
 46.17     538.00
 46.27     519.00
 46.37     472.00
 46.47     514.00
 46.57     528.78
 46.67     489.00
 46.77     487.00
 46.87     481.27
 46.97     547.00
 47.07     488.00
 47.17     528.00
 47.27     513.00
 47.37     514.00
 47.47     534.00
 47.57     508.00
 47.67     569.00
 47.77     612.00
 47.87     598.00
 47.97     628.00
 48.07     609.77
 48.17     533.55
 48.27     590.00
 48.37     550.55
 48.47     548.00
 48.57     551.00
 48.67     508.00
 48.77     536.36
 48.87     563.70
 48.97     581.00
 49.07     575.67
 49.17     566.00
 49.27     607.39
 49.37     596.00
 49.47     694.00
 49.57     774.61
 49.67     868.00
 49.77    1164.00
 49.87    1473.00
 49.97    1832.43
 50.07    2240.00
 50.17    2454.00
 50.27    2386.00
 50.37    2331.00
 50.47    1836.00
 50.57    1351.00
 50.67    1036.00
 50.77     784.00
 50.87     725.00
 50.97     626.05
 51.07     601.00
 51.17     640.91
 51.27     608.00
 51.37     595.00
 51.47     592.00
 51.57     562.36
 51.67     541.00
 51.77     577.00
 51.87     563.52
 51.97     555.78
 52.07     540.78
 52.17     488.98
 52.27     572.00
 52.37     556.00
 52.47     569.00
 52.57     564.00
 52.67     618.00
 52.77     544.30
 52.87     641.00
 52.97     699.00
 53.07     806.00
 53.17     919.78
 53.27    1069.00
 53.37    1094.04
 53.47    1191.00
 53.57    1211.00
 53.67    1131.00
 53.77    1005.95
 53.87     882.00
 53.97     770.00
 54.07     707.87
 54.17     656.00
 54.27     614.00
 54.37     541.82
 54.47     564.00
 54.57     544.00
 54.67     546.00
 54.77     557.68
 54.87     527.00
 54.97     550.00
 55.07     538.00
 55.17     573.00
 55.27     553.00
 55.37     551.00
 55.47     567.00
 55.57     536.40
 55.67     531.00
 55.77     614.55
 55.87     615.00
 55.97     628.00
 56.07     642.18
 56.17     818.07
 56.27     932.00
 56.37    1183.55
 56.47    1415.00
 56.57    1763.00
 56.67    2275.27
 56.77    2442.69
 56.87    2653.00
 56.97    2572.46
 57.07    2341.90
 57.17    2131.00
 57.27    1572.00
 57.37    1297.00
 57.47    1071.53
 57.57     899.60
 57.67     756.00
 57.77     690.00
 57.87     642.16
 57.97     644.00
 58.07     726.19
 58.17     689.75
 58.27     740.00
 58.37     827.00
 58.47     930.72
 58.57    1119.00
 58.67    1132.75
 58.77    1332.00
 58.87    1373.19
 58.97    1509.00
 59.07    1576.00
 59.17    1542.00
 59.27    1383.13
 59.37    1312.16
 59.47    1154.43
 59.57    1149.30
 59.67    1167.00
 59.77    1199.00
 59.87    1260.00
 59.97    1312.00
 60.07    1379.00
 60.17    1488.61
 60.27    1477.57
 60.37    1574.00
 60.47    1384.00
 60.57    1231.54
 60.67    1120.55
 60.77     863.00
 60.87     775.00
 60.97     723.00
 61.07     659.00
 61.17     653.98
 61.27     650.00
 61.37     614.68
 61.47     711.00
 61.57     745.67
 61.67     821.00
 61.77    1002.00
 61.87    1082.00
 61.97    1235.00
 62.07    1389.00
 62.17    1450.00
 62.27    1443.82
 62.37    1269.00
 62.47    1142.00
 62.57     967.00
 62.67     906.00
 62.77     735.00
 62.87     670.00
 62.97     648.00
 63.07     676.00
 63.17     608.46
 63.27     588.13
 63.37     555.86
 63.47     530.65
 63.57     611.00
 63.67     570.69
 63.77     577.71
 63.87     610.00
 63.97     666.00
 64.07     693.00
 64.17     710.03
 64.27     874.03
 64.37     967.00
 64.47     921.09
 64.57     948.00
 64.67     978.64
 64.77     990.29
 64.87     957.80
 64.97     970.00
 65.07     873.83
 65.17     765.00
 65.27     762.75
 65.37     664.77
 65.47     654.00
 65.57     624.00
 65.67     624.00
 65.77     560.62
 65.87     538.00
 65.97     567.38
 66.07     591.52
 66.17     543.85
 66.27     602.00
 66.37     525.00
 66.47     536.00
 66.57     528.00
 66.67     530.00
 66.77     594.00
 66.87     611.14
 66.97     589.00
 67.07     595.00
 67.17     684.45
 67.27     743.00
 67.37     873.00
 67.47    1094.48
 67.57    1331.52
 67.67    1494.00
 67.77    1813.31
 67.87    2091.25
 67.97    2321.00
 68.07    2488.00
 68.17    2392.00
 68.27    2317.00
 68.37    2024.00
 68.47    1843.00
 68.57    1547.48
 68.67    1287.89
 68.77    1077.04
 68.87     917.00
 68.97     795.00
 69.07     677.00
 69.17     618.17
 69.27     628.00
 69.37     569.78
 69.47     583.00
 69.57     547.00
 69.67     627.00
 69.77     601.20
 69.87     579.00
 69.97     578.75
 70.07     536.42
 70.17     574.55
 70.27     575.00
 70.37     578.00
 70.47     536.51
 70.57     577.00
 70.67     605.88
 70.77     558.00
 70.87     581.00
 70.97     598.93
 71.07     642.00
 71.17     737.00
 71.27     807.00
 71.37     890.00
 71.47    1074.00
 71.57    1189.00
 71.67    1448.00
 71.77    1637.00
 71.87    1800.40
 71.97    1922.29
 72.07    1866.49
 72.17    1846.00
 72.27    1786.41
 72.37    1696.49
 72.47    1533.00
 72.57    1326.00
 72.67    1204.23
 72.77    1008.85
 72.87     896.00
 72.97     769.00
 73.07     780.00
 73.17     788.47
 73.27     684.12
 73.37     652.36
 73.47     624.00
 73.57     650.56
 73.67     599.00
 73.77     594.00
 73.87     600.33
 73.97     605.14
 74.07     531.73
 74.17     625.00
 74.27     533.66
 74.37     541.56
 74.47     632.00
 74.57     603.70
 74.67     598.20
 74.77     538.16
 74.87     599.00
 74.97     569.23
 75.07     568.00
 75.17     591.00
 75.27     564.29
 75.37     549.00
 75.47     563.77
 75.57     542.27
 75.67     569.80
 75.77     601.00
 75.87     601.00
 75.97     592.44
 76.07     621.00
 76.17     625.00
 76.27     688.75
 76.37     736.00
 76.47     716.78
 76.57     712.00
 76.67     663.09
 76.77     676.00
 76.87     655.00
 76.97     584.00
 77.07     582.00
 77.17     619.08
 77.27     559.00
 77.37     587.00
 77.47     525.00
 77.57     524.00
 77.67     551.00
 77.77     500.00
 77.87     513.40
 77.97     519.83
 78.07     491.25
 78.17     521.10
 78.27     510.00
 78.37     525.00
 78.47     514.00
 78.57     507.00
 78.67     530.00
 78.77     549.00
 78.87     545.00
 78.97     553.30
 79.07     534.00
 79.17     521.00
 79.27     544.50
 79.37     546.03
 79.47     531.00
 79.57     554.00
 79.67     493.70
 79.77     531.00
 79.87     547.00
 79.97     534.00
 80.07     512.00
 80.17     567.00
 80.27     553.00
 80.37     613.23
 80.47     542.00
 80.57     625.00
 80.67     642.51
 80.77     661.00
 80.87     685.00
 80.97     705.00
 81.07     697.00
 81.17     696.55
 81.27     750.00
 81.37     753.00
 81.47     738.00
 81.57     779.00
 81.67     759.00
 81.77     751.00
 81.87     682.58
 81.97     725.00
 82.07     636.91
 82.17     701.00
 82.27     632.00
 82.37     615.00
 82.47     606.00
 82.57     593.00
 82.67     565.00
 82.77     578.00
 82.87     579.41
 82.97     556.00
 83.07     575.00
 83.17     515.31
 83.27     507.29
 83.37     582.09
 83.47     555.22
 83.57     595.65
 83.67     603.61
 83.77     599.94
 83.87     563.00
 83.97     563.39
 84.07     511.00
 84.17     581.00
 84.27     530.00
 84.37     543.69
 84.47     507.00
 84.57     522.04
 84.67     555.00
 84.77     505.00
 84.87     579.84
 84.97     514.00
 85.07     544.00
 85.17     557.00
 85.27     587.00
 85.37     565.00
 85.47     531.44
 85.57     548.00
 85.67     521.66
 85.77     508.00
 85.87     534.00
 85.97     526.00
 86.07     531.82
 86.17     516.99
 86.27     511.00
 86.37     541.00
 86.47     522.81
 86.57     544.00
 86.67     579.00
 86.77     535.49
 86.87     580.40
 86.97     564.80
 87.07     611.00
 87.17     640.31
 87.27     620.00
 87.37     594.13
 87.47     616.00
 87.57     619.70
 87.67     644.00
 87.77     610.00
 87.87     632.00
 87.97     609.00
 88.07     566.00
 88.17     570.00
 88.27     624.00
 88.37     564.00
 88.47     609.00
 88.57     547.00
 88.67     557.00
 88.77     579.00
 88.87     590.57
 88.97     576.00
 89.07     583.00
 89.17     583.00
 89.27     565.20
 89.37     595.00
 89.47     596.00
 89.57     576.00
 89.67     553.00
 89.77     563.00
 89.87     605.12
 89.97     581.50
 90.07     589.00
 90.17     574.00
 90.27     512.87
 90.37     524.00
 90.47     498.51
 90.57     529.00
 90.67     569.56
 90.77     514.00
 90.87     487.00
 90.97     565.77
 91.07     497.47
 91.17     506.61
 91.27     484.62
 91.37     515.27
 91.47     524.32
 91.57     557.00
 91.67     521.00
 91.77     567.00
 91.87     572.14
 91.97     525.07
 92.07     537.00
 92.17     572.00
 92.27     613.68
 92.37     592.00
 92.47     664.13
 92.57     631.00
 92.67     639.00
 92.77     657.51
 92.87     652.93
 92.97     744.01
 93.07     750.00
 93.17     765.00
 93.27     722.28
 93.37     802.00
 93.47     789.00
 93.57     830.96
 93.67     808.00
 93.77     798.00
 93.87     860.00
 93.97     812.00
 94.07     857.01
 94.17     891.91
 94.27     832.00
 94.37     895.00
 94.47     850.99
 94.57     860.93
 94.67     895.00
 94.77     919.00
 94.87     929.00
 94.97     857.27
 95.07     861.44
 95.17     927.00
 95.27     882.00
 95.37     757.55
 95.47     769.00
 95.57     750.74
 95.67     707.00
 95.77     672.69
 95.87     754.00
 95.97     703.00
 96.07     702.00
 96.17     732.91
 96.27     734.00
 96.37     729.45
 96.47     835.10
 96.57     820.21
 96.67     935.00
 96.77     971.00
 96.87    1048.00
 96.97    1088.41
 97.07    1231.38
 97.17    1350.38
 97.27    1286.85
 97.37    1361.91
 97.47    1364.12
 97.57    1440.00
 97.67    1396.90
 97.77    1321.55
 97.87    1330.00
 97.97    1270.00
 98.07    1229.00
 98.17    1185.00
 98.27    1126.30
 98.37    1084.00
 98.47     960.00
 98.57     852.00
 98.67     849.00
 98.77     785.49
 98.87     818.00
 98.97     783.00
 99.07     827.00
 99.17     883.19
 99.27     877.00
 99.37     998.00
 99.47    1044.00
 99.57    1075.00
 99.67    1181.00
 99.77    1267.00
 99.87    1460.00
 99.97    1584.00
100.07    1669.69
100.17    1668.00
100.27    1820.00
100.37    1834.31
100.47    1979.77
100.57    2055.09
100.67    2060.00
100.77    2063.00
100.87    2033.15
100.97    2002.51
101.07    1978.00
101.17    1927.00
101.27    1776.00
101.37    1628.00
101.47    1542.56
101.57    1518.00
101.67    1409.00
101.77    1427.15
101.87    1290.00
101.97    1225.00
102.07    1208.00
102.17    1196.74
102.27    1103.00
102.37    1128.00
102.47    1098.00
102.57    1100.00
102.67     986.00
102.77    1002.00
102.87     993.66
102.97    1015.54
103.07     925.00
103.17     903.00
103.27     838.00
103.37     804.00
103.47     744.00
103.57     736.00
103.67     680.00
103.77     660.00
103.87     627.54
103.97     632.00
104.07     626.51
104.17     555.00
104.27     603.00
104.37     570.00
104.47     573.00
104.57     550.00
104.67     532.00
104.77     535.00
104.87     518.00
104.97     535.04
105.07     548.50
105.17     571.00
105.27     525.00
105.37     504.38
105.47     545.05
105.57     523.00
105.67     559.00
105.77     583.00
105.87     564.00
105.97     583.06
106.07     577.00
106.17     613.00
106.27     600.00
106.37     597.00
106.47     611.00
106.57     595.00
106.67     646.64
106.77     621.52
106.87     668.96
106.97     665.66
107.07     699.87
107.17     667.24
107.27     650.00
107.37     666.00
107.47     682.40
107.57     685.00
107.67     677.00
107.77     662.00
107.87     732.00
107.97     697.00
108.07     671.00
108.17     724.35
108.27     656.44
108.37     650.00
108.47     724.34
108.57     717.00
108.67     653.84
108.77     698.00
108.87     740.38
108.97     659.22
109.07     694.00
109.17     674.00
109.27     687.00
109.37     655.00
109.47     618.77
109.57     664.00
109.67     597.25
109.77     562.29
109.87     628.01
109.97     559.86
110.07     588.00
110.17     553.76
110.27     538.58
110.37     539.00
110.47     502.62
110.57     532.17
110.67     548.36
110.77     575.00
110.87     557.00
110.97     562.00
111.07     524.00
111.17     510.38
111.27     544.00
111.37     541.00
111.47     576.88
111.57     576.49
111.67     530.00
111.77     578.00
111.87     577.11
111.97     555.00
112.07     521.62
112.17     528.00
112.27     584.00
112.37     546.06
112.47     613.51
112.57     577.00
112.67     647.00
112.77     594.25
112.87     690.21
112.97     672.00
113.07     668.00
113.17     636.00
113.27     736.00
113.37     710.00
113.47     800.03
113.57     800.00
113.67     829.00
113.77     855.00
113.87     887.00
113.97     982.68
114.07     982.00
114.17    1017.47
114.27    1123.00
114.37    1210.85
114.47    1243.64
114.57    1460.79
114.67    1492.00
114.77    1738.00
114.87    1929.00
114.97    2091.73
115.07    2234.67
115.17    2421.23
115.27    2786.98
115.37    3175.00
115.47    3410.00
115.57    3800.00
115.67    4146.00
115.77    4519.00
115.87    4769.00
115.97    5292.00
116.07    5616.00
116.17    6085.75
116.27    6219.57
116.37    6544.00
116.47    6855.35
116.57    6845.97
116.67    7003.65
116.77    7086.00
116.87    6792.00
116.97    6560.78
117.07    6333.55
117.17    6214.35
117.27    5694.00
117.37    5393.00
117.47    4899.00
117.57    4659.00
117.67    4356.00
117.77    3894.96
117.87    3630.00
117.97    3256.97
118.07    2906.00
118.17    2541.56
118.27    2249.00
118.37    2006.00
118.47    1756.77
118.57    1515.68
118.67    1443.00
118.77    1258.00
118.87    1084.00
118.97    1032.00
119.07     909.35
119.17     872.00
119.27     852.00
119.37     753.00
119.47     731.00
119.57     726.00
119.67     700.83
119.77     645.00
119.87     615.00
119.97     627.00
120.07     603.00
120.17     621.13
120.27     557.00
120.37     543.45
120.47     581.00
120.57     542.02
120.67     582.00
120.77     549.81
120.87     565.00
120.97     586.00
121.07     534.00
121.17     557.00
121.27     532.00
121.37     545.69
121.47     561.00
121.57     585.15
121.67     631.00
121.77     573.94
121.87     611.00
121.97     615.00
122.07     605.00
122.17     636.00
122.27     651.77
122.37     656.64
122.47     660.00
122.57     640.08
122.67     649.00
122.77     683.04
122.87     605.00
122.97     674.00
123.07     633.00
123.17     656.06
123.27     642.00
123.37     644.00
123.47     591.11
123.57     655.00
123.67     607.84
123.77     637.00
123.87     589.64
123.97     620.00
124.07     668.00
124.17     642.00
124.27     645.00
124.37     663.00
124.47     589.00
124.57     583.89
124.67     593.00
124.77     611.00
124.87     591.00
124.97     599.00
