  9.97     722.00
 10.07     701.26
 10.17     757.00
 10.27     709.64
 10.37     730.00
 10.47     741.89
 10.57     764.00
 10.67     757.00
 10.77     696.16
 10.87     726.00
 10.97     733.00
 11.07     764.22
 11.17     701.01
 11.27     747.00
 11.37     722.77
 11.47     772.18
 11.57     797.00
 11.67     705.00
 11.77     761.00
 11.87     764.81
 11.97     802.35
 12.07     822.91
 12.17     858.00
 12.27     858.00
 12.37     834.00
 12.47     802.00
 12.57     804.00
 12.67     799.00
 12.77     680.00
 12.87     702.00
 12.97     713.57
 13.07     707.14
 13.17     755.61
 13.27     655.00
 13.37     667.37
 13.47     698.00
 13.57     700.17
 13.67     722.77
 13.77     735.44
 13.87     664.00
 13.97     671.00
 14.07     673.00
 14.17     672.00
 14.27     704.41
 14.37     708.44
 14.47     669.89
 14.57     664.00
 14.67     675.42
 14.77     656.93
 14.87     664.85
 14.97     610.00
 15.07     682.27
 15.17     718.59
 15.27     709.00
 15.37     638.00
 15.47     674.00
 15.57     685.62
 15.67     673.00
 15.77     683.07
 15.87     668.00
 15.97     687.00
 16.07     628.36
 16.17     719.27
 16.27     644.00
 16.37     705.00
 16.47     659.00
 16.57     636.00
 16.67     648.40
 16.77     622.48
 16.87     675.00
 16.97     699.00
 17.07     665.00
 17.17     675.00
 17.27     645.00
 17.37     628.00
 17.47     684.79
 17.57     682.00
 17.67     630.68
 17.77     658.00
 17.87     653.00
 17.97     633.06
 18.07     658.21
 18.17     645.05
 18.27     668.00
 18.37     653.32
 18.47     639.49
 18.57     654.00
 18.67     613.00
 18.77     635.00
 18.87     634.00
 18.97     666.00
 19.07     655.00
 19.17     619.00
 19.27     629.00
 19.37     677.00
 19.47     647.00
 19.57     652.00
 19.67     650.16
 19.77     629.00
 19.87     620.85
 19.97     598.00
 20.07     605.13
 20.17     584.00
 20.27     598.60
 20.37     643.00
 20.47     691.00
 20.57     630.00
 20.67     621.00
 20.77     623.00
 20.87     632.00
 20.97     642.00
 21.07     614.38
 21.17     636.00
 21.27     659.00
 21.37     680.20
 21.47     624.00
 21.57     597.60
 21.67     668.94
 21.77     653.43
 21.87     612.07
 21.97     628.00
 22.07     648.00
 22.17     593.93
 22.27     614.00
 22.37     643.00
 22.47     650.00
 22.57     642.33
 22.67     630.00
 22.77     581.00
 22.87     640.32
 22.97     604.00
 23.07     657.48
 23.17     630.00
 23.27     663.00
 23.37     625.00
 23.47     631.26
 23.57     641.00
 23.67     606.42
 23.77     631.00
 23.87     646.32
 23.97     667.50
 24.07     634.00
 24.17     657.00
 24.27     685.98
 24.37     650.00
 24.47     686.00
 24.57     686.00
 24.67     718.62
 24.77     653.08
 24.87     744.00
 24.97     696.00
 25.07     733.89
 25.17     694.07
 25.27     696.00
 25.37     716.73
 25.47     686.20
 25.57     627.00
 25.67     707.00
 25.77     643.78
 25.87     680.03
 25.97     696.10
 26.07     676.36
 26.17     640.00
 26.27     625.25
 26.37     660.00
 26.47     631.27
 26.57     630.88
 26.67     690.35
 26.77     680.00
 26.87     701.00
 26.97     656.17
 27.07     689.00
 27.17     712.00
 27.27     706.00
 27.37     723.00
 27.47     756.00
 27.57     802.00
 27.67     795.00
 27.77     878.37
 27.87    1083.00
 27.97    1337.00
 28.07    2110.78
 28.17    3295.00
 28.27    5335.00
 28.37    7692.00
 28.47    9093.00
 28.57    8638.00
 28.67    6694.82
 28.77    4647.52
 28.87    3875.00
 28.97    4010.00
 29.07    4685.00
 29.17    4982.70
 29.27    4702.00
 29.37    3748.00
 29.47    2475.00
 29.57    1771.00
 29.67    1396.21
 29.77    1057.00
 29.87     984.00
 29.97     911.00
 30.07     853.00
 30.17     799.00
 30.27     754.81
 30.37     755.04
 30.47     735.00
 30.57     733.00
 30.67     752.00
 30.77     718.00
 30.87     748.00
 30.97     733.19
 31.07     741.11
 31.17     813.00
 31.27     826.00
 31.37     787.00
 31.47     714.00
 31.57     682.42
 31.67     704.63
 31.77     706.00
 31.87     627.47
 31.97     642.90
 32.07     704.00
 32.17     625.62
 32.27     597.45
 32.37     686.00
 32.47     614.79
 32.57     669.36
 32.67     675.94
 32.77     616.53
 32.87     669.26
 32.97     644.27
 33.07     688.13
 33.17     630.00
 33.27     679.51
 33.37     669.00
 33.47     669.00
 33.57     658.00
 33.67     720.00
 33.77     753.00
 33.87     793.38
 33.97     872.51
 34.07    1019.64
 34.17    1076.75
 34.27    1260.49
 34.37    1286.00
 34.47    1206.00
 34.57    1085.00
 34.67    1003.00
 34.77     820.00
 34.87     808.00
 34.97     724.91
 35.07     752.00
 35.17     666.64
 35.27     691.00
 35.37     620.00
 35.47     643.00
 35.57     596.97
 35.67     649.00
 35.77     603.33
 35.87     624.00
 35.97     648.59
 36.07     654.00
 36.17     597.00
 36.27     611.00
 36.37     613.00
 36.47     607.00
 36.57     563.00
 36.67     583.71
 36.77     637.00
 36.87     637.00
 36.97     627.00
 37.07     617.00
 37.17     578.00
 37.27     620.00
 37.37     621.04
 37.47     641.00
 37.57     662.00
 37.67     661.00
 37.77     663.00
 37.87     709.00
 37.97     683.18
 38.07     760.42
 38.17     733.14
 38.27     826.19
 38.37     818.00
 38.47     756.00
 38.57     805.03
 38.67     730.00
 38.77     726.47
 38.87     655.00
 38.97     655.00
 39.07     680.92
 39.17     665.94
 39.27     661.00
 39.37     650.27
 39.47     616.00
 39.57     589.00
 39.67     643.80
 39.77     559.00
 39.87     661.85
 39.97     635.22
 40.07     603.00
 40.17     630.00
 40.27     573.01
 40.37     603.00
 40.47     622.00
 40.57     574.00
 40.67     550.00
 40.77     642.27
 40.87     610.00
 40.97     617.00
 41.07     647.00
 41.17     581.00
 41.27     591.00
 41.37     600.00
 41.47     595.00
 41.57     603.00
 41.67     657.00
 41.77     555.00
 41.87     615.00
 41.97     605.00
 42.07     568.32
 42.17     623.58
 42.27     600.00
 42.37     641.00
 42.47     668.44
 42.57     641.00
 42.67     615.00
 42.77     630.00
 42.87     629.00
 42.97     677.00
 43.07     717.00
 43.17     732.51
 43.27     713.00
 43.37     660.00
 43.47     659.00
 43.57     675.24
 43.67     624.82
 43.77     674.00
 43.87     583.85
 43.97     573.00
 44.07     607.01
 44.17     630.42
 44.27     578.00
 44.37     645.00
 44.47     675.00
 44.57     633.15
 44.67     615.00
 44.77     575.03
 44.87     615.00
 44.97     590.20
 45.07     592.00
 45.17     642.00
 45.27     620.00
 45.37     607.41
 45.47     638.00
 45.57     590.00
 45.67     665.00
 45.77     642.76
 45.87     613.00
 45.97     578.38
 46.07     630.00
 46.17     637.00
 46.27     630.25
 46.37     607.00
 46.47     636.55
 46.57     624.00
 46.67     644.04
 46.77     670.71
 46.87     598.00
 46.97     633.00
 47.07     613.00
 47.17     594.30
 47.27     613.00
 47.37     618.00
 47.47     668.45
 47.57     645.00
 47.67     667.61
 47.77     647.00
 47.87     662.00
 47.97     617.00
 48.07     694.00
 48.17     632.00
 48.27     670.84
 48.37     679.00
 48.47     698.00
 48.57     714.00
 48.67     690.00
 48.77     633.75
 48.87     639.00
 48.97     714.18
 49.07     662.00
 49.17     633.00
 49.27     687.87
 49.37     631.25
 49.47     675.96
 49.57     657.00
 49.67     731.00
 49.77     759.00
 49.87     793.01
 49.97     949.00
 50.07    1140.00
 50.17    1602.61
 50.27    1889.00
 50.37    2484.00
 50.47    2922.00
 50.57    3161.65
 50.67    3234.05
 50.77    2856.00
 50.87    2400.81
 50.97    1960.00
 51.07    1491.00
 51.17    1187.00
 51.27     996.00
 51.37     880.18
 51.47     796.24
 51.57     765.00
 51.67     742.00
 51.77     774.00
 51.87     782.00
 51.97     754.00
 52.07     676.47
 52.17     724.72
 52.27     730.00
 52.37     727.00
 52.47     725.00
 52.57     710.00
 52.67     728.00
 52.77     713.91
 52.87     680.89
 52.97     698.00
 53.07     703.00
 53.17     748.00
 53.27     742.00
 53.37     795.00
 53.47     847.00
 53.57     930.00
 53.67     986.00
 53.77    1127.00
 53.87    1164.00
 53.97    1363.00
 54.07    1291.00
 54.17    1235.00
 54.27    1227.12
 54.37    1142.05
 54.47     962.00
 54.57     911.00
 54.67     791.00
 54.77     767.00
 54.87     744.00
 54.97     680.03
 55.07     668.03
 55.17     707.00
 55.27     713.00
 55.37     648.62
 55.47     668.00
 55.57     727.49
 55.67     677.00
 55.77     720.00
 55.87     684.00
 55.97     754.91
 56.07     754.14
 56.17     736.79
 56.27     748.93
 56.37     718.00
 56.47     796.00
 56.57     876.00
 56.67    1014.00
 56.77    1210.00
 56.87    1388.62
 56.97    1776.00
 57.07    2112.97
 57.17    2360.22
 57.27    2662.00
 57.37    2856.00
 57.47    2676.63
 57.57    2421.45
 57.67    2258.00
 57.77    1741.89
 57.87    1474.07
 57.97    1265.73
 58.07    1109.62
 58.17     929.00
 58.27     915.33
 58.37     869.00
 58.47     798.00
 58.57     848.00
 58.67     873.00
 58.77     917.13
 58.87     983.00
 58.97    1045.00
 59.07    1072.00
 59.17    1240.00
 59.27    1210.00
 59.37    1306.00
 59.47    1321.00
 59.57    1338.68
 59.67    1415.72
 59.77    1362.00
 59.87    1342.77
 59.97    1285.00
 60.07    1302.00
 60.17    1328.43
 60.27    1265.76
 60.37    1386.00
 60.47    1542.00
 60.57    1574.00
 60.67    1624.00
 60.77    1698.13
 60.87    1545.00
 60.97    1506.00
 61.07    1354.41
 61.17    1297.54
 61.27    1041.00
 61.37     952.25
 61.47     910.00
 61.57     847.00
 61.67     833.47
 61.77     851.00
 61.87     830.32
 61.97     913.00
 62.07    1027.34
 62.17    1196.00
 62.27    1241.75
 62.37    1466.00
 62.47    1660.00
 62.57    1846.73
 62.67    1807.00
 62.77    1820.00
 62.87    1774.00
 62.97    1640.00
 63.07    1525.44
 63.17    1301.00
 63.27    1068.00
 63.37    1055.00
 63.47     914.00
 63.57     914.00
 63.67     799.59
 63.77     793.42
 63.87     759.00
 63.97     783.38
 64.07     725.80
 64.17     774.68
 64.27     751.05
 64.37     870.00
 64.47     842.04
 64.57     956.00
 64.67    1020.00
 64.77    1143.00
 64.87    1162.00
 64.97    1420.00
 65.07    1533.00
 65.17    1663.00
 65.27    1545.00
 65.37    1690.00
 65.47    1623.00
 65.57    1457.00
 65.67    1404.00
 65.77    1218.22
 65.87    1203.26
 65.97     976.00
 66.07    1011.56
 66.17     919.46
 66.27     878.82
 66.37     809.00
 66.47     736.00
 66.57     667.00
 66.67     687.00
 66.77     719.00
 66.87     713.00
 66.97     703.00
 67.07     720.14
 67.17     695.00
 67.27     792.81
 67.37     756.80
 67.47     783.12
 67.57     764.00
 67.67     796.77
 67.77     846.00
 67.87    1007.97
 67.97    1121.36
 68.07    1276.00
 68.17    1535.47
 68.27    1733.00
 68.37    1977.00
 68.47    2299.00
 68.57    2499.00
 68.67    2608.00
 68.77    2573.00
 68.87    2527.00
 68.97    2358.00
 69.07    2145.00
 69.17    1862.34
 69.27    1567.00
 69.37    1363.00
 69.47    1181.00
 69.57    1025.66
 69.67     888.06
 69.77     845.51
 69.87     831.82
 69.97     806.00
 70.07     762.90
 70.17     749.00
 70.27     773.00
 70.37     672.79
 70.47     769.00
 70.57     713.00
 70.67     732.57
 70.77     752.32
 70.87     736.00
 70.97     723.00
 71.07     718.00
 71.17     698.00
 71.27     741.00
 71.37     699.66
 71.47     748.00
 71.57     756.00
 71.67     834.00
 71.77     941.00
 71.87     989.00
 71.97    1119.87
 72.07    1184.00
 72.17    1378.00
 72.27    1487.00
 72.37    1667.00
 72.47    1839.00
 72.57    2075.00
 72.67    2062.00
 72.77    2004.00
 72.87    1940.00
 72.97    1857.21
 73.07    1744.81
 73.17    1565.37
 73.27    1373.00
 73.37    1174.00
 73.47    1040.69
 73.57    1025.00
 73.67     884.88
 73.77     835.00
 73.87     755.00
 73.97     764.00
 74.07     732.00
 74.17     747.00
 74.27     698.00
 74.37     708.00
 74.47     706.00
 74.57     717.00
 74.67     665.00
 74.77     685.38
 74.87     704.00
 74.97     665.00
 75.07     668.06
 75.17     709.00
 75.27     736.00
 75.37     832.00
 75.47     741.00
 75.57     706.00
 75.67     732.36
 75.77     647.12
 75.87     687.00
 75.97     775.00
 76.07     700.99
 76.17     701.00
 76.27     749.00
 76.37     743.00
 76.47     736.00
 76.57     787.00
 76.67     875.00
 76.77     882.00
 76.87     911.00
 76.97     949.00
 77.07    1050.79
 77.17    1029.03
 77.27    1087.00
 77.37    1082.00
 77.47    1090.11
 77.57     983.29
 77.67     924.41
 77.77     936.00
 77.87     870.00
 77.97     829.00
 78.07     755.00
 78.17     764.00
 78.27     719.00
 78.37     679.00
 78.47     686.35
 78.57     670.00
 78.67     642.13
 78.77     656.96
 78.87     667.00
 78.97     630.00
 79.07     680.46
 79.17     641.00
 79.27     618.00
 79.37     648.00
 79.47     637.00
 79.57     673.58
 79.67     664.14
 79.77     603.00
 79.87     642.14
 79.97     632.00
 80.07     654.78
 80.17     613.97
 80.27     641.00
 80.37     693.00
 80.47     653.00
 80.57     690.00
 80.67     774.00
 80.77     730.51
 80.87     892.00
 80.97     920.00
 81.07     960.00
 81.17    1064.00
 81.27    1251.00
 81.37    1253.90
 81.47    1359.00
 81.57    1432.00
 81.67    1591.00
 81.77    1597.00
 81.87    1615.00
 81.97    1548.00
 82.07    1447.24
 82.17    1478.00
 82.27    1348.00
 82.37    1260.23
 82.47    1230.92
 82.57    1105.52
 82.67    1062.00
 82.77    1018.00
 82.87     914.00
 82.97     893.88
 83.07     798.00
 83.17     736.00
 83.27     751.92
 83.37     718.00
 83.47     774.75
 83.57     666.00
 83.67     663.00
 83.77     657.00
 83.87     735.16
 83.97     666.00
 84.07     675.00
 84.17     657.00
 84.27     655.77
 84.37     651.89
 84.47     757.24
 84.57     756.00
 84.67     721.18
 84.77     684.00
 84.87     697.42
 84.97     658.00
 85.07     670.03
 85.17     750.40
 85.27     686.00
 85.37     698.05
 85.47     714.73
 85.57     637.00
 85.67     690.02
 85.77     643.00
 85.87     682.44
 85.97     626.00
 86.07     634.00
 86.17     638.00
 86.27     597.85
 86.37     607.00
 86.47     630.00
 86.57     633.44
 86.67     722.00
 86.77     677.29
 86.87     676.00
 86.97     690.52
 87.07     691.00
 87.17     645.59
 87.27     733.00
 87.37     649.23
 87.47     698.00
 87.57     692.00
 87.67     705.56
 87.77     670.21
 87.87     752.00
 87.97     743.00
 88.07     749.00
 88.17     738.00
 88.27     806.00
 88.37     752.00
 88.47     721.84
 88.57     738.00
 88.67     795.00
 88.77     712.00
 88.87     711.31
 88.97     679.00
 89.07     670.08
 89.17     715.00
 89.27     640.00
 89.37     694.00
 89.47     694.00
 89.57     690.00
 89.67     669.00
 89.77     628.19
 89.87     649.00
 89.97     726.00
 90.07     749.00
 90.17     691.00
 90.27     680.00
 90.37     708.00
 90.47     686.84
 90.57     695.00
 90.67     672.00
 90.77     680.00
 90.87     632.00
 90.97     557.00
 91.07     677.90
 91.17     657.19
 91.27     680.00
 91.37     625.00
 91.47     578.94
 91.57     596.00
 91.67     635.97
 91.77     623.85
 91.87     594.00
 91.97     606.00
 92.07     562.26
 92.17     576.00
 92.27     634.00
 92.37     571.00
 92.47     608.00
 92.57     619.78
 92.67     610.00
 92.77     580.00
 92.87     659.00
 92.97     647.00
 93.07     665.00
 93.17     681.00
 93.27     642.00
 93.37     645.90
 93.47     687.00
 93.57     734.09
 93.67     736.47
 93.77     748.00
 93.87     808.68
 93.97     776.32
 94.07     842.00
 94.17     906.88
 94.27     845.00
 94.37     859.99
 94.47     926.00
 94.57     897.00
 94.67     861.00
 94.77     902.11
 94.87     974.00
 94.97    1032.00
 95.07     940.28
 95.17     977.81
 95.27    1089.85
 95.37     990.60
 95.47    1036.26
 95.57    1083.00
 95.67    1082.00
 95.77    1036.53
 95.87    1113.00
 95.97    1061.00
 96.07    1045.00
 96.17    1023.00
 96.27     935.57
 96.37     926.53
 96.47     905.00
 96.57     956.00
 96.67     865.00
 96.77     821.65
 96.87     851.00
 96.97     802.19
 97.07     836.68
 97.17     859.00
 97.27     906.00
 97.37     960.00
 97.47    1015.98
 97.57    1041.00
 97.67    1109.00
 97.77    1112.52
 97.87    1254.13
 97.97    1318.28
 98.07    1320.00
 98.17    1404.33
 98.27    1442.28
 98.37    1595.70
 98.47    1589.00
 98.57    1594.00
 98.67    1677.44
 98.77    1634.00
 98.87    1562.00
 98.97    1404.00
 99.07    1425.00
 99.17    1398.11
 99.27    1305.00
 99.37    1242.00
 99.47    1131.60
 99.57    1102.01
 99.67    1059.00
 99.77    1009.54
 99.87    1013.00
 99.97    1009.00
100.07    1020.00
100.17    1047.00
100.27     993.00
100.37    1120.00
100.47    1133.52
100.57    1239.00
100.67    1345.00
100.77    1379.71
100.87    1540.00
100.97    1510.31
101.07    1709.00
101.17    1707.66
101.27    1870.06
101.37    1978.00
101.47    1963.00
101.57    2029.58
101.67    2149.01
101.77    2125.97
101.87    2222.13
101.97    2076.00
102.07    2103.55
102.17    2070.00
102.27    2104.75
102.37    2014.90
102.47    1937.19
102.57    1819.00
102.67    1875.41
102.77    1763.00
102.87    1652.00
102.97    1576.00
103.07    1544.00
103.17    1517.89
103.27    1386.39
103.37    1374.00
103.47    1359.00
103.57    1288.98
103.67    1358.00
103.77    1191.00
103.87    1215.00
103.97    1124.00
104.07    1150.00
104.17    1116.00
104.27    1103.00
104.37    1029.88
104.47     981.00
104.57     939.00
104.67     853.01
104.77     818.51
104.87     825.70
104.97     831.45
105.07     827.00
105.17     760.00
105.27     742.00
105.37     744.00
105.47     700.29
105.57     704.00
105.67     633.09
105.77     704.00
105.87     657.00
105.97     676.00
106.07     686.00
106.17     580.50
106.27     662.16
106.37     615.00
106.47     636.95
106.57     634.00
106.67     675.00
106.77     613.00
106.87     616.00
106.97     607.86
107.07     637.00
107.17     654.00
107.27     682.99
107.37     683.00
107.47     736.00
107.57     735.00
107.67     707.26
107.77     681.33
107.87     775.00
107.97     726.00
108.07     812.00
108.17     752.83
108.27     743.00
108.37     803.00
108.47     857.00
108.57     743.00
108.67     805.00
108.77     798.00
108.87     835.00
108.97     783.00
109.07     800.00
109.17     814.00
109.27     760.00
109.37     816.87
109.47     746.00
109.57     821.76
109.67     725.00
109.77     753.14
109.87     827.22
109.97     818.73
110.07     755.98
110.17     809.00
110.27     815.00
110.37     787.00
110.47     751.42
110.57     833.75
110.67     777.00
110.77     793.00
110.87     727.50
110.97     793.87
111.07     754.00
111.17     676.32
111.27     729.00
111.37     677.78
111.47     706.00
111.57     653.19
111.67     657.16
111.77     691.65
111.87     634.00
111.97     646.00
112.07     658.00
112.17     592.99
112.27     595.29
112.37     613.63
112.47     625.00
112.57     600.42
112.67     656.00
112.77     642.00
112.87     588.85
112.97     638.00
113.07     656.34
113.17     620.00
113.27     642.00
113.37     638.00
113.47     606.00
113.57     623.06
113.67     596.00
113.77     621.00
113.87     630.30
113.97     618.00
114.07     629.00
114.17     702.00
114.27     672.00
114.37     705.00
114.47     651.76
114.57     709.00
114.67     700.00
114.77     782.85
114.87     719.81
114.97     737.00
115.07     833.00
115.17     886.00
115.27     866.00
115.37    1013.00
115.47    1024.00
115.57    1206.00
115.67    1202.00
115.77    1400.00
115.87    1451.84
115.97    1599.00
116.07    1790.00
116.17    2105.00
116.27    2340.00
116.37    2511.57
116.47    2969.00
116.57    3253.00
116.67    3434.00
116.77    3736.00
116.87    4066.66
116.97    4701.43
117.07    4987.81
117.17    5322.00
117.27    5819.00
117.37    6136.00
117.47    6626.94
117.57    6732.66
117.67    7160.00
117.77    7259.00
117.87    7455.66
117.97    7425.78
118.07    7620.00
118.17    7714.00
118.27    7553.26
118.37    7210.00
118.47    7048.00
118.57    6874.68
118.67    6460.38
118.77    6240.20
118.87    5910.97
118.97    5303.00
119.07    4976.05
119.17    4642.00
119.27    4202.00
119.37    3985.32
119.47    3508.66
119.57    3352.06
119.67    2867.83
119.77    2698.00
119.87    2467.00
119.97    2160.00
120.07    2056.66
120.17    1858.00
120.27    1631.00
120.37    1549.00
120.47    1422.00
120.57    1269.95
120.67    1252.59
120.77    1135.44
120.87    1122.00
120.97    1071.00
121.07     895.98
121.17     919.00
121.27     930.00
121.37     889.07
121.47     790.13
121.57     795.00
121.67     796.00
121.77     727.02
121.87     763.00
121.97     729.54
122.07     771.80
122.17     744.18
122.27     690.52
122.37     722.00
122.47     733.00
122.57     707.00
122.67     659.00
122.77     720.72
122.87     728.00
122.97     777.01
123.07     728.92
123.17     691.00
123.27     799.28
123.37     756.00
123.47     699.00
123.57     703.00
123.67     734.32
123.77     762.00
123.87     767.00
123.97     734.01
124.07     787.00
124.17     785.00
124.27     849.00
124.37     844.00
124.47     876.00
124.57     819.00
124.67     865.00
124.77     727.95
124.87     827.00
124.97     762.77
