  9.97     631.00
 10.07     543.70
 10.17     605.00
 10.27     575.70
 10.37     563.75
 10.47     586.00
 10.57     552.60
 10.67     553.00
 10.77     597.25
 10.87     600.00
 10.97     626.00
 11.07     636.00
 11.17     579.00
 11.27     579.00
 11.37     589.42
 11.47     583.00
 11.57     531.87
 11.67     592.00
 11.77     552.95
 11.87     681.00
 11.97     621.93
 12.07     647.11
 12.17     622.00
 12.27     718.00
 12.37     659.32
 12.47     604.00
 12.57     593.43
 12.67     572.00
 12.77     575.00
 12.87     576.00
 12.97     523.00
 13.07     595.48
 13.17     612.87
 13.27     611.00
 13.37     552.21
 13.47     614.53
 13.57     555.00
 13.67     565.68
 13.77     510.00
 13.87     524.13
 13.97     553.00
 14.07     529.00
 14.17     556.08
 14.27     573.00
 14.37     570.00
 14.47     591.00
 14.57     612.36
 14.67     536.00
 14.77     554.00
 14.87     543.00
 14.97     586.31
 15.07     581.63
 15.17     533.00
 15.27     518.00
 15.37     540.00
 15.47     552.00
 15.57     525.09
 15.67     532.00
 15.77     610.69
 15.87     565.00
 15.97     559.47
 16.07     557.91
 16.17     579.00
 16.27     596.08
 16.37     592.46
 16.47     537.00
 16.57     536.00
 16.67     590.00
 16.77     508.00
 16.87     557.73
 16.97     572.42
 17.07     608.00
 17.17     558.00
 17.27     581.00
 17.37     564.00
 17.47     577.00
 17.57     602.12
 17.67     549.14
 17.77     543.36
 17.87     551.00
 17.97     531.00
 18.07     565.00
 18.17     586.00
 18.27     548.92
 18.37     593.00
 18.47     603.12
 18.57     560.40
 18.67     547.52
 18.77     540.00
 18.87     506.00
 18.97     594.24
 19.07     593.99
 19.17     562.00
 19.27     554.23
 19.37     539.00
 19.47     537.00
 19.57     566.00
 19.67     562.00
 19.77     571.00
 19.87     524.00
 19.97     512.57
 20.07     587.34
 20.17     590.00
 20.27     537.69
 20.37     538.08
 20.47     512.01
 20.57     557.65
 20.67     567.00
 20.77     523.04
 20.87     520.00
 20.97     568.64
 21.07     556.30
 21.17     587.00
 21.27     546.00
 21.37     513.00
 21.47     538.00
 21.57     581.00
 21.67     586.00
 21.77     533.00
 21.87     551.98
 21.97     582.44
 22.07     556.10
 22.17     603.00
 22.27     528.00
 22.37     540.00
 22.47     502.00
 22.57     558.00
 22.67     586.00
 22.77     531.28
 22.87     553.00
 22.97     563.00
 23.07     513.00
 23.17     567.00
 23.27     512.00
 23.37     542.00
 23.47     605.00
 23.57     557.00
 23.67     568.00
 23.77     568.00
 23.87     557.00
 23.97     578.22
 24.07     540.00
 24.17     530.00
 24.27     510.59
 24.37     596.30
 24.47     567.00
 24.57     599.32
 24.67     628.55
 24.77     682.54
 24.87     607.67
 24.97     581.29
 25.07     617.00
 25.17     565.00
 25.27     543.00
 25.37     534.00
 25.47     591.00
 25.57     569.00
 25.67     569.00
 25.77     549.00
 25.87     584.00
 25.97     572.00
 26.07     529.00
 26.17     575.00
 26.27     497.86
 26.37     635.00
 26.47     555.00
 26.57     506.00
 26.67     557.00
 26.77     520.00
 26.87     571.54
 26.97     563.00
 27.07     537.00
 27.17     576.41
 27.27     524.74
 27.37     569.62
 27.47     575.00
 27.57     522.00
 27.67     579.50
 27.77     548.00
 27.87     614.41
 27.97     703.00
 28.07     765.41
 28.17     906.00
 28.27    1017.21
 28.37     905.00
 28.47     795.82
 28.57     700.00
 28.67     733.64
 28.77     731.00
 28.87     770.20
 28.97     879.56
 29.07     775.52
 29.17     691.00
 29.27     674.72
 29.37     614.00
 29.47     631.18
 29.57     605.00
 29.67     607.00
 29.77     592.00
 29.87     587.00
 29.97     555.00
 30.07     568.05
 30.17     516.00
 30.27     561.00
 30.37     562.00
 30.47     550.00
 30.57     579.00
 30.67     589.00
 30.77     550.00
 30.87     605.81
 30.97     594.29
 31.07     630.00
 31.17     577.00
 31.27     585.00
 31.37     558.00
 31.47     519.00
 31.57     548.00
 31.67     563.00
 31.77     525.00
 31.87     551.00
 31.97     566.41
 32.07     489.12
 32.17     532.00
 32.27     543.00
 32.37     536.00
 32.47     561.89
 32.57     542.00
 32.67     549.00
 32.77     520.00
 32.87     505.00
 32.97     545.38
 33.07     496.97
 33.17     566.00
 33.27     507.83
 33.37     511.29
 33.47     555.50
 33.57     585.00
 33.67     638.00
 33.77     803.00
 33.87     928.00
 33.97    1009.08
 34.07    1124.00
 34.17    1010.00
 34.27     908.71
 34.37     755.00
 34.47     643.85
 34.57     571.95
 34.67     589.02
 34.77     547.00
 34.87     533.00
 34.97     550.00
 35.07     559.00
 35.17     530.00
 35.27     515.00
 35.37     543.00
 35.47     529.00
 35.57     566.00
 35.67     508.00
 35.77     504.46
 35.87     519.00
 35.97     554.44
 36.07     488.00
 36.17     492.30
 36.27     485.00
 36.37     541.00
 36.47     469.00
 36.57     514.00
 36.67     562.00
 36.77     518.00
 36.87     487.00
 36.97     508.00
 37.07     485.42
 37.17     494.00
 37.27     473.74
 37.37     514.00
 37.47     493.00
 37.57     565.47
 37.67     528.00
 37.77     512.00
 37.87     479.00
 37.97     508.00
 38.07     568.00
 38.17     538.96
 38.27     506.00
 38.37     516.00
 38.47     526.66
 38.57     466.00
 38.67     491.00
 38.77     502.40
 38.87     542.24
 38.97     558.00
 39.07     528.00
 39.17     481.00
 39.27     517.24
 39.37     505.53
 39.47     502.00
 39.57     508.23
 39.67     546.58
 39.77     480.00
 39.87     515.00
 39.97     480.00
 40.07     494.00
 40.17     486.60
 40.27     509.52
 40.37     478.26
 40.47     543.20
 40.57     482.00
 40.67     476.00
 40.77     507.00
 40.87     477.47
 40.97     468.14
 41.07     511.00
 41.17     480.00
 41.27     537.70
 41.37     519.69
 41.47     490.00
 41.57     515.60
 41.67     553.00
 41.77     471.00
 41.87     485.76
 41.97     540.00
 42.07     554.00
 42.17     497.00
 42.27     521.00
 42.37     586.85
 42.47     582.00
 42.57     616.19
 42.67     628.34
 42.77     647.75
 42.87     584.00
 42.97     520.00
 43.07     477.00
 43.17     518.00
 43.27     525.00
 43.37     528.43
 43.47     555.00
 43.57     552.42
 43.67     504.24
 43.77     474.00
 43.87     532.91
 43.97     470.95
 44.07     548.00
 44.17     473.62
 44.27     480.00
 44.37     495.26
 44.47     536.00
 44.57     573.00
 44.67     503.00
 44.77     503.00
 44.87     508.00
 44.97     465.00
 45.07     461.90
 45.17     499.00
 45.27     517.00
 45.37     514.00
 45.47     489.00
 45.57     508.22
 45.67     518.68
 45.77     526.69
 45.87     494.33
 45.97     496.00
 46.07     482.00
 46.17     489.00
 46.27     520.00
 46.37     516.00
 46.47     498.00
 46.57     549.24
 46.67     508.00
 46.77     541.00
 46.87     486.00
 46.97     491.00
 47.07     552.25
 47.17     525.00
 47.27     531.00
 47.37     484.22
 47.47     544.00
 47.57     571.00
 47.67     559.96
 47.77     585.50
 47.87     567.00
 47.97     601.00
 48.07     604.00
 48.17     589.85
 48.27     562.00
 48.37     509.00
 48.47     518.00
 48.57     551.00
 48.67     549.00
 48.77     556.00
 48.87     559.47
 48.97     541.00
 49.07     613.00
 49.17     569.00
 49.27     660.00
 49.37     632.00
 49.47     742.59
 49.57     813.30
 49.67     901.00
 49.77    1177.00
 49.87    1453.36
 49.97    1888.00
 50.07    2303.00
 50.17    2470.00
 50.27    2439.81
 50.37    2327.72
 50.47    1915.00
 50.57    1430.00
 50.67    1081.30
 50.77     836.00
 50.87     730.08
 50.97     647.57
 51.07     642.00
 51.17     592.09
 51.27     599.89
 51.37     560.43
 51.47     603.00
 51.57     567.00
 51.67     514.29
 51.77     585.01
 51.87     521.00
 51.97     496.27
 52.07     498.00
 52.17     537.00
 52.27     586.00
 52.37     530.00
 52.47     568.00
 52.57     570.83
 52.67     569.36
 52.77     553.61
 52.87     591.86
 52.97     684.00
 53.07     738.66
 53.17     898.00
 53.27     967.88
 53.37    1065.00
 53.47    1166.00
 53.57    1153.00
 53.67    1054.00
 53.77     949.00
 53.87     889.68
 53.97     747.22
 54.07     713.00
 54.17     657.20
 54.27     545.00
 54.37     612.00
 54.47     504.87
 54.57     536.00
 54.67     560.00
 54.77     534.00
 54.87     594.00
 54.97     553.00
 55.07     559.00
 55.17     549.71
 55.27     546.88
 55.37     579.00
 55.47     555.27
 55.57     593.50
 55.67     581.00
 55.77     592.71
 55.87     567.95
 55.97     601.00
 56.07     666.00
 56.17     756.00
 56.27     846.00
 56.37    1121.00
 56.47    1363.00
 56.57    1735.50
 56.67    2144.00
 56.77    2453.00
 56.87    2644.99
 56.97    2597.00
 57.07    2389.00
 57.17    2101.00
 57.27    1697.00
 57.37    1330.36
 57.47     941.00
 57.57     915.00
 57.67     743.00
 57.77     730.00
 57.87     657.00
 57.97     665.00
 58.07     711.00
 58.17     732.00
 58.27     813.48
 58.37     818.00
 58.47     905.00
 58.57    1129.71
 58.67    1223.50
 58.77    1427.00
 58.87    1559.00
 58.97    1591.00
 59.07    1686.00
 59.17    1561.00
 59.27    1497.58
 59.37    1335.00
 59.47    1333.00
 59.57    1195.00
 59.67    1188.00
 59.77    1141.00
 59.87    1204.00
 59.97    1324.00
 60.07    1354.94
 60.17    1508.00
 60.27    1640.00
 60.37    1544.00
 60.47    1423.00
 60.57    1269.44
 60.67    1128.00
 60.77     893.00
 60.87     738.00
 60.97     680.64
 61.07     663.84
 61.17     693.00
 61.27     613.00
 61.37     634.00
 61.47     698.99
 61.57     767.00
 61.67     821.10
 61.77     959.54
 61.87    1147.00
 61.97    1222.00
 62.07    1414.23
 62.17    1462.48
 62.27    1438.91
 62.37    1251.00
 62.47    1178.00
 62.57    1028.00
 62.67     894.00
 62.77     775.00
 62.87     684.00
 62.97     675.00
 63.07     586.00
 63.17     553.52
 63.27     609.00
 63.37     598.00
 63.47     591.00
 63.57     649.00
 63.67     552.00
 63.77     579.01
 63.87     597.00
 63.97     687.00
 64.07     687.00
 64.17     734.70
 64.27     770.00
 64.37     951.00
 64.47    1020.00
 64.57     961.42
 64.67    1039.16
 64.77    1006.00
 64.87     959.00
 64.97     900.01
 65.07     883.00
 65.17     743.85
 65.27     722.00
 65.37     673.64
 65.47     628.00
 65.57     605.41
 65.67     648.84
 65.77     605.23
 65.87     582.00
 65.97     590.00
 66.07     545.00
 66.17     551.00
 66.27     524.93
 66.37     520.23
 66.47     557.00
 66.57     588.20
 66.67     539.00
 66.77     573.00
 66.87     573.21
 66.97     600.51
 67.07     650.00
 67.17     652.00
 67.27     759.00
 67.37     817.00
 67.47    1068.00
 67.57    1211.00
 67.67    1501.00
 67.77    1830.00
 67.87    1995.00
 67.97    2291.00
 68.07    2386.00
 68.17    2430.11
 68.27    2165.25
 68.37    2092.00
 68.47    1812.83
 68.57    1436.45
 68.67    1301.30
 68.77     998.41
 68.87     881.00
 68.97     739.00
 69.07     724.00
 69.17     637.00
 69.27     628.00
 69.37     577.60
 69.47     586.00
 69.57     544.79
 69.67     555.75
 69.77     546.00
 69.87     567.00
 69.97     543.79
 70.07     580.00
 70.17     520.74
 70.27     565.00
 70.37     596.00
 70.47     575.32
 70.57     611.00
 70.67     582.82
 70.77     569.00
 70.87     639.31
 70.97     650.00
 71.07     606.00
 71.17     687.00
 71.27     804.00
 71.37     877.00
 71.47    1035.57
 71.57    1244.00
 71.67    1377.00
 71.77    1564.88
 71.87    1745.00
 71.97    1885.00
 72.07    1882.00
 72.17    1804.00
 72.27    1720.88
 72.37    1642.00
 72.47    1443.52
 72.57    1397.00
 72.67    1196.00
 72.77    1153.92
 72.87     940.00
 72.97     905.00
 73.07     788.00
 73.17     765.00
 73.27     785.33
 73.37     673.12
 73.47     642.00
 73.57     657.65
 73.67     586.00
 73.77     649.59
 73.87     575.00
 73.97     543.37
 74.07     613.35
 74.17     607.64
 74.27     534.27
 74.37     614.77
 74.47     577.70
 74.57     614.34
 74.67     537.68
 74.77     555.68
 74.87     609.00
 74.97     594.00
 75.07     634.00
 75.17     599.00
 75.27     561.06
 75.37     578.00
 75.47     546.00
 75.57     573.00
 75.67     581.62
 75.77     529.89
 75.87     581.00
 75.97     593.00
 76.07     593.56
 76.17     692.51
 76.27     637.00
 76.37     670.00
 76.47     679.00
 76.57     709.00
 76.67     709.26
 76.77     735.33
 76.87     671.94
 76.97     645.00
 77.07     587.89
 77.17     625.88
 77.27     595.02
 77.37     574.00
 77.47     524.00
 77.57     585.99
 77.67     522.00
 77.77     484.00
 77.87     556.04
 77.97     556.07
 78.07     509.43
 78.17     540.00
 78.27     526.00
 78.37     521.00
 78.47     524.00
 78.57     515.03
 78.67     487.00
 78.77     503.84
 78.87     531.00
 78.97     498.06
 79.07     497.39
 79.17     503.04
 79.27     558.00
 79.37     513.48
 79.47     538.53
 79.57     528.00
 79.67     526.27
 79.77     530.81
 79.87     538.92
 79.97     527.00
 80.07     513.00
 80.17     578.38
 80.27     579.00
 80.37     593.00
 80.47     566.00
 80.57     614.00
 80.67     625.00
 80.77     665.00
 80.87     673.00
 80.97     689.00
 81.07     709.00
 81.17     659.00
 81.27     777.00
 81.37     754.00
 81.47     727.00
 81.57     766.00
 81.67     762.00
 81.77     767.45
 81.87     662.78
 81.97     670.00
 82.07     682.00
 82.17     658.00
 82.27     617.13
 82.37     638.26
 82.47     559.48
 82.57     615.00
 82.67     626.74
 82.77     567.00
 82.87     557.00
 82.97     559.00
 83.07     563.00
 83.17     598.91
 83.27     554.88
 83.37     559.00
 83.47     549.00
 83.57     576.00
 83.67     589.27
 83.77     535.00
 83.87     563.00
 83.97     563.00
 84.07     560.00
 84.17     546.05
 84.27     553.92
 84.37     537.00
 84.47     582.00
 84.57     554.00
 84.67     519.00
 84.77     543.01
 84.87     493.00
 84.97     538.86
 85.07     513.00
 85.17     525.00
 85.27     484.93
 85.37     532.00
 85.47     557.82
 85.57     558.28
 85.67     547.15
 85.77     535.00
 85.87     554.00
 85.97     493.00
 86.07     534.00
 86.17     574.43
 86.27     528.00
 86.37     528.32
 86.47     586.04
 86.57     547.00
 86.67     546.08
 86.77     602.00
 86.87     603.00
 86.97     569.00
 87.07     609.00
 87.17     637.00
 87.27     675.00
 87.37     667.00
 87.47     673.00
 87.57     674.00
 87.67     633.00
 87.77     638.00
 87.87     572.73
 87.97     566.47
 88.07     629.00
 88.17     603.00
 88.27     536.25
 88.37     571.00
 88.47     562.00
 88.57     574.00
 88.67     570.00
 88.77     613.81
 88.87     567.35
 88.97     592.00
 89.07     606.00
 89.17     582.00
 89.27     565.75
 89.37     613.00
 89.47     606.39
 89.57     615.00
 89.67     559.07
 89.77     596.08
 89.87     557.00
 89.97     557.06
 90.07     563.00
 90.17     511.00
 90.27     535.00
 90.37     533.00
 90.47     540.82
 90.57     555.00
 90.67     480.00
 90.77     518.73
 90.87     568.04
 90.97     536.00
 91.07     556.34
 91.17     533.83
 91.27     520.00
 91.37     543.00
 91.47     535.59
 91.57     526.00
 91.67     541.96
 91.77     535.00
 91.87     546.00
 91.97     553.19
 92.07     580.00
 92.17     598.00
 92.27     561.00
 92.37     587.83
 92.47     606.00
 92.57     679.00
 92.67     693.88
 92.77     658.00
 92.87     708.00
 92.97     717.00
 93.07     725.00
 93.17     749.62
 93.27     774.71
 93.37     828.47
 93.47     774.00
 93.57     865.18
 93.67     875.21
 93.77     815.23
 93.87     848.00
 93.97     830.00
 94.07     807.82
 94.17     812.00
 94.27     872.00
 94.37     889.00
 94.47     832.17
 94.57     850.00
 94.67     964.00
 94.77     841.84
 94.87     965.00
 94.97     913.00
 95.07     875.00
 95.17     875.00
 95.27     809.00
 95.37     775.15
 95.47     781.54
 95.57     743.00
 95.67     754.00
 95.77     661.11
 95.87     678.00
 95.97     669.00
 96.07     695.00
 96.17     720.44
 96.27     697.00
 96.37     733.00
 96.47     810.00
 96.57     851.00
 96.67     940.64
 96.77     981.00
 96.87    1049.00
 96.97    1093.00
 97.07    1274.02
 97.17    1327.97
 97.27    1318.76
 97.37    1363.00
 97.47    1423.00
 97.57    1475.00
 97.67    1398.68
 97.77    1404.04
 97.87    1407.25
 97.97    1345.00
 98.07    1233.00
 98.17    1147.00
 98.27    1007.88
 98.37    1054.00
 98.47     959.00
 98.57     863.00
 98.67     832.87
 98.77     788.00
 98.87     776.80
 98.97     813.00
 99.07     841.00
 99.17     818.00
 99.27     850.00
 99.37     913.00
 99.47     985.00
 99.57    1068.00
 99.67    1187.63
 99.77    1337.00
 99.87    1406.00
 99.97    1469.00
100.07    1705.00
100.17    1776.00
100.27    1769.74
100.37    1943.00
100.47    1947.52
100.57    2123.00
100.67    2067.00
100.77    2037.00
100.87    2195.00
100.97    1934.95
101.07    1944.00
101.17    1872.00
101.27    1753.21
101.37    1667.09
101.47    1627.72
101.57    1570.09
101.67    1468.03
101.77    1352.00
101.87    1272.00
101.97    1201.00
102.07    1255.00
102.17    1232.65
102.27    1179.44
102.37    1213.00
102.47    1104.95
102.57    1085.57
102.67    1065.47
102.77    1012.00
102.87     992.25
102.97     964.33
103.07     883.00
103.17     879.00
103.27     856.00
103.37     816.00
103.47     774.45
103.57     758.42
103.67     639.86
103.77     672.00
103.87     614.00
103.97     656.00
104.07     610.00
104.17     568.00
104.27     537.94
104.37     529.87
104.47     583.00
104.57     550.00
104.67     547.71
104.77     542.89
104.87     522.14
104.97     484.96
105.07     549.00
105.17     542.00
105.27     544.00
105.37     515.00
105.47     554.58
105.57     509.00
105.67     557.00
105.77     575.00
105.87     529.00
105.97     582.00
106.07     558.00
106.17     586.00
106.27     598.00
106.37     626.00
106.47     607.10
106.57     648.00
106.67     640.00
106.77     604.00
106.87     679.00
106.97     690.95
107.07     627.00
107.17     726.86
107.27     693.97
107.37     680.00
107.47     696.00
107.57     656.31
107.67     690.85
107.77     705.01
107.87     698.78
107.97     657.00
108.07     719.73
108.17     713.00
108.27     740.04
108.37     651.39
108.47     649.86
108.57     681.00
108.67     708.37
108.77     687.00
108.87     690.00
108.97     704.00
109.07     684.00
109.17     686.48
109.27     691.00
109.37     648.00
109.47     641.00
109.57     648.00
109.67     642.60
109.77     579.00
109.87     671.00
109.97     618.00
110.07     633.00
110.17     551.00
110.27     586.00
110.37     584.00
110.47     580.45
110.57     526.00
110.67     553.00
110.77     567.00
110.87     555.16
110.97     546.51
111.07     611.00
111.17     513.85
111.27     558.62
111.37     519.98
111.47     555.83
111.57     553.00
111.67     583.87
111.77     543.59
111.87     568.00
111.97     578.00
112.07     526.00
112.17     546.00
112.27     609.00
112.37     540.00
112.47     570.00
112.57     581.58
112.67     632.00
112.77     669.10
112.87     695.71
112.97     682.06
113.07     655.88
113.17     719.00
113.27     719.00
113.37     764.00
113.47     746.10
113.57     787.00
113.67     905.00
113.77     846.74
113.87     956.00
113.97     995.75
114.07    1017.00
114.17    1120.00
114.27    1201.00
114.37    1296.00
114.47    1328.00
114.57    1473.00
114.67    1555.52
114.77    1691.26
114.87    1871.00
114.97    2088.00
115.07    2359.00
115.17    2545.00
115.27    2897.00
115.37    3101.50
115.47    3389.00
115.57    3827.47
115.67    4060.78
115.77    4425.00
115.87    4790.00
115.97    5281.42
116.07    5501.00
116.17    6094.76
116.27    6293.00
116.37    6643.00
116.47    6659.64
116.57    7010.00
116.67    6951.00
116.77    6916.00
116.87    6809.43
116.97    6611.27
117.07    6340.00
117.17    6080.88
117.27    5717.00
117.37    5485.08
117.47    4979.00
117.57    4614.00
117.67    4275.40
117.77    3946.00
117.87    3680.00
117.97    3246.00
118.07    2902.00
118.17    2541.00
118.27    2222.00
118.37    1982.00
118.47    1775.00
118.57    1578.00
118.67    1343.00
118.77    1179.28
118.87    1130.74
118.97    1055.45
119.07     907.00
119.17     906.00
119.27     782.99
119.37     700.00
119.47     689.00
119.57     684.08
119.67     642.00
119.77     611.00
119.87     609.00
119.97     606.00
120.07     582.86
120.17     622.63
120.27     545.18
120.37     537.30
120.47     593.23
120.57     553.00
120.67     559.00
120.77     560.00
120.87     540.00
120.97     544.00
121.07     519.00
121.17     578.00
121.27     548.00
121.37     555.00
121.47     590.00
121.57     604.00
121.67     574.00
121.77     582.00
121.87     596.28
121.97     597.00
122.07     612.00
122.17     607.00
122.27     609.00
122.37     626.00
122.47     663.59
122.57     641.00
122.67     650.00
122.77     645.14
122.87     646.00
122.97     588.37
123.07     704.00
123.17     672.79
123.27     603.24
123.37     616.84
123.47     578.00
123.57     659.00
123.67     647.00
123.77     608.00
123.87     667.00
123.97     652.67
124.07     655.15
124.17     626.00
124.27     620.00
124.37     577.12
124.47     570.97
124.57     631.71
124.67     569.11
124.77     576.00
124.87     590.69
124.97     563.00
