  9.97     596.00
 10.07     645.00
 10.17     611.58
 10.27     592.08
 10.37     577.16
 10.47     532.00
 10.57     574.29
 10.67     602.59
 10.77     590.88
 10.87     565.38
 10.97     570.00
 11.07     574.00
 11.17     592.00
 11.27     595.00
 11.37     597.65
 11.47     594.14
 11.57     626.00
 11.67     575.66
 11.77     660.00
 11.87     606.11
 11.97     664.86
 12.07     683.16
 12.17     659.00
 12.27     729.78
 12.37     665.00
 12.47     603.00
 12.57     597.00
 12.67     555.00
 12.77     594.00
 12.87     545.14
 12.97     562.00
 13.07     603.99
 13.17     564.00
 13.27     617.21
 13.37     569.00
 13.47     594.46
 13.57     548.47
 13.67     555.00
 13.77     526.00
 13.87     603.32
 13.97     554.00
 14.07     500.00
 14.17     543.63
 14.27     521.25
 14.37     529.00
 14.47     550.23
 14.57     549.00
 14.67     560.99
 14.77     560.00
 14.87     589.00
 14.97     586.80
 15.07     578.00
 15.17     478.00
 15.27     539.00
 15.37     618.00
 15.47     536.00
 15.57     521.56
 15.67     596.00
 15.77     538.00
 15.87     561.00
 15.97     593.48
 16.07     592.00
 16.17     573.78
 16.27     573.00
 16.37     543.62
 16.47     531.00
 16.57     541.00
 16.67     582.24
 16.77     520.74
 16.87     553.00
 16.97     548.58
 17.07     515.00
 17.17     529.79
 17.27     556.00
 17.37     539.00
 17.47     527.00
 17.57     569.00
 17.67     570.00
 17.77     571.00
 17.87     562.00
 17.97     568.00
 18.07     583.99
 18.17     566.00
 18.27     566.85
 18.37     527.00
 18.47     588.00
 18.57     580.00
 18.67     570.85
 18.77     560.78
 18.87     589.82
 18.97     563.73
 19.07     590.80
 19.17     565.00
 19.27     551.64
 19.37     564.00
 19.47     577.00
 19.57     522.00
 19.67     578.00
 19.77     565.00
 19.87     559.00
 19.97     595.97
 20.07     571.72
 20.17     565.00
 20.27     600.67
 20.37     551.00
 20.47     572.00
 20.57     563.99
 20.67     532.00
 20.77     544.57
 20.87     551.00
 20.97     568.00
 21.07     528.47
 21.17     544.00
 21.27     574.36
 21.37     562.00
 21.47     594.00
 21.57     583.00
 21.67     517.36
 21.77     588.30
 21.87     542.00
 21.97     527.98
 22.07     574.00
 22.17     532.00
 22.27     564.64
 22.37     530.00
 22.47     572.00
 22.57     516.94
 22.67     559.00
 22.77     552.00
 22.87     521.00
 22.97     535.00
 23.07     524.74
 23.17     569.00
 23.27     525.00
 23.37     588.92
 23.47     525.99
 23.57     535.13
 23.67     540.00
 23.77     504.34
 23.87     577.75
 23.97     506.00
 24.07     573.84
 24.17     597.32
 24.27     597.91
 24.37     594.00
 24.47     617.68
 24.57     571.00
 24.67     644.16
 24.77     601.00
 24.87     610.00
 24.97     582.00
 25.07     556.00
 25.17     596.92
 25.27     549.00
 25.37     503.09
 25.47     529.00
 25.57     575.05
 25.67     562.00
 25.77     558.00
 25.87     567.00
 25.97     551.00
 26.07     569.74
 26.17     508.83
 26.27     564.00
 26.37     509.78
 26.47     596.00
 26.57     544.00
 26.67     543.00
 26.77     552.00
 26.87     562.00
 26.97     558.00
 27.07     567.00
 27.17     520.00
 27.27     503.37
 27.37     531.86
 27.47     559.00
 27.57     575.77
 27.67     572.00
 27.77     559.44
 27.87     623.00
 27.97     649.31
 28.07     779.00
 28.17     934.00
 28.27     970.14
 28.37     886.00
 28.47     801.00
 28.57     732.00
 28.67     655.00
 28.77     768.02
 28.87     804.00
 28.97     845.00
 29.07     792.00
 29.17     685.00
 29.27     659.00
 29.37     642.00
 29.47     560.00
 29.57     588.00
 29.67     604.00
 29.77     567.84
 29.87     619.00
 29.97     552.00
 30.07     552.22
 30.17     544.00
 30.27     540.00
 30.37     615.00
 30.47     543.00
 30.57     576.10
 30.67     581.00
 30.77     565.88
 30.87     574.00
 30.97     626.00
 31.07     619.00
 31.17     585.00
 31.27     560.00
 31.37     543.60
 31.47     563.00
 31.57     527.00
 31.67     507.00
 31.77     556.00
 31.87     506.00
 31.97     565.00
 32.07     574.00
 32.17     513.15
 32.27     539.00
 32.37     573.00
 32.47     566.00
 32.57     549.30
 32.67     541.00
 32.77     548.00
 32.87     556.93
 32.97     556.07
 33.07     554.00
 33.17     540.00
 33.27     547.00
 33.37     540.00
 33.47     536.07
 33.57     583.39
 33.67     623.85
 33.77     788.00
 33.87     883.00
 33.97    1043.00
 34.07     997.00
 34.17     990.00
 34.27     916.00
 34.37     745.00
 34.47     651.00
 34.57     544.00
 34.67     564.00
 34.77     527.13
 34.87     534.00
 34.97     515.00
 35.07     579.00
 35.17     551.23
 35.27     498.00
 35.37     506.00
 35.47     499.26
 35.57     548.00
 35.67     525.00
 35.77     509.07
 35.87     547.00
 35.97     464.00
 36.07     488.00
 36.17     506.00
 36.27     535.00
 36.37     536.00
 36.47     529.54
 36.57     511.00
 36.67     503.71
 36.77     509.00
 36.87     521.00
 36.97     525.76
 37.07     555.92
 37.17     527.85
 37.27     544.08
 37.37     511.00
 37.47     533.00
 37.57     517.00
 37.67     500.88
 37.77     547.00
 37.87     532.00
 37.97     508.00
 38.07     489.17
 38.17     540.92
 38.27     543.91
 38.37     486.66
 38.47     554.00
 38.57     510.00
 38.67     505.00
 38.77     492.05
 38.87     508.14
 38.97     531.00
 39.07     486.00
 39.17     521.76
 39.27     461.00
 39.37     563.00
 39.47     495.39
 39.57     495.00
 39.67     515.46
 39.77     518.00
 39.87     500.00
 39.97     516.00
 40.07     471.96
 40.17     505.64
 40.27     514.00
 40.37     493.00
 40.47     518.54
 40.57     502.00
 40.67     463.00
 40.77     466.95
 40.87     468.00
 40.97     493.00
 41.07     519.00
 41.17     488.67
 41.27     550.23
 41.37     504.00
 41.47     504.00
 41.57     504.70
 41.67     492.00
 41.77     491.23
 41.87     505.00
 41.97     473.89
 42.07     490.00
 42.17     500.10
 42.27     504.00
 42.37     538.35
 42.47     573.74
 42.57     578.00
 42.67     608.00
 42.77     629.00
 42.87     603.00
 42.97     593.72
 43.07     598.14
 43.17     566.49
 43.27     547.23
 43.37     486.62
 43.47     522.00
 43.57     497.00
 43.67     482.44
 43.77     453.00
 43.87     532.94
 43.97     514.00
 44.07     478.00
 44.17     542.40
 44.27     475.17
 44.37     475.25
 44.47     458.00
 44.57     527.93
 44.67     530.76
 44.77     511.00
 44.87     511.00
 44.97     502.00
 45.07     526.00
 45.17     479.00
 45.27     517.12
 45.37     546.00
 45.47     477.00
 45.57     542.00
 45.67     500.00
 45.77     480.00
 45.87     509.00
 45.97     515.00
 46.07     526.00
 46.17     549.53
 46.27     500.48
 46.37     514.99
 46.47     508.00
 46.57     510.00
 46.67     533.00
 46.77     521.00
 46.87     519.00
 46.97     529.00
 47.07     529.71
 47.17     549.00
 47.27     491.24
 47.37     555.00
 47.47     547.00
 47.57     582.33
 47.67     553.69
 47.77     573.00
 47.87     637.05
 47.97     625.00
 48.07     559.00
 48.17     583.33
 48.27     593.95
 48.37     592.00
 48.47     517.00
 48.57     574.00
 48.67     505.48
 48.77     555.00
 48.87     574.22
 48.97     534.00
 49.07     589.25
 49.17     594.00
 49.27     633.09
 49.37     669.00
 49.47     704.00
 49.57     745.51
 49.67     892.00
 49.77    1094.00
 49.87    1440.13
 49.97    1870.00
 50.07    2256.00
 50.17    2542.00
 50.27    2526.44
 50.37    2333.48
 50.47    1876.70
 50.57    1485.16
 50.67     998.00
 50.77     847.00
 50.87     718.00
 50.97     660.00
 51.07     653.00
 51.17     591.00
 51.27     640.31
 51.37     607.88
 51.47     528.14
 51.57     574.00
 51.67     573.00
 51.77     544.00
 51.87     514.61
 51.97     585.00
 52.07     587.00
 52.17     519.27
 52.27     590.00
 52.37     536.00
 52.47     582.46
 52.57     563.00
 52.67     621.00
 52.77     580.00
 52.87     613.49
 52.97     734.00
 53.07     848.00
 53.17     965.00
 53.27    1029.00
 53.37    1155.00
 53.47    1133.00
 53.57    1140.00
 53.67    1075.00
 53.77    1003.14
 53.87     863.00
 53.97     813.64
 54.07     690.00
 54.17     599.00
 54.27     584.38
 54.37     558.00
 54.47     591.00
 54.57     582.47
 54.67     574.00
 54.77     580.00
 54.87     592.53
 54.97     582.03
 55.07     541.26
 55.17     555.00
 55.27     533.00
 55.37     580.00
 55.47     588.00
 55.57     586.67
 55.67     591.76
 55.77     569.07
 55.87     642.11
 55.97     595.00
 56.07     652.00
 56.17     811.47
 56.27     918.00
 56.37    1180.00
 56.47    1405.00
 56.57    1912.60
 56.67    2247.66
 56.77    2558.00
 56.87    2673.00
 56.97    2685.72
 57.07    2453.00
 57.17    2030.97
 57.27    1701.00
 57.37    1327.00
 57.47    1045.00
 57.57     893.00
 57.67     735.14
 57.77     714.00
 57.87     669.00
 57.97     610.27
 58.07     677.71
 58.17     760.07
 58.27     796.41
 58.37     818.00
 58.47     947.00
 58.57    1107.33
 58.67    1179.00
 58.77    1253.00
 58.87    1393.00
 58.97    1507.60
 59.07    1467.00
 59.17    1432.20
 59.27    1410.00
 59.37    1376.00
 59.47    1318.00
 59.57    1154.00
 59.67    1134.00
 59.77    1189.00
 59.87    1263.00
 59.97    1298.00
 60.07    1507.00
 60.17    1557.66
 60.27    1522.74
 60.37    1500.46
 60.47    1439.00
 60.57    1263.00
 60.67    1131.79
 60.77     924.03
 60.87     788.93
 60.97     759.15
 61.07     649.00
 61.17     631.00
 61.27     607.00
 61.37     637.66
 61.47     774.00
 61.57     757.80
 61.67     876.00
 61.77     946.00
 61.87    1164.00
 61.97    1258.00
 62.07    1425.00
 62.17    1461.00
 62.27    1479.59
 62.37    1331.68
 62.47    1176.00
 62.57     993.00
 62.67     912.21
 62.77     731.00
 62.87     709.00
 62.97     627.00
 63.07     602.99
 63.17     614.00
 63.27     603.00
 63.37     545.00
 63.47     598.00
 63.57     578.00
 63.67     583.00
 63.77     662.00
 63.87     633.00
 63.97     719.00
 64.07     739.00
 64.17     749.74
 64.27     807.00
 64.37     852.00
 64.47     986.00
 64.57     998.00
 64.67    1065.88
 64.77    1002.00
 64.87     966.00
 64.97     933.00
 65.07     859.00
 65.17     812.17
 65.27     721.00
 65.37     704.00
 65.47     660.00
 65.57     584.46
 65.67     619.00
 65.77     641.08
 65.87     534.00
 65.97     607.00
 66.07     512.00
 66.17     520.00
 66.27     581.00
 66.37     544.00
 66.47     604.73
 66.57     554.00
 66.67     609.61
 66.77     545.00
 66.87     581.00
 66.97     576.37
 67.07     684.00
 67.17     694.48
 67.27     809.13
 67.37     901.72
 67.47    1053.16
 67.57    1293.75
 67.67    1575.00
 67.77    1748.00
 67.87    2061.00
 67.97    2360.00
 68.07    2539.00
 68.17    2494.00
 68.27    2266.00
 68.37    2175.00
 68.47    1749.09
 68.57    1583.00
 68.67    1202.00
 68.77    1026.58
 68.87     915.00
 68.97     765.70
 69.07     707.00
 69.17     640.00
 69.27     640.00
 69.37     628.00
 69.47     601.00
 69.57     614.35
 69.67     594.00
 69.77     553.32
 69.87     536.23
 69.97     588.00
 70.07     580.00
 70.17     567.68
 70.27     564.00
 70.37     611.88
 70.47     567.00
 70.57     568.00
 70.67     560.00
 70.77     572.00
 70.87     603.00
 70.97     637.00
 71.07     659.02
 71.17     694.00
 71.27     804.00
 71.37     933.59
 71.47    1076.41
 71.57    1215.00
 71.67    1518.94
 71.77    1671.69
 71.87    1779.07
 71.97    1902.00
 72.07    1904.00
 72.17    1967.00
 72.27    1779.92
 72.37    1616.00
 72.47    1385.27
 72.57    1325.84
 72.67    1224.80
 72.77    1086.48
 72.87     856.00
 72.97     864.00
 73.07     825.31
 73.17     770.00
 73.27     667.00
 73.37     676.00
 73.47     641.00
 73.57     642.01
 73.67     580.00
 73.77     575.00
 73.87     571.00
 73.97     583.00
 74.07     594.00
 74.17     598.21
 74.27     594.52
 74.37     582.00
 74.47     552.51
 74.57     547.39
 74.67     591.77
 74.77     605.77
 74.87     614.00
 74.97     586.77
 75.07     551.00
 75.17     612.00
 75.27     569.14
 75.37     523.64
 75.47     584.00
 75.57     522.00
 75.67     609.00
 75.77     623.43
 75.87     619.00
 75.97     586.54
 76.07     687.00
 76.17     654.00
 76.27     686.00
 76.37     703.00
 76.47     750.00
 76.57     750.49
 76.67     720.00
 76.77     743.00
 76.87     609.00
 76.97     605.57
 77.07     603.00
 77.17     567.00
 77.27     610.59
 77.37     610.38
 77.47     570.44
 77.57     515.92
 77.67     563.00
 77.77     528.00
 77.87     554.00
 77.97     536.38
 78.07     528.00
 78.17     503.00
 78.27     489.00
 78.37     497.00
 78.47     512.00
 78.57     560.00
 78.67     548.38
 78.77     492.00
 78.87     496.00
 78.97     522.00
 79.07     525.00
 79.17     521.93
 79.27     537.00
 79.37     541.00
 79.47     520.43
 79.57     514.00
 79.67     529.00
 79.77     523.51
 79.87     556.00
 79.97     540.00
 80.07     512.99
 80.17     561.94
 80.27     605.00
 80.37     597.00
 80.47     591.00
 80.57     571.00
 80.67     616.00
 80.77     673.09
 80.87     657.00
 80.97     656.69
 81.07     709.00
 81.17     685.75
 81.27     730.18
 81.37     772.00
 81.47     729.00
 81.57     783.00
 81.67     787.00
 81.77     745.00
 81.87     706.50
 81.97     709.00
 82.07     644.00
 82.17     662.00
 82.27     586.65
 82.37     612.00
 82.47     607.00
 82.57     580.00
 82.67     597.26
 82.77     577.00
 82.87     584.00
 82.97     550.55
 83.07     539.00
 83.17     572.00
 83.27     536.36
 83.37     531.43
 83.47     524.84
 83.57     521.48
 83.67     558.00
 83.77     532.00
 83.87     640.00
 83.97     558.27
 84.07     583.00
 84.17     579.00
 84.27     548.00
 84.37     584.00
 84.47     581.00
 84.57     535.00
 84.67     585.00
 84.77     531.00
 84.87     548.00
 84.97     490.00
 85.07     503.00
 85.17     564.00
 85.27     530.61
 85.37     499.00
 85.47     557.20
 85.57     572.00
 85.67     542.91
 85.77     567.47
 85.87     555.00
 85.97     569.15
 86.07     536.35
 86.17     510.00
 86.27     556.00
 86.37     521.40
 86.47     553.00
 86.57     563.00
 86.67     590.00
 86.77     583.00
 86.87     623.00
 86.97     608.51
 87.07     623.00
 87.17     653.00
 87.27     651.90
 87.37     640.73
 87.47     637.00
 87.57     627.00
 87.67     682.00
 87.77     648.00
 87.87     687.00
 87.97     631.68
 88.07     593.67
 88.17     623.00
 88.27     585.00
 88.37     551.00
 88.47     541.00
 88.57     613.00
 88.67     587.00
 88.77     566.46
 88.87     560.32
 88.97     558.00
 89.07     583.00
 89.17     613.00
 89.27     619.18
 89.37     565.39
 89.47     597.00
 89.57     583.34
 89.67     599.00
 89.77     547.00
 89.87     626.01
 89.97     577.00
 90.07     564.00
 90.17     540.42
 90.27     582.00
 90.37     514.45
 90.47     546.00
 90.57     518.00
 90.67     512.67
 90.77     501.00
 90.87     527.00
 90.97     506.00
 91.07     497.00
 91.17     557.11
 91.27     505.36
 91.37     522.00
 91.47     556.00
 91.57     488.91
 91.67     542.59
 91.77     522.00
 91.87     519.23
 91.97     509.65
 92.07     547.10
 92.17     540.00
 92.27     592.10
 92.37     632.86
 92.47     655.96
 92.57     658.00
 92.67     658.00
 92.77     719.00
 92.87     679.67
 92.97     735.00
 93.07     723.71
 93.17     722.55
 93.27     744.23
 93.37     776.00
 93.47     799.91
 93.57     790.18
 93.67     793.67
 93.77     850.00
 93.87     796.75
 93.97     781.39
 94.07     827.91
 94.17     836.00
 94.27     880.88
 94.37     840.00
 94.47     889.00
 94.57     889.21
 94.67     950.00
 94.77     923.00
 94.87     877.00
 94.97     903.53
 95.07     903.37
 95.17     812.60
 95.27     809.62
 95.37     821.00
 95.47     785.00
 95.57     792.00
 95.67     723.00
 95.77     713.00
 95.87     666.17
 95.97     638.30
 96.07     758.00
 96.17     654.22
 96.27     717.00
 96.37     792.00
 96.47     826.02
 96.57     899.65
 96.67     983.18
 96.77    1032.01
 96.87    1028.00
 96.97    1201.29
 97.07    1185.00
 97.17    1300.42
 97.27    1376.00
 97.37    1407.63
 97.47    1425.13
 97.57    1448.00
 97.67    1392.07
 97.77    1348.00
 97.87    1386.00
 97.97    1299.00
 98.07    1199.00
 98.17    1089.00
 98.27    1135.00
 98.37    1079.58
 98.47    1020.00
 98.57     940.13
 98.67     813.00
 98.77     842.00
 98.87     770.00
 98.97     752.00
 99.07     844.00
 99.17     781.00
 99.27     925.10
 99.37     958.00
 99.47    1011.72
 99.57    1070.00
 99.67    1199.00
 99.77    1229.18
 99.87    1398.00
 99.97    1591.01
100.07    1616.00
100.17    1765.53
100.27    1833.54
100.37    1873.00
100.47    2077.00
100.57    1973.31
100.67    1990.29
100.77    2148.00
100.87    2046.06
100.97    1985.12
101.07    1967.00
101.17    1868.00
101.27    1848.00
101.37    1752.00
101.47    1568.50
101.57    1566.00
101.67    1438.29
101.77    1331.97
101.87    1311.00
101.97    1228.00
102.07    1147.00
102.17    1178.00
102.27    1133.00
102.37    1100.00
102.47    1053.36
102.57    1052.00
102.67    1073.00
102.77    1052.00
102.87     939.00
102.97     925.01
103.07     901.00
103.17     835.50
103.27     872.00
103.37     837.17
103.47     792.51
103.57     750.00
103.67     703.00
103.77     706.00
103.87     643.00
103.97     637.00
104.07     645.00
104.17     583.84
104.27     589.57
104.37     604.57
104.47     550.83
104.57     513.32
104.67     565.57
104.77     590.00
104.87     563.00
104.97     494.00
105.07     535.00
105.17     546.00
105.27     567.83
105.37     515.24
105.47     562.00
105.57     562.00
105.67     593.00
105.77     543.62
105.87     553.00
105.97     560.00
106.07     583.00
106.17     565.24
106.27     635.24
106.37     569.12
106.47     610.00
106.57     632.00
106.67     660.00
106.77     662.00
106.87     619.96
106.97     632.40
107.07     666.00
107.17     679.00
107.27     703.00
107.37     674.00
107.47     686.27
107.57     691.55
107.67     652.00
107.77     688.00
107.87     652.00
107.97     712.00
108.07     687.00
108.17     656.99
108.27     667.93
108.37     698.00
108.47     659.00
108.57     639.00
108.67     669.00
108.77     667.56
108.87     640.00
108.97     685.00
109.07     685.15
109.17     646.00
109.27     684.00
109.37     649.00
109.47     628.09
109.57     703.00
109.67     578.15
109.77     646.89
109.87     604.00
109.97     607.00
110.07     600.00
110.17     535.60
110.27     567.00
110.37     556.00
110.47     579.00
110.57     546.00
110.67     542.00
110.77     530.67
110.87     554.00
110.97     522.00
111.07     536.00
111.17     539.64
111.27     535.00
111.37     569.43
111.47     469.00
111.57     548.00
111.67     530.00
111.77     539.00
111.87     577.31
111.97     601.30
112.07     592.72
112.17     565.02
112.27     606.05
112.37     547.49
112.47     565.00
112.57     602.00
112.67     618.52
112.77     599.00
112.87     573.00
112.97     668.00
113.07     653.65
113.17     720.00
113.27     696.00
113.37     686.00
113.47     740.00
113.57     808.00
113.67     785.67
113.77     893.10
113.87     845.00
113.97     952.00
114.07     952.12
114.17    1031.00
114.27    1055.00
114.37    1163.03
114.47    1376.00
114.57    1361.84
114.67    1458.62
114.77    1648.00
114.87    1882.87
114.97    2079.00
115.07    2400.00
115.17    2571.00
115.27    2896.00
115.37    3127.00
115.47    3387.00
115.57    3748.83
115.67    4050.00
115.77    4474.00
115.87    5043.36
115.97    5298.00
116.07    5538.00
116.17    5834.00
116.27    6204.88
116.37    6597.00
116.47    6820.00
116.57    6781.00
116.67    7046.55
116.77    6721.36
116.87    6845.00
116.97    6843.00
117.07    6289.00
117.17    6162.00
117.27    5888.90
117.37    5275.00
117.47    5017.30
117.57    4693.00
117.67    4327.00
117.77    3965.00
117.87    3443.80
117.97    3256.00
118.07    2942.00
118.17    2490.00
118.27    2308.00
118.37    2027.93
118.47    1741.24
118.57    1607.00
118.67    1349.42
118.77    1201.00
118.87    1205.51
118.97     992.00
119.07     990.06
119.17     922.44
119.27     839.10
119.37     757.00
119.47     765.84
119.57     681.00
119.67     648.00
119.77     630.00
119.87     633.85
119.97     614.00
120.07     624.15
120.17     639.21
120.27     607.90
120.37     565.00
120.47     571.00
120.57     587.00
120.67     618.00
120.77     597.00
120.87     566.10
120.97     585.00
121.07     562.00
121.17     587.00
121.27     604.82
121.37     582.00
121.47     595.00
121.57     608.00
121.67     614.11
121.77     610.00
121.87     607.00
121.97     589.61
122.07     636.39
122.17     630.00
122.27     664.00
122.37     591.17
122.47     625.00
122.57     609.60
122.67     625.00
122.77     627.00
122.87     664.00
122.97     611.32
123.07     653.69
123.17     605.00
123.27     660.00
123.37     670.00
123.47     615.00
123.57     605.08
123.67     604.00
123.77     655.00
123.87     596.36
123.97     671.18
124.07     663.00
124.17     614.00
124.27     568.00
124.37     591.00
124.47     618.00
124.57     583.55
124.67     602.00
124.77     559.00
124.87     579.00
124.97     595.00
