  9.97     632.00
 10.07     610.00
 10.17     599.00
 10.27     573.80
 10.37     535.48
 10.47     593.00
 10.57     563.63
 10.67     567.00
 10.77     584.00
 10.87     583.00
 10.97     588.00
 11.07     565.35
 11.17     608.93
 11.27     571.12
 11.37     614.00
 11.47     557.00
 11.57     593.00
 11.67     623.00
 11.77     591.00
 11.87     622.00
 11.97     640.22
 12.07     700.00
 12.17     673.40
 12.27     682.33
 12.37     641.22
 12.47     601.00
 12.57     561.63
 12.67     574.00
 12.77     576.28
 12.87     606.65
 12.97     575.59
 13.07     530.48
 13.17     547.29
 13.27     607.00
 13.37     533.00
 13.47     512.00
 13.57     538.00
 13.67     611.64
 13.77     581.82
 13.87     588.00
 13.97     522.00
 14.07     571.00
 14.17     550.00
 14.27     577.00
 14.37     568.55
 14.47     577.88
 14.57     533.00
 14.67     546.56
 14.77     543.00
 14.87     532.00
 14.97     527.00
 15.07     561.00
 15.17     603.00
 15.27     615.35
 15.37     601.00
 15.47     607.00
 15.57     564.00
 15.67     534.91
 15.77     562.00
 15.87     601.67
 15.97     507.00
 16.07     564.41
 16.17     572.00
 16.27     593.00
 16.37     577.00
 16.47     589.00
 16.57     538.00
 16.67     569.00
 16.77     526.00
 16.87     557.00
 16.97     539.00
 17.07     517.00
 17.17     562.00
 17.27     540.00
 17.37     547.00
 17.47     499.00
 17.57     552.00
 17.67     576.00
 17.77     602.00
 17.87     504.00
 17.97     592.00
 18.07     575.00
 18.17     577.00
 18.27     520.00
 18.37     578.70
 18.47     587.00
 18.57     556.00
 18.67     547.00
 18.77     525.89
 18.87     559.00
 18.97     561.00
 19.07     578.00
 19.17     603.53
 19.27     597.00
 19.37     550.40
 19.47     545.00
 19.57     593.50
 19.67     566.00
 19.77     533.00
 19.87     533.00
 19.97     573.00
 20.07     545.64
 20.17     534.00
 20.27     544.00
 20.37     606.28
 20.47     566.72
 20.57     537.52
 20.67     574.00
 20.77     529.00
 20.87     541.00
 20.97     557.00
 21.07     571.00
 21.17     595.00
 21.27     528.00
 21.37     560.00
 21.47     561.00
 21.57     585.92
 21.67     571.53
 21.77     579.00
 21.87     578.00
 21.97     543.00
 22.07     552.00
 22.17     544.70
 22.27     570.80
 22.37     569.00
 22.47     505.74
 22.57     557.00
 22.67     581.00
 22.77     540.37
 22.87     555.00
 22.97     498.00
 23.07     592.28
 23.17     484.00
 23.27     594.00
 23.37     537.00
 23.47     550.00
 23.57     528.92
 23.67     552.13
 23.77     574.00
 23.87     544.00
 23.97     578.62
 24.07     587.00
 24.17     568.00
 24.27     564.21
 24.37     572.00
 24.47     572.00
 24.57     618.00
 24.67     650.00
 24.77     580.00
 24.87     634.00
 24.97     643.00
 25.07     593.00
 25.17     579.00
 25.27     549.00
 25.37     558.00
 25.47     544.58
 25.57     514.60
 25.67     584.06
 25.77     553.00
 25.87     536.87
 25.97     552.10
 26.07     574.00
 26.17     536.00
 26.27     569.88
 26.37     527.20
 26.47     530.00
 26.57     496.52
 26.67     556.00
 26.77     557.08
 26.87     560.67
 26.97     518.20
 27.07     553.00
 27.17     508.79
 27.27     573.69
 27.37     535.00
 27.47     547.12
 27.57     563.07
 27.67     578.00
 27.77     585.29
 27.87     628.00
 27.97     680.00
 28.07     775.76
 28.17     883.32
 28.27     969.00
 28.37     929.00
 28.47     766.76
 28.57     680.00
 28.67     692.04
 28.77     722.00
 28.87     813.00
 28.97     844.23
 29.07     790.00
 29.17     681.00
 29.27     653.25
 29.37     616.75
 29.47     649.00
 29.57     541.55
 29.67     620.00
 29.77     578.87
 29.87     539.00
 29.97     604.00
 30.07     558.00
 30.17     556.00
 30.27     561.00
 30.37     582.00
 30.47     541.94
 30.57     560.85
 30.67     585.78
 30.77     594.00
 30.87     615.00
 30.97     634.00
 31.07     571.56
 31.17     590.00
 31.27     548.00
 31.37     499.00
 31.47     504.25
 31.57     586.00
 31.67     559.00
 31.77     506.18
 31.87     496.50
 31.97     535.00
 32.07     518.00
 32.17     556.13
 32.27     535.00
 32.37     552.00
 32.47     563.00
 32.57     550.00
 32.67     511.56
 32.77     546.30
 32.87     563.00
 32.97     553.00
 33.07     548.00
 33.17     569.82
 33.27     522.00
 33.37     589.00
 33.47     565.00
 33.57     624.00
 33.67     663.00
 33.77     709.00
 33.87     839.32
 33.97    1026.00
 34.07    1110.18
 34.17    1057.00
 34.27     858.53
 34.37     822.05
 34.47     643.00
 34.57     568.00
 34.67     575.50
 34.77     582.00
 34.87     519.00
 34.97     523.00
 35.07     528.00
 35.17     525.00
 35.27     502.00
 35.37     545.06
 35.47     500.00
 35.57     474.00
 35.67     501.00
 35.77     478.53
 35.87     512.56
 35.97     508.00
 36.07     503.00
 36.17     536.00
 36.27     496.00
 36.37     504.88
 36.47     473.08
 36.57     514.98
 36.67     533.00
 36.77     493.54
 36.87     495.00
 36.97     518.78
 37.07     477.60
 37.17     495.00
 37.27     506.00
 37.37     508.00
 37.47     553.99
 37.57     534.00
 37.67     514.00
 37.77     529.00
 37.87     559.59
 37.97     525.00
 38.07     531.00
 38.17     549.16
 38.27     502.00
 38.37     502.00
 38.47     500.65
 38.57     508.00
 38.67     478.00
 38.77     478.43
 38.87     521.00
 38.97     502.00
 39.07     516.35
 39.17     524.65
 39.27     468.00
 39.37     506.27
 39.47     436.00
 39.57     528.13
 39.67     470.00
 39.77     469.98
 39.87     512.87
 39.97     491.00
 40.07     488.00
 40.17     517.05
 40.27     523.00
 40.37     466.00
 40.47     520.75
 40.57     512.00
 40.67     527.00
 40.77     542.59
 40.87     460.00
 40.97     521.00
 41.07     485.44
 41.17     456.00
 41.27     471.00
 41.37     502.18
 41.47     477.12
 41.57     540.86
 41.67     496.32
 41.77     471.00
 41.87     490.00
 41.97     513.46
 42.07     531.00
 42.17     533.00
 42.27     571.02
 42.37     548.00
 42.47     539.00
 42.57     622.22
 42.67     608.81
 42.77     625.13
 42.87     533.00
 42.97     554.00
 43.07     508.95
 43.17     449.00
 43.27     475.32
 43.37     514.00
 43.47     483.00
 43.57     521.57
 43.67     524.31
 43.77     481.00
 43.87     517.33
 43.97     533.00
 44.07     497.00
 44.17     455.00
 44.27     488.00
 44.37     478.78
 44.47     507.00
 44.57     531.00
 44.67     518.00
 44.77     500.00
 44.87     522.00
 44.97     488.93
 45.07     516.00
 45.17     543.00
 45.27     502.09
 45.37     483.09
 45.47     483.00
 45.57     464.40
 45.67     479.38
 45.77     476.00
 45.87     520.00
 45.97     507.00
 46.07     460.00
 46.17     471.89
 46.27     515.13
 46.37     516.00
 46.47     488.00
 46.57     497.00
 46.67     538.00
 46.77     458.62
 46.87     488.00
 46.97     514.00
 47.07     572.00
 47.17     509.00
 47.27     542.77
 47.37     506.00
 47.47     545.00
 47.57     559.00
 47.67     592.00
 47.77     585.00
 47.87     564.00
 47.97     561.00
 48.07     620.00
 48.17     582.00
 48.27     545.00
 48.37     506.97
 48.47     572.80
 48.57     515.00
 48.67     524.00
 48.77     549.00
 48.87     565.00
 48.97     552.00
 49.07     555.97
 49.17     626.52
 49.27     638.00
 49.37     641.00
 49.47     677.55
 49.57     762.00
 49.67     900.00
 49.77    1130.00
 49.87    1398.39
 49.97    1809.00
 50.07    2147.32
 50.17    2454.70
 50.27    2547.00
 50.37    2373.00
 50.47    1988.12
 50.57    1571.00
 50.67    1163.81
 50.77     943.49
 50.87     722.00
 50.97     644.00
 51.07     618.00
 51.17     623.00
 51.27     594.00
 51.37     611.00
 51.47     585.00
 51.57     580.06
 51.67     542.00
 51.77     503.84
 51.87     569.00
 51.97     509.98
 52.07     553.00
 52.17     536.00
 52.27     564.00
 52.37     525.00
 52.47     547.00
 52.57     561.00
 52.67     523.00
 52.77     608.94
 52.87     563.92
 52.97     671.86
 53.07     771.00
 53.17     896.00
 53.27    1033.81
 53.37    1071.00
 53.47    1170.00
 53.57    1228.00
 53.67    1206.60
 53.77    1013.00
 53.87     848.00
 53.97     756.00
 54.07     674.00
 54.17     643.00
 54.27     557.69
 54.37     600.00
 54.47     557.00
 54.57     607.00
 54.67     514.00
 54.77     568.00
 54.87     548.45
 54.97     536.44
 55.07     494.84
 55.17     574.04
 55.27     552.00
 55.37     569.00
 55.47     561.75
 55.57     539.26
 55.67     519.36
 55.77     547.00
 55.87     582.53
 55.97     651.00
 56.07     625.00
 56.17     753.75
 56.27     811.00
 56.37     994.00
 56.47    1299.37
 56.57    1743.29
 56.67    1991.00
 56.77    2328.00
 56.87    2657.00
 56.97    2672.00
 57.07    2439.00
 57.17    2253.00
 57.27    1807.52
 57.37    1391.00
 57.47    1125.00
 57.57     889.00
 57.67     722.40
 57.77     749.16
 57.87     713.00
 57.97     691.87
 58.07     701.27
 58.17     720.00
 58.27     775.00
 58.37     790.00
 58.47    1010.77
 58.57    1143.00
 58.67    1260.76
 58.77    1376.00
 58.87    1546.00
 58.97    1636.00
 59.07    1663.00
 59.17    1592.00
 59.27    1499.16
 59.37    1383.89
 59.47    1247.86
 59.57    1184.00
 59.67    1158.00
 59.77    1153.55
 59.87    1231.00
 59.97    1260.36
 60.07    1418.59
 60.17    1491.30
 60.27    1583.00
 60.37    1585.40
 60.47    1446.00
 60.57    1306.00
 60.67    1129.24
 60.77     983.00
 60.87     824.00
 60.97     763.00
 61.07     694.32
 61.17     629.00
 61.27     600.00
 61.37     611.66
 61.47     673.65
 61.57     722.00
 61.67     840.26
 61.77     985.63
 61.87    1061.93
 61.97    1196.49
 62.07    1365.00
 62.17    1393.26
 62.27    1505.05
 62.37    1452.15
 62.47    1314.00
 62.57    1073.00
 62.67     920.00
 62.77     811.00
 62.87     664.00
 62.97     641.00
 63.07     596.09
 63.17     584.00
 63.27     570.00
 63.37     577.00
 63.47     621.00
 63.57     588.00
 63.67     558.00
 63.77     602.39
 63.87     556.59
 63.97     580.19
 64.07     711.00
 64.17     724.61
 64.27     818.00
 64.37     866.00
 64.47     963.00
 64.57    1027.99
 64.67     970.56
 64.77    1005.94
 64.87     946.73
 64.97     955.00
 65.07     847.00
 65.17     833.18
 65.27     756.00
 65.37     691.35
 65.47     652.73
 65.57     592.00
 65.67     571.69
 65.77     581.00
 65.87     541.00
 65.97     572.00
 66.07     527.46
 66.17     550.30
 66.27     525.00
 66.37     525.23
 66.47     516.93
 66.57     515.84
 66.67     577.00
 66.77     588.77
 66.87     559.00
 66.97     541.00
 67.07     620.12
 67.17     637.00
 67.27     739.00
 67.37     841.00
 67.47    1000.00
 67.57    1180.00
 67.67    1426.00
 67.77    1698.00
 67.87    1954.00
 67.97    2150.00
 68.07    2347.00
 68.17    2438.00
 68.27    2250.00
 68.37    2088.12
 68.47    1875.00
 68.57    1662.16
 68.67    1349.91
 68.77    1117.00
 68.87     859.00
 68.97     802.00
 69.07     710.43
 69.17     665.28
 69.27     656.00
 69.37     610.00
 69.47     594.00
 69.57     568.00
 69.67     531.02
 69.77     572.00
 69.87     576.87
 69.97     605.00
 70.07     540.08
 70.17     577.53
 70.27     565.00
 70.37     586.00
 70.47     538.21
 70.57     550.00
 70.67     548.00
 70.77     550.00
 70.87     563.50
 70.97     615.34
 71.07     660.00
 71.17     681.00
 71.27     753.00
 71.37     856.00
 71.47     992.00
 71.57    1149.25
 71.67    1420.88
 71.77    1560.00
 71.87    1704.20
 71.97    1854.00
 72.07    1885.00
 72.17    1951.23
 72.27    1860.00
 72.37    1726.00
 72.47    1481.00
 72.57    1439.00
 72.67    1267.00
 72.77    1076.00
 72.87    1051.00
 72.97     903.00
 73.07     843.00
 73.17     783.00
 73.27     756.00
 73.37     691.00
 73.47     672.00
 73.57     557.00
 73.67     606.00
 73.77     591.00
 73.87     609.00
 73.97     570.13
 74.07     601.00
 74.17     589.00
 74.27     561.00
 74.37     524.64
 74.47     617.00
 74.57     664.00
 74.67     629.00
 74.77     545.71
 74.87     603.24
 74.97     631.00
 75.07     572.00
 75.17     600.00
 75.27     512.23
 75.37     578.00
 75.47     559.00
 75.57     545.00
 75.67     583.39
 75.77     553.00
 75.87     561.00
 75.97     584.00
 76.07     619.00
 76.17     610.00
 76.27     610.00
 76.37     706.00
 76.47     707.72
 76.57     675.00
 76.67     716.00
 76.77     732.22
 76.87     694.00
 76.97     625.00
 77.07     698.00
 77.17     576.00
 77.27     545.00
 77.37     618.00
 77.47     562.63
 77.57     514.00
 77.67     517.00
 77.77     532.00
 77.87     561.44
 77.97     555.92
 78.07     506.00
 78.17     522.00
 78.27     481.91
 78.37     540.00
 78.47     513.08
 78.57     508.08
 78.67     537.00
 78.77     529.00
 78.87     573.00
 78.97     498.00
 79.07     562.31
 79.17     511.00
 79.27     503.00
 79.37     516.00
 79.47     513.00
 79.57     567.98
 79.67     535.86
 79.77     536.00
 79.87     543.00
 79.97     558.66
 80.07     567.76
 80.17     591.77
 80.27     531.87
 80.37     558.34
 80.47     593.57
 80.57     612.00
 80.67     579.08
 80.77     642.00
 80.87     620.91
 80.97     714.00
 81.07     719.01
 81.17     728.00
 81.27     698.77
 81.37     762.55
 81.47     732.00
 81.57     735.00
 81.67     803.00
 81.77     727.00
 81.87     716.00
 81.97     741.22
 82.07     717.69
 82.17     651.10
 82.27     601.66
 82.37     638.00
 82.47     617.00
 82.57     618.95
 82.67     566.00
 82.77     555.31
 82.87     500.00
 82.97     526.00
 83.07     546.00
 83.17     547.00
 83.27     516.00
 83.37     527.93
 83.47     537.70
 83.57     540.00
 83.67     544.74
 83.77     548.81
 83.87     552.58
 83.97     618.00
 84.07     571.98
 84.17     585.82
 84.27     590.00
 84.37     606.72
 84.47     571.00
 84.57     536.00
 84.67     521.00
 84.77     511.00
 84.87     525.89
 84.97     552.00
 85.07     570.03
 85.17     507.00
 85.27     554.00
 85.37     556.33
 85.47     554.10
 85.57     563.13
 85.67     531.48
 85.77     519.00
 85.87     564.00
 85.97     551.94
 86.07     492.00
 86.17     508.10
 86.27     548.00
 86.37     531.69
 86.47     537.00
 86.57     577.00
 86.67     596.96
 86.77     533.00
 86.87     610.00
 86.97     622.26
 87.07     653.00
 87.17     579.00
 87.27     688.00
 87.37     661.52
 87.47     638.00
 87.57     663.12
 87.67     670.00
 87.77     635.00
 87.87     607.97
 87.97     618.00
 88.07     629.38
 88.17     617.00
 88.27     578.00
 88.37     543.51
 88.47     564.00
 88.57     576.00
 88.67     543.03
 88.77     569.00
 88.87     558.00
 88.97     572.87
 89.07     564.14
 89.17     611.00
 89.27     555.19
 89.37     596.00
 89.47     582.00
 89.57     572.89
 89.67     614.00
 89.77     579.03
 89.87     544.00
 89.97     522.00
 90.07     554.00
 90.17     542.00
 90.27     509.00
 90.37     567.78
 90.47     528.10
 90.57     561.00
 90.67     487.00
 90.77     530.00
 90.87     516.00
 90.97     523.00
 91.07     505.00
 91.17     537.00
 91.27     520.00
 91.37     555.85
 91.47     502.19
 91.57     525.00
 91.67     531.00
 91.77     522.00
 91.87     544.73
 91.97     520.00
 92.07     541.00
 92.17     564.28
 92.27     597.00
 92.37     588.00
 92.47     626.24
 92.57     618.00
 92.67     599.00
 92.77     633.50
 92.87     653.00
 92.97     763.00
 93.07     712.20
 93.17     772.00
 93.27     785.00
 93.37     835.00
 93.47     822.00
 93.57     777.84
 93.67     822.00
 93.77     816.00
 93.87     863.00
 93.97     839.00
 94.07     823.00
 94.17     905.00
 94.27     877.50
 94.37     857.00
 94.47     887.00
 94.57     853.29
 94.67     853.50
 94.77     901.00
 94.87     863.85
 94.97     936.02
 95.07     914.09
 95.17     865.00
 95.27     831.00
 95.37     829.63
 95.47     742.00
 95.57     758.86
 95.67     770.73
 95.77     694.00
 95.87     668.00
 95.97     717.40
 96.07     670.00
 96.17     691.34
 96.27     673.00
 96.37     735.00
 96.47     753.00
 96.57     813.64
 96.67     924.26
 96.77     904.00
 96.87    1014.71
 96.97    1151.00
 97.07    1189.00
 97.17    1300.82
 97.27    1266.00
 97.37    1401.00
 97.47    1388.00
 97.57    1480.00
 97.67    1423.00
 97.77    1358.00
 97.87    1438.00
 97.97    1353.00
 98.07    1229.00
 98.17    1212.33
 98.27    1082.19
 98.37    1013.00
 98.47     989.00
 98.57     979.00
 98.67     896.29
 98.77     850.00
 98.87     791.00
 98.97     782.82
 99.07     767.78
 99.17     865.62
 99.27     882.00
 99.37     892.00
 99.47     960.35
 99.57    1008.00
 99.67    1081.88
 99.77    1180.43
 99.87    1261.00
 99.97    1460.00
100.07    1596.00
100.17    1759.00
100.27    1828.33
100.37    1929.64
100.47    1965.00
100.57    1935.08
100.67    2035.00
100.77    2141.92
100.87    2156.00
100.97    2112.00
101.07    2005.00
101.17    1990.00
101.27    1869.00
101.37    1845.00
101.47    1710.00
101.57    1670.91
101.67    1519.00
101.77    1426.17
101.87    1368.00
101.97    1257.85
102.07    1244.00
102.17    1122.00
102.27    1145.00
102.37    1191.00
102.47    1088.76
102.57    1111.00
102.67    1103.62
102.77    1042.00
102.87    1001.00
102.97     986.30
103.07     948.00
103.17     898.66
103.27     835.00
103.37     795.97
103.47     781.00
103.57     726.26
103.67     761.00
103.77     692.00
103.87     635.03
103.97     662.38
104.07     588.00
104.17     550.56
104.27     616.95
104.37     600.00
104.47     567.00
104.57     527.00
104.67     570.15
104.77     563.46
104.87     559.00
104.97     556.00
105.07     565.00
105.17     556.94
105.27     539.00
105.37     559.26
105.47     513.05
105.57     563.00
105.67     567.00
105.77     536.00
105.87     585.00
105.97     580.40
106.07     593.00
106.17     538.27
106.27     581.00
106.37     600.00
106.47     637.13
106.57     591.00
106.67     560.00
106.77     626.00
106.87     587.00
106.97     703.90
107.07     738.00
107.17     676.00
107.27     633.00
107.37     711.50
107.47     748.23
107.57     734.50
107.67     698.68
107.77     624.00
107.87     691.79
107.97     645.56
108.07     667.00
108.17     664.00
108.27     708.51
108.37     681.00
108.47     665.00
108.57     659.00
108.67     650.17
108.77     683.00
108.87     702.00
108.97     658.05
109.07     676.00
109.17     681.00
109.27     641.12
109.37     643.00
109.47     633.00
109.57     618.00
109.67     661.66
109.77     610.00
109.87     646.46
109.97     609.64
110.07     556.72
110.17     584.96
110.27     574.00
110.37     535.16
110.47     596.00
110.57     562.00
110.67     579.23
110.77     567.94
110.87     538.00
110.97     541.00
111.07     560.00
111.17     552.90
111.27     574.35
111.37     533.97
111.47     556.00
111.57     559.58
111.67     557.90
111.77     590.00
111.87     518.00
111.97     582.00
112.07     517.46
112.17     529.76
112.27     605.00
112.37     550.56
112.47     571.00
112.57     576.00
112.67     568.63
112.77     652.00
112.87     662.00
112.97     685.00
113.07     679.00
113.17     700.00
113.27     697.00
113.37     748.00
113.47     789.00
113.57     783.31
113.67     846.00
113.77     945.00
113.87     971.00
113.97     993.00
114.07    1028.00
114.17    1129.00
114.27    1087.66
114.37    1210.66
114.47    1301.00
114.57    1334.49
114.67    1587.00
114.77    1600.90
114.87    1842.00
114.97    1995.00
115.07    2230.00
115.17    2462.03
115.27    2630.41
115.37    2891.00
115.47    3254.52
115.57    3604.00
115.67    3871.00
115.77    4417.00
115.87    4549.00
115.97    4957.00
116.07    5571.76
116.17    5784.00
116.27    6085.00
116.37    6379.74
116.47    6730.49
116.57    6905.67
116.67    6926.28
116.77    7101.00
116.87    6912.00
116.97    6955.00
117.07    6920.00
117.17    6580.00
117.27    6050.00
117.37    5915.01
117.47    5363.00
117.57    4992.00
117.67    4408.00
117.77    4324.00
117.87    3979.00
117.97    3552.00
118.07    3185.00
118.17    2816.00
118.27    2534.00
118.37    2109.00
118.47    1864.41
118.57    1737.00
118.67    1549.37
118.77    1316.47
118.87    1195.00
118.97    1114.00
119.07    1021.20
119.17     940.37
119.27     867.00
119.37     784.70
119.47     738.43
119.57     707.56
119.67     720.00
119.77     707.59
119.87     669.17
119.97     667.32
120.07     661.53
120.17     572.90
120.27     588.00
120.37     562.43
120.47     571.00
120.57     557.48
120.67     569.00
120.77     589.89
120.87     579.48
120.97     546.00
121.07     557.00
121.17     578.25
121.27     577.00
121.37     599.40
121.47     581.96
121.57     539.55
121.67     549.00
121.77     547.00
121.87     577.88
121.97     582.00
122.07     622.00
122.17     607.40
122.27     621.00
122.37     615.00
122.47     609.00
122.57     676.00
122.67     658.00
122.77     603.00
122.87     679.58
122.97     595.99
123.07     649.23
123.17     641.18
123.27     656.00
123.37     672.37
123.47     633.00
123.57     640.00
123.67     647.52
123.77     621.00
123.87     639.94
123.97     589.00
124.07     674.00
124.17     625.00
124.27     592.02
124.37     592.00
124.47     612.00
124.57     577.00
124.67     572.00
124.77     558.00
124.87     612.00
124.97     572.45
