  9.97     536.00
 10.07     592.61
 10.17     583.85
 10.27     568.30
 10.37     600.00
 10.47     567.98
 10.57     558.52
 10.67     588.00
 10.77     566.47
 10.87     592.00
 10.97     600.41
 11.07     564.00
 11.17     512.47
 11.27     593.00
 11.37     585.17
 11.47     593.00
 11.57     596.76
 11.67     563.00
 11.77     604.00
 11.87     600.00
 11.97     583.86
 12.07     698.00
 12.17     702.91
 12.27     735.49
 12.37     669.00
 12.47     686.40
 12.57     587.00
 12.67     595.00
 12.77     550.00
 12.87     611.08
 12.97     587.00
 13.07     586.67
 13.17     531.12
 13.27     525.00
 13.37     546.87
 13.47     537.00
 13.57     521.64
 13.67     530.61
 13.77     559.00
 13.87     538.00
 13.97     606.45
 14.07     580.20
 14.17     549.00
 14.27     590.00
 14.37     511.00
 14.47     578.00
 14.57     539.00
 14.67     558.00
 14.77     557.00
 14.87     566.00
 14.97     528.73
 15.07     567.40
 15.17     516.75
 15.27     506.00
 15.37     580.98
 15.47     565.67
 15.57     545.00
 15.67     546.14
 15.77     594.87
 15.87     536.00
 15.97     547.95
 16.07     593.42
 16.17     562.36
 16.27     598.00
 16.37     551.00
 16.47     583.00
 16.57     536.00
 16.67     561.00
 16.77     561.00
 16.87     496.00
 16.97     524.00
 17.07     537.28
 17.17     562.00
 17.27     520.00
 17.37     516.00
 17.47     513.00
 17.57     562.90
 17.67     576.00
 17.77     533.70
 17.87     547.00
 17.97     537.00
 18.07     545.00
 18.17     514.00
 18.27     556.60
 18.37     515.95
 18.47     571.57
 18.57     572.00
 18.67     515.77
 18.77     554.00
 18.87     522.00
 18.97     584.55
 19.07     592.35
 19.17     581.00
 19.27     554.00
 19.37     583.00
 19.47     524.22
 19.57     538.00
 19.67     553.00
 19.77     563.47
 19.87     522.49
 19.97     559.40
 20.07     593.25
 20.17     562.00
 20.27     561.00
 20.37     570.00
 20.47     516.00
 20.57     522.00
 20.67     582.83
 20.77     517.00
 20.87     535.00
 20.97     550.00
 21.07     555.13
 21.17     571.00
 21.27     555.00
 21.37     527.54
 21.47     536.00
 21.57     527.24
 21.67     513.12
 21.77     564.23
 21.87     581.79
 21.97     555.26
 22.07     554.00
 22.17     528.00
 22.27     571.00
 22.37     570.00
 22.47     531.49
 22.57     508.83
 22.67     576.71
 22.77     561.57
 22.87     547.00
 22.97     519.71
 23.07     579.59
 23.17     507.44
 23.27     554.00
 23.37     496.00
 23.47     553.00
 23.57     535.00
 23.67     540.00
 23.77     549.00
 23.87     542.44
 23.97     530.00
 24.07     589.96
 24.17     569.03
 24.27     549.00
 24.37     595.40
 24.47     587.00
 24.57     597.48
 24.67     605.00
 24.77     633.00
 24.87     641.00
 24.97     622.00
 25.07     628.00
 25.17     608.13
 25.27     568.00
 25.37     633.00
 25.47     535.00
 25.57     590.93
 25.67     539.00
 25.77     560.00
 25.87     546.81
 25.97     551.00
 26.07     548.75
 26.17     561.00
 26.27     575.97
 26.37     498.75
 26.47     553.26
 26.57     548.42
 26.67     578.00
 26.77     575.00
 26.87     499.90
 26.97     564.00
 27.07     584.00
 27.17     573.74
 27.27     584.00
 27.37     566.41
 27.47     544.75
 27.57     589.00
 27.67     566.15
 27.77     551.77
 27.87     576.00
 27.97     629.00
 28.07     715.00
 28.17     843.00
 28.27     975.00
 28.37     908.00
 28.47     837.00
 28.57     773.00
 28.67     692.00
 28.77     727.00
 28.87     795.00
 28.97     787.24
 29.07     796.00
 29.17     773.00
 29.27     705.00
 29.37     624.00
 29.47     583.00
 29.57     599.00
 29.67     574.00
 29.77     555.00
 29.87     547.38
 29.97     597.00
 30.07     521.25
 30.17     583.00
 30.27     564.78
 30.37     604.00
 30.47     558.89
 30.57     547.33
 30.67     575.00
 30.77     607.00
 30.87     627.73
 30.97     630.00
 31.07     637.73
 31.17     622.00
 31.27     541.00
 31.37     573.00
 31.47     500.00
 31.57     503.82
 31.67     568.00
 31.77     546.00
 31.87     490.57
 31.97     516.88
 32.07     514.00
 32.17     573.00
 32.27     503.00
 32.37     552.00
 32.47     495.17
 32.57     537.75
 32.67     534.00
 32.77     537.00
 32.87     559.00
 32.97     536.00
 33.07     513.16
 33.17     563.00
 33.27     520.93
 33.37     576.42
 33.47     541.34
 33.57     556.48
 33.67     606.33
 33.77     730.68
 33.87     796.00
 33.97     941.00
 34.07    1001.48
 34.17    1062.23
 34.27     964.00
 34.37     893.71
 34.47     715.82
 34.57     690.68
 34.67     583.00
 34.77     553.51
 34.87     543.00
 34.97     522.00
 35.07     529.47
 35.17     532.00
 35.27     496.00
 35.37     529.00
 35.47     506.86
 35.57     473.97
 35.67     472.86
 35.77     519.00
 35.87     532.32
 35.97     499.38
 36.07     502.00
 36.17     499.06
 36.27     511.00
 36.37     525.77
 36.47     467.00
 36.57     533.18
 36.67     474.90
 36.77     462.33
 36.87     521.00
 36.97     505.43
 37.07     500.59
 37.17     465.00
 37.27     496.00
 37.37     516.00
 37.47     465.00
 37.57     500.32
 37.67     521.00
 37.77     512.00
 37.87     525.00
 37.97     479.18
 38.07     502.53
 38.17     526.60
 38.27     463.00
 38.37     476.73
 38.47     480.00
 38.57     492.44
 38.67     467.54
 38.77     505.00
 38.87     478.00
 38.97     483.00
 39.07     520.82
 39.17     491.00
 39.27     495.47
 39.37     469.00
 39.47     490.00
 39.57     486.00
 39.67     486.83
 39.77     486.20
 39.87     498.56
 39.97     508.00
 40.07     493.00
 40.17     484.00
 40.27     510.00
 40.37     482.00
 40.47     464.51
 40.57     479.58
 40.67     509.70
 40.77     471.00
 40.87     509.00
 40.97     520.22
 41.07     456.00
 41.17     509.00
 41.27     530.57
 41.37     503.68
 41.47     492.55
 41.57     476.00
 41.67     494.47
 41.77     491.01
 41.87     456.46
 41.97     489.00
 42.07     467.00
 42.17     476.18
 42.27     504.00
 42.37     485.00
 42.47     541.00
 42.57     574.00
 42.67     562.00
 42.77     549.00
 42.87     588.00
 42.97     580.00
 43.07     561.00
 43.17     525.00
 43.27     557.00
 43.37     546.96
 43.47     496.19
 43.57     469.00
 43.67     484.50
 43.77     519.85
 43.87     488.44
 43.97     534.00
 44.07     492.97
 44.17     481.00
 44.27     452.00
 44.37     470.00
 44.47     524.29
 44.57     531.79
 44.67     468.61
 44.77     503.00
 44.87     507.20
 44.97     516.00
 45.07     511.00
 45.17     486.00
 45.27     496.00
 45.37     505.00
 45.47     518.96
 45.57     491.00
 45.67     485.00
 45.77     481.00
 45.87     497.00
 45.97     466.00
 46.07     477.00
 46.17     470.09
 46.27     504.23
 46.37     462.34
 46.47     517.00
 46.57     522.00
 46.67     474.00
 46.77     486.99
 46.87     488.89
 46.97     464.47
 47.07     475.00
 47.17     475.88
 47.27     531.00
 47.37     470.26
 47.47     501.00
 47.57     554.70
 47.67     547.00
 47.77     551.00
 47.87     582.40
 47.97     643.00
 48.07     605.00
 48.17     568.00
 48.27     562.06
 48.37     543.89
 48.47     530.00
 48.57     551.00
 48.67     492.00
 48.77     530.84
 48.87     532.00
 48.97     562.00
 49.07     528.00
 49.17     536.00
 49.27     540.00
 49.37     586.00
 49.47     612.04
 49.57     612.13
 49.67     709.00
 49.77     857.00
 49.87    1107.00
 49.97    1464.00
 50.07    1759.00
 50.17    2052.00
 50.27    2339.00
 50.37    2329.00
 50.47    2135.00
 50.57    1813.66
 50.67    1363.00
 50.77    1048.00
 50.87     829.84
 50.97     764.00
 51.07     714.00
 51.17     655.31
 51.27     600.00
 51.37     591.00
 51.47     562.00
 51.57     578.00
 51.67     563.33
 51.77     591.00
 51.87     521.24
 51.97     523.00
 52.07     553.14
 52.17     491.26
 52.27     556.80
 52.37     527.77
 52.47     571.00
 52.57     525.00
 52.67     508.15
 52.77     598.00
 52.87     606.00
 52.97     633.90
 53.07     673.00
 53.17     809.62
 53.27     861.80
 53.37     975.00
 53.47    1099.00
 53.57    1221.00
 53.67    1203.00
 53.77    1132.00
 53.87    1013.00
 53.97     933.00
 54.07     831.00
 54.17     743.00
 54.27     661.00
 54.37     562.76
 54.47     570.00
 54.57     639.00
 54.67     524.00
 54.77     541.00
 54.87     546.42
 54.97     562.00
 55.07     543.00
 55.17     584.00
 55.27     509.18
 55.37     509.25
 55.47     586.00
 55.57     534.00
 55.67     577.00
 55.77     557.00
 55.87     620.00
 55.97     602.00
 56.07     632.00
 56.17     718.00
 56.27     736.00
 56.37     952.00
 56.47    1079.00
 56.57    1420.00
 56.67    1720.00
 56.77    2142.46
 56.87    2304.22
 56.97    2444.02
 57.07    2448.00
 57.17    2395.00
 57.27    2002.00
 57.37    1682.00
 57.47    1445.45
 57.57    1173.00
 57.67     979.00
 57.77     806.00
 57.87     767.15
 57.97     762.45
 58.07     707.00
 58.17     670.00
 58.27     721.00
 58.37     739.94
 58.47     767.00
 58.57     865.00
 58.67     956.38
 58.77     994.00
 58.87    1113.00
 58.97    1076.00
 59.07    1335.00
 59.17    1265.00
 59.27    1263.00
 59.37    1288.32
 59.47    1148.86
 59.57    1233.00
 59.67    1137.00
 59.77    1078.83
 59.87    1176.00
 59.97    1236.03
 60.07    1355.00
 60.17    1367.00
 60.27    1533.00
 60.37    1517.17
 60.47    1572.00
 60.57    1352.34
 60.67    1257.95
 60.77    1146.00
 60.87     957.00
 60.97     814.00
 61.07     799.23
 61.17     753.00
 61.27     676.25
 61.37     647.42
 61.47     674.00
 61.57     706.00
 61.67     746.00
 61.77     887.16
 61.87     903.00
 61.97    1091.18
 62.07    1202.31
 62.17    1371.79
 62.27    1396.00
 62.37    1342.00
 62.47    1307.00
 62.57    1230.07
 62.67    1079.00
 62.77     924.00
 62.87     801.79
 62.97     708.00
 63.07     642.00
 63.17     658.00
 63.27     609.00
 63.37     553.60
 63.47     567.00
 63.57     562.00
 63.67     526.00
 63.77     604.00
 63.87     567.00
 63.97     575.55
 64.07     672.00
 64.17     741.00
 64.27     749.00
 64.37     844.15
 64.47     832.00
 64.57     959.00
 64.67     968.77
 64.77     987.00
 64.87     994.00
 64.97    1017.98
 65.07     895.00
 65.17     829.87
 65.27     804.00
 65.37     778.00
 65.47     716.57
 65.57     723.34
 65.67     604.00
 65.77     605.31
 65.87     588.00
 65.97     598.00
 66.07     533.82
 66.17     531.38
 66.27     550.00
 66.37     569.00
 66.47     532.00
 66.57     539.00
 66.67     611.00
 66.77     553.91
 66.87     564.00
 66.97     578.00
 67.07     588.25
 67.17     670.00
 67.27     677.00
 67.37     769.00
 67.47     904.55
 67.57    1019.40
 67.67    1220.57
 67.77    1479.00
 67.87    1641.59
 67.97    2000.03
 68.07    2139.32
 68.17    2360.00
 68.27    2369.00
 68.37    2329.00
 68.47    2166.31
 68.57    1973.00
 68.67    1704.00
 68.77    1333.84
 68.87    1164.77
 68.97     946.00
 69.07     842.00
 69.17     766.00
 69.27     704.00
 69.37     678.00
 69.47     665.00
 69.57     608.00
 69.67     608.74
 69.77     538.85
 69.87     567.82
 69.97     579.06
 70.07     603.00
 70.17     524.55
 70.27     560.00
 70.37     559.00
 70.47     586.00
 70.57     577.00
 70.67     577.00
 70.77     557.95
 70.87     605.71
 70.97     662.73
 71.07     637.00
 71.17     638.00
 71.27     765.87
 71.37     824.00
 71.47     956.00
 71.57    1046.00
 71.67    1214.39
 71.77    1401.79
 71.87    1477.34
 71.97    1670.93
 72.07    1832.00
 72.17    1828.00
 72.27    1905.08
 72.37    1801.00
 72.47    1610.95
 72.57    1462.00
 72.67    1344.49
 72.77    1149.00
 72.87    1080.00
 72.97     925.00
 73.07     794.89
 73.17     729.00
 73.27     716.00
 73.37     694.00
 73.47     675.00
 73.57     615.00
 73.67     574.51
 73.77     588.89
 73.87     608.00
 73.97     605.00
 74.07     581.00
 74.17     564.00
 74.27     647.00
 74.37     579.00
 74.47     583.00
 74.57     575.37
 74.67     628.00
 74.77     617.00
 74.87     575.00
 74.97     621.00
 75.07     600.00
 75.17     564.99
 75.27     611.00
 75.37     577.00
 75.47     560.11
 75.57     537.00
 75.67     551.48
 75.77     554.00
 75.87     597.00
 75.97     536.00
 76.07     555.33
 76.17     585.00
 76.27     672.00
 76.37     670.00
 76.47     646.00
 76.57     660.03
 76.67     720.97
 76.77     736.07
 76.87     694.00
 76.97     704.00
 77.07     650.00
 77.17     665.18
 77.27     617.00
 77.37     607.41
 77.47     544.00
 77.57     518.00
 77.67     536.49
 77.77     542.44
 77.87     496.00
 77.97     474.00
 78.07     525.00
 78.17     494.00
 78.27     530.69
 78.37     553.65
 78.47     530.24
 78.57     514.00
 78.67     474.17
 78.77     493.00
 78.87     477.00
 78.97     486.00
 79.07     511.00
 79.17     495.93
 79.27     494.00
 79.37     456.00
 79.47     507.01
 79.57     510.26
 79.67     520.00
 79.77     507.80
 79.87     511.00
 79.97     488.27
 80.07     468.00
 80.17     559.00
 80.27     519.43
 80.37     568.10
 80.47     565.08
 80.57     593.99
 80.67     549.92
 80.77     564.00
 80.87     628.00
 80.97     652.00
 81.07     707.60
 81.17     671.47
 81.27     712.02
 81.37     696.00
 81.47     745.31
 81.57     706.00
 81.67     752.00
 81.77     695.00
 81.87     731.59
 81.97     742.34
 82.07     682.00
 82.17     740.00
 82.27     652.00
 82.37     669.00
 82.47     593.00
 82.57     609.00
 82.67     595.41
 82.77     597.00
 82.87     547.25
 82.97     585.91
 83.07     524.19
 83.17     573.22
 83.27     558.00
 83.37     517.00
 83.47     578.75
 83.57     583.39
 83.67     520.00
 83.77     532.00
 83.87     551.00
 83.97     597.30
 84.07     554.00
 84.17     543.98
 84.27     539.85
 84.37     551.94
 84.47     552.00
 84.57     567.00
 84.67     570.00
 84.77     530.80
 84.87     525.31
 84.97     538.00
 85.07     488.00
 85.17     494.00
 85.27     530.33
 85.37     541.19
 85.47     526.00
 85.57     514.00
 85.67     523.00
 85.77     470.00
 85.87     507.00
 85.97     485.00
 86.07     525.00
 86.17     546.44
 86.27     523.00
 86.37     535.21
 86.47     524.00
 86.57     564.24
 86.67     541.00
 86.77     549.00
 86.87     592.00
 86.97     572.00
 87.07     613.00
 87.17     580.00
 87.27     607.00
 87.37     599.22
 87.47     629.00
 87.57     579.76
 87.67     625.00
 87.77     591.00
 87.87     596.00
 87.97     585.00
 88.07     582.00
 88.17     595.55
 88.27     590.00
 88.37     586.00
 88.47     553.00
 88.57     565.00
 88.67     566.00
 88.77     559.00
 88.87     566.68
 88.97     557.00
 89.07     581.00
 89.17     557.12
 89.27     530.51
 89.37     581.03
 89.47     599.00
 89.57     585.00
 89.67     593.00
 89.77     525.00
 89.87     548.00
 89.97     601.12
 90.07     513.00
 90.17     507.00
 90.27     506.00
 90.37     523.68
 90.47     523.15
 90.57     510.00
 90.67     520.00
 90.77     554.52
 90.87     485.00
 90.97     500.00
 91.07     467.99
 91.17     498.00
 91.27     502.00
 91.37     527.33
 91.47     522.07
 91.57     532.00
 91.67     473.99
 91.77     506.00
 91.87     531.00
 91.97     529.00
 92.07     496.00
 92.17     496.00
 92.27     548.52
 92.37     507.00
 92.47     583.00
 92.57     564.00
 92.67     578.28
 92.77     645.00
 92.87     628.00
 92.97     695.00
 93.07     625.00
 93.17     679.00
 93.27     641.00
 93.37     676.00
 93.47     783.00
 93.57     759.00
 93.67     737.00
 93.77     741.00
 93.87     786.83
 93.97     790.00
 94.07     756.98
 94.17     783.08
 94.27     811.00
 94.37     799.62
 94.47     865.00
 94.57     886.19
 94.67     854.00
 94.77     878.00
 94.87     864.14
 94.97     879.60
 95.07     894.86
 95.17     833.00
 95.27     898.00
 95.37     885.00
 95.47     859.00
 95.57     810.00
 95.67     780.00
 95.77     688.30
 95.87     700.00
 95.97     699.18
 96.07     724.00
 96.17     720.00
 96.27     673.00
 96.37     763.00
 96.47     710.74
 96.57     751.00
 96.67     819.00
 96.77     897.16
 96.87     866.00
 96.97    1030.00
 97.07    1031.00
 97.17    1105.88
 97.27    1144.00
 97.37    1230.00
 97.47    1310.00
 97.57    1340.12
 97.67    1390.60
 97.77    1400.78
 97.87    1496.00
 97.97    1364.00
 98.07    1379.00
 98.17    1263.00
 98.27    1312.00
 98.37    1153.00
 98.47    1123.00
 98.57    1100.00
 98.67     988.00
 98.77     985.00
 98.87     930.50
 98.97     871.00
 99.07     916.64
 99.17     853.00
 99.27     816.14
 99.37     836.50
 99.47     901.00
 99.57     942.00
 99.67    1015.81
 99.77    1082.51
 99.87    1138.00
 99.97    1270.00
100.07    1405.75
100.17    1392.00
100.27    1504.00
100.37    1638.00
100.47    1703.00
100.57    1862.00
100.67    1872.00
100.77    1967.00
100.87    1915.00
100.97    1906.22
101.07    1949.35
101.17    1924.00
101.27    1865.00
101.37    1911.00
101.47    1768.00
101.57    1731.00
101.67    1592.00
101.77    1575.00
101.87    1456.00
101.97    1438.48
102.07    1378.00
102.17    1301.00
102.27    1292.00
102.37    1287.54
102.47    1122.09
102.57    1176.00
102.67    1152.75
102.77    1114.00
102.87    1090.57
102.97    1094.84
103.07    1009.00
103.17    1007.33
103.27     941.00
103.37     890.00
103.47     857.74
103.57     857.00
103.67     781.00
103.77     727.30
103.87     760.41
103.97     721.00
104.07     669.00
104.17     664.00
104.27     620.00
104.37     609.00
104.47     587.00
104.57     556.00
104.67     576.00
104.77     546.15
104.87     568.00
104.97     528.00
105.07     556.00
105.17     522.00
105.27     529.00
105.37     521.33
105.47     529.00
105.57     509.89
105.67     531.00
105.77     545.00
105.87     530.75
105.97     572.00
106.07     512.75
106.17     574.00
106.27     565.00
106.37     548.00
106.47     581.00
106.57     568.51
106.67     634.40
106.77     618.00
106.87     587.00
106.97     663.00
107.07     618.00
107.17     628.00
107.27     662.00
107.37     661.00
107.47     706.32
107.57     703.00
107.67     687.00
107.77     646.43
107.87     662.00
107.97     589.00
108.07     654.00
108.17     653.92
108.27     635.00
108.37     634.00
108.47     676.53
108.57     708.00
108.67     698.00
108.77     644.00
108.87     685.19
108.97     671.00
109.07     720.52
109.17     661.72
109.27     693.39
109.37     675.00
109.47     661.66
109.57     663.00
109.67     635.00
109.77     648.00
109.87     648.64
109.97     620.00
110.07     592.00
110.17     592.75
110.27     599.84
110.37     572.00
110.47     569.00
110.57     513.55
110.67     551.00
110.77     543.00
110.87     508.60
110.97     537.00
111.07     497.00
111.17     548.00
111.27     560.00
111.37     525.00
111.47     562.00
111.57     515.00
111.67     517.00
111.77     561.30
111.87     541.44
111.97     560.00
112.07     508.36
112.17     610.00
112.27     559.00
112.37     493.00
112.47     578.24
112.57     517.00
112.67     500.00
112.77     592.87
112.87     552.00
112.97     555.00
113.07     585.00
113.17     556.00
113.27     571.00
113.37     615.00
113.47     580.00
113.57     584.00
113.67     647.00
113.77     656.36
113.87     717.82
113.97     667.52
114.07     739.84
114.17     791.27
114.27     862.74
114.37     846.00
114.47     895.00
114.57     983.00
114.67    1051.33
114.77    1187.00
114.87    1342.00
114.97    1436.65
115.07    1670.11
115.17    1834.02
115.27    2112.00
115.37    2418.00
115.47    2591.00
115.57    2876.77
115.67    3192.00
115.77    3480.00
115.87    3834.00
115.97    4125.00
116.07    4517.92
116.17    5058.00
116.27    5303.00
116.37    5698.00
116.47    6147.00
116.57    6225.00
116.67    6571.60
116.77    6734.54
116.87    6812.73
116.97    6789.00
117.07    6858.07
117.17    6750.00
117.27    6608.78
117.37    6355.00
117.47    6059.00
117.57    5869.00
117.67    5400.00
117.77    5157.00
117.87    4724.00
117.97    4529.00
118.07    4119.70
118.17    3884.00
118.27    3359.69
118.37    3112.00
118.47    2797.00
118.57    2374.00
118.67    2188.00
118.77    1947.18
118.87    1716.08
118.97    1607.00
119.07    1439.00
119.17    1298.00
119.27    1155.00
119.37    1057.13
119.47    1013.00
119.57     958.75
119.67     912.87
119.77     801.00
119.87     739.59
119.97     745.95
120.07     722.13
120.17     613.00
120.27     609.38
120.37     654.00
120.47     620.00
120.57     616.00
120.67     607.00
120.77     583.99
120.87     585.00
120.97     539.00
121.07     577.00
121.17     592.64
121.27     600.09
121.37     573.35
121.47     567.00
121.57     577.00
121.67     527.21
121.77     567.00
121.87     581.19
121.97     564.00
122.07     626.23
122.17     564.00
122.27     577.00
122.37     571.86
122.47     637.00
122.57     595.00
122.67     595.00
122.77     643.00
122.87     623.65
122.97     649.00
123.07     603.78
123.17     571.19
123.27     609.12
123.37     634.00
123.47     624.00
123.57     627.00
123.67     638.58
123.77     619.00
123.87     623.00
123.97     642.00
124.07     589.17
124.17     590.00
124.27     627.24
124.37     646.00
124.47     631.96
124.57     562.72
124.67     617.00
124.77     563.00
124.87     554.00
124.97     561.00
