  9.97     593.00
 10.07     596.00
 10.17     585.00
 10.27     590.00
 10.37     578.00
 10.47     603.98
 10.57     608.00
 10.67     567.27
 10.77     547.91
 10.87     641.00
 10.97     574.00
 11.07     616.02
 11.17     650.00
 11.27     614.73
 11.37     573.00
 11.47     540.29
 11.57     625.00
 11.67     579.00
 11.77     626.00
 11.87     629.00
 11.97     683.77
 12.07     671.00
 12.17     697.41
 12.27     708.65
 12.37     671.00
 12.47     620.68
 12.57     650.00
 12.67     587.00
 12.77     622.18
 12.87     625.28
 12.97     547.00
 13.07     597.00
 13.17     566.25
 13.27     619.71
 13.37     552.74
 13.47     544.00
 13.57     542.00
 13.67     617.37
 13.77     547.00
 13.87     595.00
 13.97     608.00
 14.07     558.98
 14.17     610.23
 14.27     594.07
 14.37     541.36
 14.47     611.00
 14.57     590.00
 14.67     555.00
 14.77     595.54
 14.87     589.59
 14.97     604.00
 15.07     526.55
 15.17     590.00
 15.27     478.00
 15.37     547.00
 15.47     551.00
 15.57     590.66
 15.67     546.00
 15.77     567.00
 15.87     551.00
 15.97     559.00
 16.07     592.00
 16.17     575.00
 16.27     569.00
 16.37     544.00
 16.47     529.18
 16.57     611.69
 16.67     569.00
 16.77     523.62
 16.87     578.00
 16.97     560.90
 17.07     582.00
 17.17     579.62
 17.27     571.00
 17.37     525.00
 17.47     552.00
 17.57     611.00
 17.67     564.12
 17.77     567.00
 17.87     552.84
 17.97     584.00
 18.07     552.69
 18.17     539.00
 18.27     587.24
 18.37     576.00
 18.47     565.00
 18.57     555.00
 18.67     536.00
 18.77     528.00
 18.87     558.00
 18.97     571.88
 19.07     569.00
 19.17     514.00
 19.27     589.05
 19.37     566.00
 19.47     569.00
 19.57     575.00
 19.67     569.00
 19.77     542.00
 19.87     593.00
 19.97     563.00
 20.07     570.49
 20.17     570.00
 20.27     541.00
 20.37     543.00
 20.47     569.00
 20.57     557.00
 20.67     581.87
 20.77     525.61
 20.87     530.22
 20.97     579.00
 21.07     571.00
 21.17     550.00
 21.27     513.42
 21.37     536.00
 21.47     513.92
 21.57     554.96
 21.67     596.26
 21.77     586.00
 21.87     508.00
 21.97     580.14
 22.07     509.56
 22.17     547.00
 22.27     524.57
 22.37     532.00
 22.47     533.00
 22.57     539.00
 22.67     552.00
 22.77     567.00
 22.87     580.76
 22.97     560.00
 23.07     554.00
 23.17     527.24
 23.27     570.00
 23.37     563.99
 23.47     559.00
 23.57     547.00
 23.67     505.39
 23.77     561.00
 23.87     546.00
 23.97     550.34
 24.07     559.00
 24.17     588.68
 24.27     559.00
 24.37     586.00
 24.47     543.38
 24.57     550.18
 24.67     633.00
 24.77     618.00
 24.87     641.00
 24.97     652.00
 25.07     556.21
 25.17     601.00
 25.27     563.00
 25.37     528.00
 25.47     524.00
 25.57     535.00
 25.67     543.00
 25.77     554.00
 25.87     592.00
 25.97     530.00
 26.07     586.00
 26.17     584.11
 26.27     580.02
 26.37     561.00
 26.47     529.00
 26.57     538.36
 26.67     546.00
 26.77     548.00
 26.87     536.00
 26.97     547.00
 27.07     522.69
 27.17     511.03
 27.27     553.02
 27.37     558.00
 27.47     574.31
 27.57     496.00
 27.67     522.66
 27.77     556.00
 27.87     552.36
 27.97     645.65
 28.07     762.00
 28.17     903.00
 28.27     915.00
 28.37     887.00
 28.47     795.23
 28.57     657.00
 28.67     678.68
 28.77     746.00
 28.87     815.00
 28.97     822.00
 29.07     851.22
 29.17     688.00
 29.27     626.00
 29.37     592.68
 29.47     571.84
 29.57     559.00
 29.67     598.00
 29.77     523.86
 29.87     568.79
 29.97     501.83
 30.07     553.00
 30.17     578.00
 30.27     554.34
 30.37     563.00
 30.47     540.55
 30.57     532.35
 30.67     585.00
 30.77     588.00
 30.87     616.43
 30.97     625.00
 31.07     605.00
 31.17     600.00
 31.27     537.83
 31.37     557.00
 31.47     507.17
 31.57     556.41
 31.67     510.00
 31.77     516.00
 31.87     547.00
 31.97     523.00
 32.07     495.00
 32.17     526.57
 32.27     524.00
 32.37     578.00
 32.47     533.00
 32.57     538.00
 32.67     541.00
 32.77     518.47
 32.87     550.00
 32.97     538.00
 33.07     550.08
 33.17     565.00
 33.27     518.00
 33.37     540.00
 33.47     535.00
 33.57     651.00
 33.67     641.99
 33.77     740.00
 33.87     910.00
 33.97     971.72
 34.07    1094.00
 34.17    1075.70
 34.27     878.00
 34.37     740.00
 34.47     646.00
 34.57     633.42
 34.67     546.00
 34.77     517.00
 34.87     537.00
 34.97     533.00
 35.07     536.00
 35.17     560.40
 35.27     559.21
 35.37     550.00
 35.47     556.00
 35.57     541.00
 35.67     562.00
 35.77     476.00
 35.87     543.00
 35.97     516.10
 36.07     533.00
 36.17     523.00
 36.27     517.00
 36.37     505.63
 36.47     499.76
 36.57     528.41
 36.67     538.08
 36.77     550.55
 36.87     490.18
 36.97     530.00
 37.07     522.00
 37.17     539.00
 37.27     491.45
 37.37     483.00
 37.47     520.00
 37.57     510.00
 37.67     544.94
 37.77     500.00
 37.87     483.00
 37.97     518.00
 38.07     493.97
 38.17     534.24
 38.27     484.52
 38.37     472.00
 38.47     474.73
 38.57     506.35
 38.67     507.00
 38.77     468.39
 38.87     513.00
 38.97     484.90
 39.07     518.63
 39.17     476.95
 39.27     551.15
 39.37     531.60
 39.47     526.00
 39.57     548.53
 39.67     500.00
 39.77     510.24
 39.87     484.00
 39.97     528.00
 40.07     476.79
 40.17     515.00
 40.27     507.55
 40.37     534.14
 40.47     491.00
 40.57     535.13
 40.67     526.29
 40.77     536.58
 40.87     493.41
 40.97     502.00
 41.07     530.00
 41.17     509.00
 41.27     544.38
 41.37     531.00
 41.47     529.00
 41.57     479.91
 41.67     512.00
 41.77     476.44
 41.87     483.78
 41.97     502.00
 42.07     523.00
 42.17     519.00
 42.27     537.00
 42.37     584.50
 42.47     549.00
 42.57     651.34
 42.67     612.00
 42.77     629.77
 42.87     577.74
 42.97     558.00
 43.07     533.00
 43.17     545.00
 43.27     499.00
 43.37     519.00
 43.47     512.00
 43.57     523.37
 43.67     508.00
 43.77     510.00
 43.87     521.00
 43.97     494.00
 44.07     470.00
 44.17     492.99
 44.27     510.01
 44.37     539.75
 44.47     516.56
 44.57     471.00
 44.67     476.00
 44.77     486.00
 44.87     549.22
 44.97     532.00
 45.07     477.41
 45.17     495.00
 45.27     495.00
 45.37     472.67
 45.47     466.01
 45.57     520.00
 45.67     475.00
 45.77     507.35
 45.87     529.00
 45.97     467.83
 46.07     537.00
 46.17     501.00
 46.27     499.00
 46.37     466.12
 46.47     502.00
 46.57     501.00
 46.67     499.00
 46.77     519.77
 46.87     514.06
 46.97     506.69
 47.07     498.00
 47.17     501.00
 47.27     506.00
 47.37     553.93
 47.47     584.95
 47.57     565.00
 47.67     559.00
 47.77     572.58
 47.87     574.00
 47.97     643.00
 48.07     567.00
 48.17     547.00
 48.27     544.00
 48.37     544.64
 48.47     489.00
 48.57     530.35
 48.67     524.00
 48.77     548.00
 48.87     520.00
 48.97     573.44
 49.07     580.27
 49.17     537.00
 49.27     569.00
 49.37     670.08
 49.47     698.00
 49.57     763.00
 49.67     884.59
 49.77    1173.00
 49.87    1496.00
 49.97    1902.29
 50.07    2204.89
 50.17    2472.00
 50.27    2469.16
 50.37    2321.11
 50.47    1870.86
 50.57    1381.00
 50.67    1170.34
 50.77     833.00
 50.87     762.65
 50.97     629.43
 51.07     686.00
 51.17     579.09
 51.27     642.00
 51.37     613.80
 51.47     575.00
 51.57     578.00
 51.67     600.00
 51.77     548.00
 51.87     570.00
 51.97     613.00
 52.07     584.00
 52.17     514.00
 52.27     536.00
 52.37     539.00
 52.47     544.00
 52.57     577.63
 52.67     577.00
 52.77     601.00
 52.87     620.00
 52.97     699.42
 53.07     821.00
 53.17     916.00
 53.27    1070.37
 53.37    1130.00
 53.47    1225.60
 53.57    1193.00
 53.67    1105.00
 53.77    1040.00
 53.87     935.32
 53.97     726.00
 54.07     728.38
 54.17     615.00
 54.27     628.00
 54.37     633.00
 54.47     533.00
 54.57     607.00
 54.67     522.33
 54.77     527.83
 54.87     604.00
 54.97     534.16
 55.07     549.83
 55.17     501.93
 55.27     575.00
 55.37     587.00
 55.47     541.55
 55.57     562.00
 55.67     571.00
 55.77     581.00
 55.87     619.75
 55.97     639.00
 56.07     665.00
 56.17     798.28
 56.27     949.25
 56.37    1204.45
 56.47    1468.34
 56.57    1819.00
 56.67    2141.00
 56.77    2517.00
 56.87    2573.00
 56.97    2659.00
 57.07    2364.00
 57.17    2024.95
 57.27    1602.21
 57.37    1270.00
 57.47     994.00
 57.57     889.00
 57.67     710.00
 57.77     733.00
 57.87     650.41
 57.97     660.72
 58.07     635.71
 58.17     703.00
 58.27     761.00
 58.37     837.00
 58.47     871.00
 58.57    1081.56
 58.67    1135.00
 58.77    1271.74
 58.87    1334.00
 58.97    1371.66
 59.07    1487.00
 59.17    1417.04
 59.27    1419.00
 59.37    1340.00
 59.47    1204.00
 59.57    1168.64
 59.67    1057.38
 59.77    1169.00
 59.87    1257.00
 59.97    1322.00
 60.07    1411.00
 60.17    1578.00
 60.27    1612.00
 60.37    1529.00
 60.47    1429.00
 60.57    1218.81
 60.67    1150.00
 60.77     881.00
 60.87     761.79
 60.97     755.00
 61.07     672.00
 61.17     691.00
 61.27     631.00
 61.37     619.00
 61.47     667.33
 61.57     755.37
 61.67     894.37
 61.77     957.00
 61.87    1066.43
 61.97    1232.00
 62.07    1421.00
 62.17    1382.00
 62.27    1329.00
 62.37    1291.27
 62.47    1162.00
 62.57    1120.33
 62.67     870.00
 62.77     755.00
 62.87     674.00
 62.97     642.00
 63.07     576.00
 63.17     622.00
 63.27     619.92
 63.37     585.00
 63.47     591.49
 63.57     550.09
 63.67     540.99
 63.77     588.95
 63.87     653.63
 63.97     628.15
 64.07     730.00
 64.17     804.00
 64.27     930.00
 64.37     917.00
 64.47     976.00
 64.57    1036.00
 64.67     979.00
 64.77    1012.08
 64.87    1003.00
 64.97     891.00
 65.07     870.00
 65.17     844.70
 65.27     712.00
 65.37     680.00
 65.47     621.77
 65.57     616.00
 65.67     608.77
 65.77     585.00
 65.87     562.00
 65.97     578.00
 66.07     545.00
 66.17     554.00
 66.27     562.00
 66.37     556.00
 66.47     555.00
 66.57     541.50
 66.67     547.00
 66.77     603.56
 66.87     611.00
 66.97     605.00
 67.07     643.95
 67.17     665.69
 67.27     763.00
 67.37     894.00
 67.47    1077.00
 67.57    1295.00
 67.67    1534.00
 67.77    1796.00
 67.87    2042.09
 67.97    2359.00
 68.07    2478.00
 68.17    2414.00
 68.27    2213.35
 68.37    2081.50
 68.47    1834.00
 68.57    1520.89
 68.67    1289.00
 68.77    1076.48
 68.87     876.81
 68.97     788.00
 69.07     715.00
 69.17     670.00
 69.27     630.00
 69.37     590.00
 69.47     578.00
 69.57     607.00
 69.67     578.00
 69.77     549.04
 69.87     563.30
 69.97     558.00
 70.07     583.00
 70.17     555.00
 70.27     561.00
 70.37     604.58
 70.47     588.00
 70.57     548.00
 70.67     610.89
 70.77     605.00
 70.87     558.00
 70.97     614.56
 71.07     706.00
 71.17     756.00
 71.27     810.76
 71.37     981.84
 71.47    1141.00
 71.57    1236.32
 71.67    1490.74
 71.77    1647.00
 71.87    1829.42
 71.97    1944.00
 72.07    1898.00
 72.17    1893.00
 72.27    1804.00
 72.37    1608.34
 72.47    1451.00
 72.57    1260.00
 72.67    1110.00
 72.77     961.00
 72.87     969.79
 72.97     759.00
 73.07     791.00
 73.17     725.00
 73.27     624.00
 73.37     644.56
 73.47     607.00
 73.57     631.84
 73.67     587.00
 73.77     568.00
 73.87     605.00
 73.97     619.00
 74.07     631.00
 74.17     627.00
 74.27     632.00
 74.37     645.00
 74.47     569.12
 74.57     645.00
 74.67     592.86
 74.77     621.00
 74.87     638.00
 74.97     646.00
 75.07     620.00
 75.17     588.00
 75.27     521.42
 75.37     569.00
 75.47     579.00
 75.57     557.00
 75.67     581.00
 75.77     626.00
 75.87     561.00
 75.97     582.78
 76.07     589.18
 76.17     661.00
 76.27     688.00
 76.37     684.00
 76.47     687.00
 76.57     676.00
 76.67     672.00
 76.77     674.28
 76.87     634.00
 76.97     690.00
 77.07     617.00
 77.17     564.23
 77.27     599.92
 77.37     544.57
 77.47     552.31
 77.57     498.00
 77.67     529.00
 77.77     517.00
 77.87     574.00
 77.97     545.00
 78.07     480.00
 78.17     506.00
 78.27     536.00
 78.37     503.00
 78.47     467.00
 78.57     530.00
 78.67     538.26
 78.77     542.00
 78.87     559.00
 78.97     524.00
 79.07     508.52
 79.17     507.52
 79.27     532.00
 79.37     553.00
 79.47     512.00
 79.57     560.76
 79.67     553.11
 79.77     603.00
 79.87     555.00
 79.97     542.00
 80.07     544.00
 80.17     606.00
 80.27     565.21
 80.37     573.00
 80.47     575.00
 80.57     607.60
 80.67     630.00
 80.77     658.00
 80.87     704.76
 80.97     662.00
 81.07     755.48
 81.17     727.06
 81.27     770.00
 81.37     708.65
 81.47     802.00
 81.57     748.52
 81.67     767.00
 81.77     700.73
 81.87     732.70
 81.97     739.75
 82.07     675.00
 82.17     638.61
 82.27     644.00
 82.37     632.00
 82.47     601.00
 82.57     606.00
 82.67     563.00
 82.77     541.64
 82.87     551.00
 82.97     555.00
 83.07     510.00
 83.17     589.78
 83.27     553.00
 83.37     582.00
 83.47     541.25
 83.57     509.00
 83.67     540.00
 83.77     565.00
 83.87     587.00
 83.97     550.18
 84.07     545.00
 84.17     580.00
 84.27     571.08
 84.37     609.98
 84.47     577.00
 84.57     541.25
 84.67     511.35
 84.77     586.44
 84.87     522.00
 84.97     539.00
 85.07     579.46
 85.17     515.85
 85.27     545.50
 85.37     546.00
 85.47     540.00
 85.57     514.23
 85.67     558.30
 85.77     541.00
 85.87     554.62
 85.97     573.93
 86.07     532.35
 86.17     526.00
 86.27     574.89
 86.37     551.54
 86.47     526.00
 86.57     547.00
 86.67     582.00
 86.77     596.16
 86.87     639.00
 86.97     569.00
 87.07     615.00
 87.17     621.00
 87.27     648.99
 87.37     685.00
 87.47     627.00
 87.57     632.00
 87.67     620.00
 87.77     665.63
 87.87     682.00
 87.97     621.00
 88.07     597.00
 88.17     562.60
 88.27     595.00
 88.37     557.00
 88.47     568.97
 88.57     548.15
 88.67     636.00
 88.77     555.00
 88.87     605.31
 88.97     573.55
 89.07     609.00
 89.17     561.78
 89.27     668.00
 89.37     630.77
 89.47     587.00
 89.57     629.85
 89.67     607.00
 89.77     580.77
 89.87     585.00
 89.97     548.00
 90.07     546.00
 90.17     531.19
 90.27     548.00
 90.37     552.38
 90.47     527.00
 90.57     529.61
 90.67     567.00
 90.77     540.00
 90.87     505.00
 90.97     509.00
 91.07     514.00
 91.17     545.00
 91.27     537.00
 91.37     475.00
 91.47     536.00
 91.57     575.52
 91.67     526.00
 91.77     514.76
 91.87     543.00
 91.97     544.00
 92.07     572.53
 92.17     559.00
 92.27     594.00
 92.37     570.00
 92.47     663.44
 92.57     632.00
 92.67     667.00
 92.77     687.00
 92.87     707.00
 92.97     731.00
 93.07     754.09
 93.17     798.31
 93.27     803.10
 93.37     810.00
 93.47     774.30
 93.57     858.56
 93.67     829.27
 93.77     861.00
 93.87     800.94
 93.97     783.00
 94.07     916.00
 94.17     896.00
 94.27     886.00
 94.37     823.97
 94.47     846.00
 94.57     941.00
 94.67     864.97
 94.77     921.00
 94.87     850.27
 94.97     893.00
 95.07     879.00
 95.17     881.00
 95.27     825.06
 95.37     788.00
 95.47     779.96
 95.57     776.00
 95.67     726.00
 95.77     697.00
 95.87     697.00
 95.97     676.00
 96.07     644.02
 96.17     728.02
 96.27     754.21
 96.37     722.00
 96.47     860.00
 96.57     878.00
 96.67     984.00
 96.77    1013.00
 96.87    1106.61
 96.97    1118.00
 97.07    1232.00
 97.17    1338.41
 97.27    1403.91
 97.37    1418.65
 97.47    1459.00
 97.57    1466.00
 97.67    1384.48
 97.77    1372.00
 97.87    1353.00
 97.97    1319.00
 98.07    1287.30
 98.17    1202.58
 98.27    1089.00
 98.37    1038.82
 98.47     950.00
 98.57     941.00
 98.67     867.99
 98.77     804.31
 98.87     832.66
 98.97     787.18
 99.07     827.00
 99.17     894.17
 99.27     845.04
 99.37     910.22
 99.47    1029.63
 99.57    1088.00
 99.67    1193.00
 99.77    1297.48
 99.87    1370.00
 99.97    1512.00
100.07    1668.60
100.17    1774.00
100.27    1780.00
100.37    1876.00
100.47    2051.00
100.57    1968.78
100.67    2137.00
100.77    2082.00
100.87    2019.32
100.97    2057.43
101.07    1986.00
101.17    1867.00
101.27    1801.00
101.37    1679.00
101.47    1542.00
101.57    1539.00
101.67    1460.54
101.77    1402.14
101.87    1335.00
101.97    1175.00
102.07    1226.00
102.17    1099.00
102.27    1200.67
102.37    1113.00
102.47    1051.00
102.57    1064.00
102.67    1093.00
102.77    1010.00
102.87     997.00
102.97     977.00
103.07     892.07
103.17     885.00
103.27     865.00
103.37     845.00
103.47     810.00
103.57     716.00
103.67     768.00
103.77     675.00
103.87     683.00
103.97     602.00
104.07     573.26
104.17     543.37
104.27     603.00
104.37     586.00
104.47     578.91
104.57     562.00
104.67     533.43
104.77     539.00
104.87     560.00
104.97     553.00
105.07     496.20
105.17     548.00
105.27     567.33
105.37     550.00
105.47     521.00
105.57     575.00
105.67     589.00
105.77     536.50
105.87     522.21
105.97     571.49
106.07     580.00
106.17     576.00
106.27     631.00
106.37     608.68
106.47     615.00
106.57     677.37
106.67     678.53
106.77     673.20
106.87     704.12
106.97     677.13
107.07     697.00
107.17     636.00
107.27     655.21
107.37     685.00
107.47     676.00
107.57     666.00
107.67     708.64
107.77     658.55
107.87     753.48
107.97     734.00
108.07     710.00
108.17     687.00
108.27     701.76
108.37     681.00
108.47     670.00
108.57     668.58
108.67     687.00
108.77     674.00
108.87     739.28
108.97     655.00
109.07     661.62
109.17     660.00
109.27     719.00
109.37     652.00
109.47     610.00
109.57     632.22
109.67     619.00
109.77     623.00
109.87     605.29
109.97     597.00
110.07     607.53
110.17     591.00
110.27     584.00
110.37     592.52
110.47     554.00
110.57     556.00
110.67     568.00
110.77     496.04
110.87     564.00
110.97     578.00
111.07     522.33
111.17     541.00
111.27     547.00
111.37     546.00
111.47     577.99
111.57     515.00
111.67     575.00
111.77     590.00
111.87     580.00
111.97     564.00
112.07     604.57
112.17     551.22
112.27     607.00
112.37     597.15
112.47     618.29
112.57     600.00
112.67     577.00
112.77     634.00
112.87     627.00
112.97     636.00
113.07     665.00
113.17     657.00
113.27     660.00
113.37     682.00
113.47     774.29
113.57     735.00
113.67     823.00
113.77     795.00
113.87     817.00
113.97     925.89
114.07     994.00
114.17     951.00
114.27    1052.00
114.37    1122.00
114.47    1185.00
114.57    1303.00
114.67    1552.00
114.77    1647.58
114.87    1886.24
114.97    2052.59
115.07    2168.34
115.17    2522.40
115.27    3022.00
115.37    3105.18
115.47    3459.00
115.57    3724.35
115.67    4351.00
115.77    4606.00
115.87    4923.93
115.97    5306.63
116.07    5690.35
116.17    5907.00
116.27    6225.00
116.37    6647.00
116.47    6757.06
116.57    6920.10
116.67    6926.33
116.77    6851.00
116.87    6710.87
116.97    6575.00
117.07    6385.00
117.17    6095.84
117.27    5560.00
117.37    5423.53
117.47    4969.32
117.57    4688.86
117.67    4173.00
117.77    3827.00
117.87    3579.00
117.97    3133.00
118.07    2880.00
118.17    2541.00
118.27    2248.53
118.37    2059.62
118.47    1746.00
118.57    1590.00
118.67    1400.00
118.77    1200.00
118.87    1116.00
118.97    1085.19
119.07     948.00
119.17     892.00
119.27     805.23
119.37     802.00
119.47     745.55
119.57     734.74
119.67     671.31
119.77     675.00
119.87     669.00
119.97     634.43
120.07     589.00
120.17     580.00
120.27     561.00
120.37     566.00
120.47     595.16
120.57     599.00
120.67     621.20
120.77     536.00
120.87     528.00
120.97     588.00
121.07     584.00
121.17     603.00
121.27     597.37
121.37     569.00
121.47     611.83
121.57     627.60
121.67     584.00
121.77     562.78
121.87     623.00
121.97     588.00
122.07     613.63
122.17     628.00
122.27     662.96
122.37     615.00
122.47     629.07
122.57     653.52
122.67     600.00
122.77     646.00
122.87     619.98
122.97     629.20
123.07     616.99
123.17     672.38
123.27     665.05
123.37     647.28
123.47     652.00
123.57     612.41
123.67     659.06
123.77     650.00
123.87     603.25
123.97     629.20
124.07     651.31
124.17     603.00
124.27     611.00
124.37     608.00
124.47     567.67
124.57     616.50
124.67     620.15
124.77     612.00
124.87     563.67
124.97     577.22
