  9.97     649.00
 10.07     647.00
 10.17     626.00
 10.27     558.00
 10.37     531.96
 10.47     577.00
 10.57     603.00
 10.67     604.00
 10.77     511.17
 10.87     590.00
 10.97     553.85
 11.07     594.79
 11.17     596.00
 11.27     576.29
 11.37     566.02
 11.47     518.94
 11.57     597.69
 11.67     556.11
 11.77     604.00
 11.87     633.00
 11.97     622.36
 12.07     675.00
 12.17     668.00
 12.27     684.00
 12.37     641.00
 12.47     596.00
 12.57     630.47
 12.67     605.00
 12.77     584.76
 12.87     578.46
 12.97     534.85
 13.07     570.00
 13.17     540.53
 13.27     604.24
 13.37     567.67
 13.47     595.00
 13.57     507.00
 13.67     524.00
 13.77     549.00
 13.87     523.58
 13.97     575.00
 14.07     542.00
 14.17     560.00
 14.27     578.00
 14.37     559.00
 14.47     514.00
 14.57     524.00
 14.67     553.00
 14.77     570.00
 14.87     521.95
 14.97     541.00
 15.07     562.00
 15.17     589.00
 15.27     536.00
 15.37     581.43
 15.47     583.62
 15.57     561.00
 15.67     519.00
 15.77     540.00
 15.87     554.88
 15.97     517.00
 16.07     539.00
 16.17     533.00
 16.27     599.35
 16.37     604.04
 16.47     592.00
 16.57     594.00
 16.67     552.53
 16.77     509.00
 16.87     563.66
 16.97     510.00
 17.07     544.09
 17.17     526.00
 17.27     500.00
 17.37     557.18
 17.47     600.40
 17.57     511.00
 17.67     548.00
 17.77     544.00
 17.87     561.07
 17.97     593.71
 18.07     601.14
 18.17     442.00
 18.27     533.00
 18.37     567.00
 18.47     590.00
 18.57     569.00
 18.67     545.77
 18.77     526.00
 18.87     521.13
 18.97     594.00
 19.07     540.00
 19.17     543.00
 19.27     529.75
 19.37     527.00
 19.47     540.00
 19.57     533.00
 19.67     536.00
 19.77     586.12
 19.87     532.00
 19.97     568.00
 20.07     568.00
 20.17     537.00
 20.27     558.00
 20.37     523.00
 20.47     566.00
 20.57     566.00
 20.67     549.21
 20.77     530.00
 20.87     533.00
 20.97     566.00
 21.07     514.64
 21.17     578.00
 21.27     548.14
 21.37     528.60
 21.47     539.00
 21.57     597.78
 21.67     544.58
 21.77     586.00
 21.87     562.00
 21.97     563.00
 22.07     596.00
 22.17     582.00
 22.27     535.00
 22.37     554.00
 22.47     522.00
 22.57     541.57
 22.67     550.00
 22.77     535.00
 22.87     545.00
 22.97     542.00
 23.07     575.62
 23.17     556.00
 23.27     550.00
 23.37     548.29
 23.47     535.00
 23.57     543.00
 23.67     543.00
 23.77     553.00
 23.87     509.91
 23.97     560.00
 24.07     536.00
 24.17     595.00
 24.27     572.00
 24.37     598.35
 24.47     580.70
 24.57     563.92
 24.67     606.00
 24.77     617.00
 24.87     661.00
 24.97     628.31
 25.07     648.07
 25.17     634.00
 25.27     578.00
 25.37     533.36
 25.47     584.69
 25.57     613.00
 25.67     538.00
 25.77     580.58
 25.87     508.64
 25.97     548.36
 26.07     587.91
 26.17     548.54
 26.27     519.96
 26.37     506.02
 26.47     555.00
 26.57     571.00
 26.67     505.57
 26.77     518.52
 26.87     617.00
 26.97     572.00
 27.07     601.00
 27.17     583.00
 27.27     557.00
 27.37     512.35
 27.47     524.75
 27.57     501.00
 27.67     579.00
 27.77     618.00
 27.87     570.67
 27.97     625.57
 28.07     678.00
 28.17     778.00
 28.27     914.00
 28.37     906.00
 28.47     841.00
 28.57     781.00
 28.67     662.00
 28.77     708.55
 28.87     787.00
 28.97     807.48
 29.07     863.90
 29.17     753.56
 29.27     701.23
 29.37     656.03
 29.47     627.00
 29.57     599.00
 29.67     533.38
 29.77     553.97
 29.87     509.61
 29.97     555.00
 30.07     560.00
 30.17     576.00
 30.27     570.27
 30.37     594.00
 30.47     551.91
 30.57     551.00
 30.67     587.00
 30.77     626.00
 30.87     611.05
 30.97     585.00
 31.07     654.00
 31.17     632.69
 31.27     581.00
 31.37     553.00
 31.47     567.00
 31.57     563.00
 31.67     571.00
 31.77     494.00
 31.87     535.07
 31.97     616.00
 32.07     517.00
 32.17     522.00
 32.27     520.00
 32.37     559.73
 32.47     552.64
 32.57     544.00
 32.67     539.00
 32.77     486.00
 32.87     620.00
 32.97     545.71
 33.07     585.00
 33.17     592.00
 33.27     562.00
 33.37     512.00
 33.47     593.00
 33.57     561.00
 33.67     606.00
 33.77     667.42
 33.87     795.00
 33.97     904.00
 34.07    1000.00
 34.17     999.00
 34.27     907.36
 34.37     881.37
 34.47     703.00
 34.57     677.85
 34.67     573.28
 34.77     560.00
 34.87     583.00
 34.97     571.00
 35.07     559.00
 35.17     539.00
 35.27     541.00
 35.37     503.60
 35.47     556.25
 35.57     517.07
 35.67     497.32
 35.77     475.01
 35.87     497.00
 35.97     511.00
 36.07     490.32
 36.17     527.00
 36.27     528.00
 36.37     524.00
 36.47     505.00
 36.57     502.92
 36.67     471.77
 36.77     532.92
 36.87     504.43
 36.97     471.01
 37.07     467.00
 37.17     469.00
 37.27     514.00
 37.37     504.89
 37.47     515.44
 37.57     490.31
 37.67     536.00
 37.77     503.26
 37.87     561.26
 37.97     476.00
 38.07     535.00
 38.17     480.90
 38.27     502.00
 38.37     502.00
 38.47     509.67
 38.57     516.00
 38.67     530.02
 38.77     474.00
 38.87     489.58
 38.97     481.00
 39.07     552.00
 39.17     469.00
 39.27     499.00
 39.37     469.44
 39.47     506.00
 39.57     512.00
 39.67     528.76
 39.77     484.00
 39.87     509.00
 39.97     496.00
 40.07     498.00
 40.17     472.77
 40.27     536.19
 40.37     490.00
 40.47     479.00
 40.57     526.00
 40.67     470.00
 40.77     526.76
 40.87     510.00
 40.97     466.39
 41.07     540.38
 41.17     458.96
 41.27     517.00
 41.37     490.00
 41.47     501.00
 41.57     462.00
 41.67     519.90
 41.77     518.66
 41.87     452.00
 41.97     472.00
 42.07     484.00
 42.17     506.00
 42.27     526.27
 42.37     513.00
 42.47     578.50
 42.57     560.00
 42.67     570.00
 42.77     564.00
 42.87     602.55
 42.97     601.75
 43.07     568.90
 43.17     495.00
 43.27     525.00
 43.37     508.00
 43.47     518.93
 43.57     537.62
 43.67     528.00
 43.77     539.00
 43.87     488.00
 43.97     459.00
 44.07     472.00
 44.17     512.00
 44.27     445.00
 44.37     466.00
 44.47     463.89
 44.57     472.00
 44.67     470.85
 44.77     495.00
 44.87     535.00
 44.97     480.00
 45.07     503.00
 45.17     462.38
 45.27     527.00
 45.37     476.24
 45.47     520.00
 45.57     528.00
 45.67     495.71
 45.77     457.07
 45.87     504.97
 45.97     486.00
 46.07     492.00
 46.17     536.28
 46.27     473.00
 46.37     512.00
 46.47     478.06
 46.57     491.00
 46.67     483.00
 46.77     474.00
 46.87     509.00
 46.97     489.00
 47.07     516.00
 47.17     539.94
 47.27     522.00
 47.37     481.00
 47.47     517.00
 47.57     494.24
 47.67     570.00
 47.77     567.00
 47.87     596.00
 47.97     541.00
 48.07     551.61
 48.17     567.09
 48.27     560.00
 48.37     558.91
 48.47     539.00
 48.57     524.57
 48.67     515.00
 48.77     516.00
 48.87     529.00
 48.97     541.00
 49.07     512.67
 49.17     504.00
 49.27     550.00
 49.37     570.19
 49.47     560.00
 49.57     676.00
 49.67     698.00
 49.77     839.00
 49.87    1055.00
 49.97    1390.00
 50.07    1772.00
 50.17    2075.00
 50.27    2317.00
 50.37    2353.00
 50.47    2154.00
 50.57    1840.32
 50.67    1398.20
 50.77    1128.00
 50.87     833.45
 50.97     766.00
 51.07     668.00
 51.17     630.00
 51.27     600.88
 51.37     665.00
 51.47     549.83
 51.57     596.00
 51.67     599.00
 51.77     544.17
 51.87     566.57
 51.97     571.00
 52.07     556.00
 52.17     543.00
 52.27     556.00
 52.37     529.00
 52.47     524.00
 52.57     549.00
 52.67     565.94
 52.77     568.00
 52.87     594.00
 52.97     623.00
 53.07     699.00
 53.17     816.00
 53.27     858.01
 53.37     941.57
 53.47    1073.00
 53.57    1092.00
 53.67    1174.95
 53.77    1084.00
 53.87    1047.00
 53.97     994.47
 54.07     852.00
 54.17     699.00
 54.27     666.80
 54.37     631.00
 54.47     593.00
 54.57     578.50
 54.67     536.00
 54.77     593.30
 54.87     534.00
 54.97     580.25
 55.07     520.22
 55.17     558.66
 55.27     589.79
 55.37     556.00
 55.47     577.00
 55.57     604.00
 55.67     608.00
 55.77     607.89
 55.87     601.38
 55.97     651.00
 56.07     686.57
 56.17     708.00
 56.27     856.16
 56.37     889.00
 56.47    1082.00
 56.57    1373.00
 56.67    1781.80
 56.77    2078.00
 56.87    2259.00
 56.97    2533.00
 57.07    2564.00
 57.17    2282.94
 57.27    2120.92
 57.37    1716.00
 57.47    1453.00
 57.57    1168.00
 57.67     933.00
 57.77     840.00
 57.87     804.09
 57.97     676.00
 58.07     734.00
 58.17     726.53
 58.27     791.00
 58.37     788.12
 58.47     798.26
 58.57     841.00
 58.67     997.15
 58.77    1056.44
 58.87    1081.49
 58.97    1204.00
 59.07    1222.00
 59.17    1244.00
 59.27    1298.15
 59.37    1221.21
 59.47    1317.00
 59.57    1213.90
 59.67    1234.00
 59.77    1102.16
 59.87    1179.00
 59.97    1293.00
 60.07    1356.37
 60.17    1473.00
 60.27    1501.00
 60.37    1533.00
 60.47    1500.47
 60.57    1344.00
 60.67    1304.00
 60.77    1130.17
 60.87     957.04
 60.97     854.00
 61.07     766.64
 61.17     683.00
 61.27     709.00
 61.37     640.00
 61.47     685.47
 61.57     718.41
 61.67     763.24
 61.77     787.00
 61.87     962.00
 61.97    1032.00
 62.07    1129.00
 62.17    1296.18
 62.27    1267.00
 62.37    1387.06
 62.47    1321.35
 62.57    1172.00
 62.67    1098.62
 62.77     945.31
 62.87     792.00
 62.97     756.00
 63.07     673.00
 63.17     614.00
 63.27     638.55
 63.37     567.00
 63.47     585.97
 63.57     571.00
 63.67     596.00
 63.77     620.80
 63.87     620.00
 63.97     613.00
 64.07     606.00
 64.17     717.00
 64.27     740.73
 64.37     772.66
 64.47     904.06
 64.57     939.00
 64.67     921.00
 64.77    1033.43
 64.87     957.00
 64.97     975.00
 65.07     931.00
 65.17     842.00
 65.27     861.88
 65.37     782.00
 65.47     743.00
 65.57     667.29
 65.67     627.87
 65.77     582.00
 65.87     562.22
 65.97     622.60
 66.07     587.00
 66.17     563.00
 66.27     593.70
 66.37     531.00
 66.47     560.00
 66.57     526.88
 66.67     548.92
 66.77     547.00
 66.87     584.00
 66.97     565.00
 67.07     591.03
 67.17     655.00
 67.27     678.00
 67.37     725.86
 67.47     890.00
 67.57     986.96
 67.67    1197.00
 67.77    1423.00
 67.87    1608.00
 67.97    1933.00
 68.07    2145.00
 68.17    2380.00
 68.27    2412.00
 68.37    2334.08
 68.47    2061.94
 68.57    1924.00
 68.67    1803.00
 68.77    1383.67
 68.87    1245.00
 68.97    1008.89
 69.07     863.00
 69.17     778.00
 69.27     698.02
 69.37     708.00
 69.47     668.00
 69.57     611.00
 69.67     603.00
 69.77     607.60
 69.87     562.00
 69.97     574.00
 70.07     613.00
 70.17     568.48
 70.27     581.63
 70.37     632.00
 70.47     580.89
 70.57     564.00
 70.67     569.26
 70.77     590.00
 70.87     570.00
 70.97     643.24
 71.07     644.29
 71.17     675.00
 71.27     670.00
 71.37     765.24
 71.47     966.32
 71.57     983.00
 71.67    1147.81
 71.77    1297.00
 71.87    1457.06
 71.97    1589.70
 72.07    1782.62
 72.17    1805.00
 72.27    1781.36
 72.37    1878.00
 72.47    1668.79
 72.57    1580.60
 72.67    1450.00
 72.77    1213.00
 72.87    1069.82
 72.97     958.00
 73.07     844.60
 73.17     744.00
 73.27     730.85
 73.37     715.00
 73.47     651.00
 73.57     638.00
 73.67     633.00
 73.77     585.18
 73.87     623.56
 73.97     604.00
 74.07     630.54
 74.17     569.00
 74.27     601.53
 74.37     593.18
 74.47     557.95
 74.57     574.00
 74.67     543.57
 74.77     673.00
 74.87     592.56
 74.97     537.41
 75.07     552.75
 75.17     540.74
 75.27     547.25
 75.37     539.37
 75.47     528.72
 75.57     513.58
 75.67     597.00
 75.77     546.00
 75.87     589.00
 75.97     588.00
 76.07     550.40
 76.17     613.00
 76.27     656.00
 76.37     597.00
 76.47     683.18
 76.57     702.00
 76.67     659.63
 76.77     703.75
 76.87     686.00
 76.97     698.00
 77.07     632.00
 77.17     632.00
 77.27     635.00
 77.37     553.00
 77.47     574.00
 77.57     547.00
 77.67     580.21
 77.77     536.00
 77.87     509.00
 77.97     494.00
 78.07     540.86
 78.17     508.00
 78.27     526.00
 78.37     500.00
 78.47     507.62
 78.57     498.90
 78.67     508.65
 78.77     502.37
 78.87     490.00
 78.97     522.05
 79.07     507.00
 79.17     480.85
 79.27     526.45
 79.37     507.00
 79.47     514.00
 79.57     510.00
 79.67     547.68
 79.77     527.10
 79.87     526.00
 79.97     476.37
 80.07     530.00
 80.17     529.00
 80.27     514.00
 80.37     540.51
 80.47     524.00
 80.57     612.00
 80.67     586.00
 80.77     572.00
 80.87     579.74
 80.97     630.47
 81.07     625.09
 81.17     677.00
 81.27     686.68
 81.37     741.28
 81.47     690.00
 81.57     777.00
 81.67     695.24
 81.77     736.00
 81.87     691.00
 81.97     696.16
 82.07     672.00
 82.17     626.89
 82.27     683.00
 82.37     634.00
 82.47     596.00
 82.57     623.78
 82.67     583.02
 82.77     597.00
 82.87     571.00
 82.97     537.00
 83.07     502.05
 83.17     523.00
 83.27     555.00
 83.37     558.84
 83.47     531.60
 83.57     501.00
 83.67     513.00
 83.77     530.00
 83.87     522.00
 83.97     570.00
 84.07     547.00
 84.17     532.00
 84.27     512.42
 84.37     516.00
 84.47     565.92
 84.57     504.99
 84.67     498.27
 84.77     527.00
 84.87     521.00
 84.97     542.91
 85.07     486.00
 85.17     543.64
 85.27     521.00
 85.37     541.66
 85.47     516.00
 85.57     499.00
 85.67     462.00
 85.77     495.00
 85.87     496.00
 85.97     471.98
 86.07     493.64
 86.17     470.00
 86.27     507.68
 86.37     509.00
 86.47     518.00
 86.57     499.78
 86.67     551.53
 86.77     554.58
 86.87     567.14
 86.97     514.50
 87.07     610.00
 87.17     597.15
 87.27     594.00
 87.37     605.00
 87.47     601.38
 87.57     609.00
 87.67     621.00
 87.77     621.63
 87.87     644.00
 87.97     650.00
 88.07     627.00
 88.17     570.00
 88.27     587.65
 88.37     513.00
 88.47     565.26
 88.57     573.95
 88.67     548.50
 88.77     520.00
 88.87     596.00
 88.97     554.00
 89.07     569.00
 89.17     560.00
 89.27     543.00
 89.37     583.00
 89.47     561.00
 89.57     651.00
 89.67     592.02
 89.77     615.64
 89.87     553.00
 89.97     567.00
 90.07     553.00
 90.17     532.00
 90.27     548.00
 90.37     533.25
 90.47     497.00
 90.57     510.00
 90.67     508.00
 90.77     529.62
 90.87     528.00
 90.97     545.90
 91.07     473.00
 91.17     508.71
 91.27     517.00
 91.37     519.01
 91.47     527.00
 91.57     526.00
 91.67     553.00
 91.77     490.00
 91.87     485.00
 91.97     555.27
 92.07     541.00
 92.17     535.00
 92.27     544.00
 92.37     551.00
 92.47     541.00
 92.57     596.00
 92.67     587.00
 92.77     617.36
 92.87     597.50
 92.97     615.00
 93.07     620.00
 93.17     733.00
 93.27     745.73
 93.37     750.96
 93.47     726.00
 93.57     792.00
 93.67     716.12
 93.77     771.00
 93.87     728.69
 93.97     819.00
 94.07     802.90
 94.17     857.03
 94.27     834.00
 94.37     864.00
 94.47     801.49
 94.57     863.00
 94.67     876.00
 94.77     841.59
 94.87     830.00
 94.97     846.00
 95.07     872.00
 95.17     888.00
 95.27     863.00
 95.37     861.00
 95.47     823.00
 95.57     814.00
 95.67     764.73
 95.77     741.00
 95.87     726.00
 95.97     678.00
 96.07     679.00
 96.17     691.00
 96.27     709.00
 96.37     670.00
 96.47     733.18
 96.57     765.97
 96.67     812.00
 96.77     805.72
 96.87     866.00
 96.97     987.00
 97.07    1071.00
 97.17    1133.89
 97.27    1200.00
 97.37    1202.00
 97.47    1242.67
 97.57    1360.00
 97.67    1391.38
 97.77    1363.08
 97.87    1405.00
 97.97    1389.00
 98.07    1347.00
 98.17    1270.76
 98.27    1220.65
 98.37    1255.00
 98.47    1088.43
 98.57    1078.00
 98.67     981.00
 98.77     982.88
 98.87     882.00
 98.97     895.00
 99.07     879.00
 99.17     878.89
 99.27     804.00
 99.37     904.85
 99.47     915.75
 99.57     950.00
 99.67    1016.00
 99.77    1036.00
 99.87    1124.00
 99.97    1254.34
100.07    1272.00
100.17    1427.00
100.27    1475.13
100.37    1651.70
100.47    1677.00
100.57    1699.00
100.67    1931.00
100.77    1905.00
100.87    1834.00
100.97    1969.00
101.07    1948.81
101.17    2003.94
101.27    1927.00
101.37    1964.81
101.47    1902.87
101.57    1809.12
101.67    1655.00
101.77    1616.00
101.87    1565.00
101.97    1447.00
102.07    1323.00
102.17    1326.00
102.27    1345.83
102.37    1221.00
102.47    1148.00
102.57    1196.00
102.67    1121.00
102.77    1156.00
102.87    1080.00
102.97    1096.00
103.07    1089.00
103.17    1005.31
103.27     980.00
103.37     911.00
103.47     951.00
103.57     869.00
103.67     830.00
103.77     786.00
103.87     790.83
103.97     725.00
104.07     675.00
104.17     629.00
104.27     614.23
104.37     596.00
104.47     574.00
104.57     599.00
104.67     586.00
104.77     570.00
104.87     508.00
104.97     536.00
105.07     537.00
105.17     489.94
105.27     484.93
105.37     526.81
105.47     510.00
105.57     553.99
105.67     499.88
105.77     539.62
105.87     581.00
105.97     564.00
106.07     559.00
106.17     563.03
106.27     564.00
106.37     554.00
106.47     538.81
106.57     593.00
106.67     584.00
106.77     622.00
106.87     608.00
106.97     611.00
107.07     624.97
107.17     620.00
107.27     612.61
107.37     631.00
107.47     661.30
107.57     724.78
107.67     697.00
107.77     622.00
107.87     712.00
107.97     717.32
108.07     669.00
108.17     654.00
108.27     702.57
108.37     677.00
108.47     692.88
108.57     633.69
108.67     678.29
108.77     699.82
108.87     676.00
108.97     653.00
109.07     649.00
109.17     678.00
109.27     676.00
109.37     668.00
109.47     713.14
109.57     675.32
109.67     649.40
109.77     666.25
109.87     626.94
109.97     638.00
110.07     582.53
110.17     655.00
110.27     632.00
110.37     605.66
110.47     585.00
110.57     542.89
110.67     581.63
110.77     561.93
110.87     589.38
110.97     530.00
111.07     550.00
111.17     547.00
111.27     532.00
111.37     553.14
111.47     542.00
111.57     530.00
111.67     524.58
111.77     556.59
111.87     499.00
111.97     553.00
112.07     567.16
112.17     571.25
112.27     513.00
112.37     576.00
112.47     537.00
112.57     579.00
112.67     546.00
112.77     579.16
112.87     541.00
112.97     593.00
113.07     588.00
113.17     616.00
113.27     572.01
113.37     649.00
113.47     608.20
113.57     621.00
113.67     628.00
113.77     622.00
113.87     677.00
113.97     697.00
114.07     714.00
114.17     818.00
114.27     750.00
114.37     813.13
114.47     881.00
114.57     930.00
114.67    1027.00
114.77    1183.00
114.87    1313.00
114.97    1502.00
115.07    1661.00
115.17    1823.00
115.27    2121.00
115.37    2312.00
115.47    2504.00
115.57    2866.00
115.67    3089.19
115.77    3467.00
115.87    3663.28
115.97    4141.40
116.07    4325.00
116.17    4816.00
116.27    5114.00
116.37    5634.00
116.47    5975.00
116.57    6139.00
116.67    6538.00
116.77    6564.00
116.87    6663.00
116.97    6795.00
117.07    6880.00
117.17    6716.00
117.27    6663.69
117.37    6409.68
117.47    6066.79
117.57    5971.00
117.67    5518.00
117.77    5203.00
117.87    4862.00
117.97    4676.00
118.07    4196.00
118.17    3929.00
118.27    3567.01
118.37    3219.00
118.47    2971.00
118.57    2622.39
118.67    2252.94
118.77    2015.48
118.87    1880.00
118.97    1650.49
119.07    1484.00
119.17    1441.90
119.27    1295.57
119.37    1186.00
119.47    1081.79
119.57     965.49
119.67     875.00
119.77     820.49
119.87     840.07
119.97     785.00
120.07     733.00
120.17     649.06
120.27     673.00
120.37     632.39
120.47     621.00
120.57     649.00
120.67     610.93
120.77     580.00
120.87     559.00
120.97     590.00
121.07     551.30
121.17     600.00
121.27     564.83
121.37     555.00
121.47     591.00
121.57     584.78
121.67     558.00
121.77     586.00
121.87     560.00
121.97     550.00
122.07     541.04
122.17     545.00
122.27     596.00
122.37     578.00
122.47     611.73
122.57     631.00
122.67     627.68
122.77     601.59
122.87     642.00
122.97     659.00
123.07     602.91
123.17     652.98
123.27     649.00
123.37     675.37
123.47     587.99
123.57     628.00
123.67     596.07
123.77     648.53
123.87     669.48
123.97     581.02
124.07     673.00
124.17     628.51
124.27     610.00
124.37     556.00
124.47     557.78
124.57     647.00
124.67     578.00
124.77     548.36
124.87     624.00
124.97     568.00
