  9.97     602.00
 10.07     584.00
 10.17     592.00
 10.27     608.00
 10.37     538.47
 10.47     617.00
 10.57     626.00
 10.67     609.61
 10.77     603.00
 10.87     652.00
 10.97     613.00
 11.07     598.73
 11.17     610.00
 11.27     573.47
 11.37     582.00
 11.47     596.00
 11.57     571.00
 11.67     594.00
 11.77     642.00
 11.87     632.00
 11.97     640.59
 12.07     679.43
 12.17     634.00
 12.27     680.00
 12.37     730.48
 12.47     605.00
 12.57     640.31
 12.67     583.00
 12.77     557.00
 12.87     553.84
 12.97     587.00
 13.07     529.74
 13.17     557.20
 13.27     544.43
 13.37     551.00
 13.47     566.00
 13.57     582.00
 13.67     557.00
 13.77     612.16
 13.87     614.00
 13.97     580.61
 14.07     585.00
 14.17     586.00
 14.27     548.00
 14.37     597.44
 14.47     548.00
 14.57     591.28
 14.67     544.00
 14.77     592.63
 14.87     592.00
 14.97     571.95
 15.07     595.97
 15.17     547.00
 15.27     594.27
 15.37     556.00
 15.47     549.59
 15.57     613.96
 15.67     602.00
 15.77     588.91
 15.87     580.00
 15.97     569.18
 16.07     557.00
 16.17     582.35
 16.27     548.14
 16.37     544.00
 16.47     549.00
 16.57     524.00
 16.67     541.00
 16.77     579.00
 16.87     596.00
 16.97     569.00
 17.07     596.00
 17.17     590.00
 17.27     574.26
 17.37     553.00
 17.47     560.28
 17.57     549.03
 17.67     588.00
 17.77     575.00
 17.87     518.24
 17.97     522.98
 18.07     540.00
 18.17     594.05
 18.27     550.00
 18.37     578.00
 18.47     596.01
 18.57     517.24
 18.67     594.62
 18.77     580.14
 18.87     572.00
 18.97     581.00
 19.07     599.12
 19.17     603.91
 19.27     583.00
 19.37     526.00
 19.47     596.81
 19.57     550.00
 19.67     525.00
 19.77     573.00
 19.87     532.00
 19.97     566.00
 20.07     602.29
 20.17     573.00
 20.27     556.00
 20.37     590.34
 20.47     513.00
 20.57     558.00
 20.67     552.00
 20.77     536.85
 20.87     516.00
 20.97     570.21
 21.07     582.25
 21.17     592.26
 21.27     585.57
 21.37     540.21
 21.47     561.00
 21.57     549.00
 21.67     588.00
 21.77     536.00
 21.87     548.00
 21.97     546.00
 22.07     570.00
 22.17     563.00
 22.27     573.00
 22.37     582.00
 22.47     577.00
 22.57     568.07
 22.67     575.00
 22.77     551.00
 22.87     496.00
 22.97     586.00
 23.07     547.89
 23.17     523.00
 23.27     594.41
 23.37     512.00
 23.47     515.00
 23.57     580.00
 23.67     571.00
 23.77     555.00
 23.87     537.50
 23.97     591.00
 24.07     508.43
 24.17     605.00
 24.27     562.36
 24.37     596.00
 24.47     564.00
 24.57     606.54
 24.67     597.00
 24.77     617.00
 24.87     610.00
 24.97     605.92
 25.07     589.00
 25.17     546.18
 25.27     551.00
 25.37     510.43
 25.47     520.10
 25.57     558.00
 25.67     524.00
 25.77     584.00
 25.87     579.00
 25.97     556.00
 26.07     546.67
 26.17     587.75
 26.27     525.94
 26.37     535.68
 26.47     550.08
 26.57     512.50
 26.67     560.00
 26.77     521.82
 26.87     520.00
 26.97     549.00
 27.07     532.67
 27.17     560.00
 27.27     528.88
 27.37     549.00
 27.47     519.67
 27.57     557.00
 27.67     565.00
 27.77     570.83
 27.87     632.90
 27.97     656.00
 28.07     794.00
 28.17     916.54
 28.27     938.00
 28.37     892.21
 28.47     766.16
 28.57     703.00
 28.67     681.00
 28.77     787.30
 28.87     786.00
 28.97     810.00
 29.07     832.00
 29.17     724.00
 29.27     666.00
 29.37     571.00
 29.47     551.00
 29.57     601.00
 29.67     552.00
 29.77     542.00
 29.87     566.00
 29.97     560.48
 30.07     557.00
 30.17     550.37
 30.27     570.00
 30.37     518.53
 30.47     497.48
 30.57     543.00
 30.67     566.00
 30.77     585.83
 30.87     591.36
 30.97     617.00
 31.07     604.00
 31.17     605.00
 31.27     529.00
 31.37     530.00
 31.47     505.58
 31.57     554.00
 31.67     540.00
 31.77     552.00
 31.87     534.00
 31.97     553.00
 32.07     574.00
 32.17     537.00
 32.27     515.00
 32.37     571.49
 32.47     532.00
 32.57     552.00
 32.67     533.62
 32.77     549.00
 32.87     574.32
 32.97     540.00
 33.07     537.14
 33.17     516.00
 33.27     507.94
 33.37     558.00
 33.47     546.00
 33.57     560.79
 33.67     670.38
 33.77     732.00
 33.87     920.00
 33.97    1015.00
 34.07    1008.72
 34.17    1017.00
 34.27     917.32
 34.37     790.73
 34.47     598.00
 34.57     582.00
 34.67     568.00
 34.77     547.15
 34.87     543.00
 34.97     537.00
 35.07     526.73
 35.17     487.08
 35.27     535.00
 35.37     525.00
 35.47     528.00
 35.57     477.39
 35.67     495.00
 35.77     472.00
 35.87     489.83
 35.97     547.00
 36.07     499.61
 36.17     545.00
 36.27     524.00
 36.37     498.00
 36.47     476.23
 36.57     501.00
 36.67     522.84
 36.77     535.67
 36.87     518.00
 36.97     518.00
 37.07     513.61
 37.17     529.00
 37.27     520.00
 37.37     485.51
 37.47     521.68
 37.57     499.00
 37.67     485.70
 37.77     526.00
 37.87     492.00
 37.97     490.00
 38.07     528.00
 38.17     538.53
 38.27     523.00
 38.37     467.00
 38.47     517.00
 38.57     471.00
 38.67     492.00
 38.77     497.00
 38.87     485.00
 38.97     517.00
 39.07     533.06
 39.17     463.31
 39.27     517.29
 39.37     548.91
 39.47     464.91
 39.57     495.71
 39.67     478.31
 39.77     467.00
 39.87     474.00
 39.97     475.58
 40.07     528.00
 40.17     526.00
 40.27     492.00
 40.37     524.16
 40.47     476.62
 40.57     538.68
 40.67     507.93
 40.77     514.37
 40.87     503.48
 40.97     497.00
 41.07     447.00
 41.17     551.07
 41.27     492.44
 41.37     478.00
 41.47     467.00
 41.57     474.32
 41.67     515.66
 41.77     473.00
 41.87     498.51
 41.97     539.56
 42.07     478.06
 42.17     500.00
 42.27     533.00
 42.37     525.00
 42.47     552.00
 42.57     615.78
 42.67     599.00
 42.77     602.00
 42.87     604.00
 42.97     573.56
 43.07     520.00
 43.17     511.00
 43.27     502.00
 43.37     579.00
 43.47     536.00
 43.57     467.79
 43.67     553.53
 43.77     501.00
 43.87     519.00
 43.97     505.80
 44.07     490.00
 44.17     502.78
 44.27     544.00
 44.37     545.00
 44.47     500.03
 44.57     553.00
 44.67     521.00
 44.77     532.00
 44.87     492.00
 44.97     470.00
 45.07     514.00
 45.17     531.17
 45.27     523.00
 45.37     503.00
 45.47     515.00
 45.57     524.00
 45.67     515.00
 45.77     481.86
 45.87     512.00
 45.97     533.00
 46.07     545.00
 46.17     507.00
 46.27     518.00
 46.37     502.55
 46.47     488.53
 46.57     460.83
 46.67     518.00
 46.77     477.00
 46.87     471.00
 46.97     505.00
 47.07     501.00
 47.17     486.00
 47.27     530.00
 47.37     512.00
 47.47     521.00
 47.57     554.00
 47.67     618.20
 47.77     610.00
 47.87     558.47
 47.97     549.88
 48.07     553.82
 48.17     543.00
 48.27     543.00
 48.37     534.55
 48.47     555.06
 48.57     510.00
 48.67     523.80
 48.77     519.00
 48.87     546.00
 48.97     588.45
 49.07     563.00
 49.17     591.00
 49.27     637.00
 49.37     649.00
 49.47     743.00
 49.57     827.00
 49.67     886.00
 49.77    1117.49
 49.87    1461.00
 49.97    1830.00
 50.07    2174.72
 50.17    2465.00
 50.27    2406.00
 50.37    2333.00
 50.47    1869.59
 50.57    1512.68
 50.67    1082.00
 50.77     866.00
 50.87     692.00
 50.97     631.00
 51.07     667.98
 51.17     579.00
 51.27     615.22
 51.37     608.00
 51.47     582.31
 51.57     598.00
 51.67     594.05
 51.77     578.00
 51.87     576.00
 51.97     563.00
 52.07     526.00
 52.17     533.00
 52.27     520.92
 52.37     506.80
 52.47     590.20
 52.57     597.00
 52.67     559.64
 52.77     587.49
 52.87     648.87
 52.97     733.45
 53.07     731.06
 53.17     977.00
 53.27    1047.00
 53.37    1212.48
 53.47    1156.11
 53.57    1213.66
 53.67    1095.00
 53.77    1027.89
 53.87     825.00
 53.97     784.55
 54.07     685.47
 54.17     594.00
 54.27     546.00
 54.37     639.00
 54.47     584.00
 54.57     588.02
 54.67     584.34
 54.77     536.00
 54.87     580.00
 54.97     566.00
 55.07     602.00
 55.17     548.39
 55.27     571.00
 55.37     551.00
 55.47     519.00
 55.57     587.88
 55.67     582.00
 55.77     603.13
 55.87     559.00
 55.97     626.00
 56.07     703.24
 56.17     712.00
 56.27     880.00
 56.37    1192.00
 56.47    1331.00
 56.57    1777.00
 56.67    2137.00
 56.77    2423.84
 56.87    2680.09
 56.97    2632.00
 57.07    2280.81
 57.17    1950.23
 57.27    1700.00
 57.37    1273.23
 57.47    1071.00
 57.57     904.00
 57.67     748.08
 57.77     741.00
 57.87     688.49
 57.97     646.00
 58.07     727.23
 58.17     736.15
 58.27     785.00
 58.37     843.00
 58.47     987.88
 58.57    1169.31
 58.67    1316.42
 58.77    1402.41
 58.87    1550.00
 58.97    1576.00
 59.07    1597.00
 59.17    1564.00
 59.27    1517.00
 59.37    1435.00
 59.47    1252.00
 59.57    1211.00
 59.67    1119.21
 59.77    1078.13
 59.87    1195.00
 59.97    1331.00
 60.07    1386.00
 60.17    1600.00
 60.27    1603.00
 60.37    1579.00
 60.47    1442.61
 60.57    1180.31
 60.67    1131.00
 60.77     929.00
 60.87     766.56
 60.97     726.85
 61.07     703.00
 61.17     626.32
 61.27     655.00
 61.37     660.00
 61.47     650.00
 61.57     779.00
 61.67     821.31
 61.77     968.00
 61.87    1054.47
 61.97    1172.00
 62.07    1427.31
 62.17    1390.00
 62.27    1386.55
 62.37    1273.49
 62.47    1194.00
 62.57    1021.00
 62.67     955.42
 62.77     734.02
 62.87     667.46
 62.97     652.15
 63.07     601.00
 63.17     590.00
 63.27     575.00
 63.37     614.00
 63.47     587.00
 63.57     559.00
 63.67     581.00
 63.77     636.67
 63.87     577.00
 63.97     620.00
 64.07     686.00
 64.17     757.00
 64.27     795.00
 64.37     947.00
 64.47     952.13
 64.57    1028.00
 64.67    1013.00
 64.77     955.00
 64.87    1003.00
 64.97     947.00
 65.07     900.63
 65.17     770.00
 65.27     767.00
 65.37     649.00
 65.47     608.00
 65.57     605.00
 65.67     575.00
 65.77     576.00
 65.87     583.00
 65.97     598.00
 66.07     541.00
 66.17     570.00
 66.27     550.59
 66.37     551.00
 66.47     593.00
 66.57     570.00
 66.67     529.11
 66.77     577.92
 66.87     557.00
 66.97     622.00
 67.07     633.00
 67.17     671.00
 67.27     730.00
 67.37     845.00
 67.47    1046.00
 67.57    1213.43
 67.67    1481.00
 67.77    1776.00
 67.87    2073.00
 67.97    2371.00
 68.07    2410.39
 68.17    2395.00
 68.27    2399.00
 68.37    2118.00
 68.47    1897.00
 68.57    1604.00
 68.67    1271.00
 68.77    1035.00
 68.87     914.91
 68.97     735.40
 69.07     694.00
 69.17     664.61
 69.27     648.42
 69.37     554.29
 69.47     617.00
 69.57     587.00
 69.67     550.00
 69.77     568.00
 69.87     552.00
 69.97     550.15
 70.07     586.78
 70.17     559.97
 70.27     538.05
 70.37     573.00
 70.47     544.00
 70.57     573.91
 70.67     546.59
 70.77     560.76
 70.87     608.00
 70.97     598.98
 71.07     635.00
 71.17     759.38
 71.27     802.00
 71.37     888.00
 71.47    1067.32
 71.57    1230.14
 71.67    1416.00
 71.77    1672.40
 71.87    1788.00
 71.97    1891.00
 72.07    1839.34
 72.17    1865.00
 72.27    1732.00
 72.37    1619.51
 72.47    1530.00
 72.57    1303.26
 72.67    1163.60
 72.77    1084.00
 72.87    1051.39
 72.97     912.13
 73.07     803.00
 73.17     754.00
 73.27     814.70
 73.37     747.65
 73.47     672.15
 73.57     613.00
 73.67     574.00
 73.77     608.00
 73.87     593.00
 73.97     625.03
 74.07     636.00
 74.17     584.00
 74.27     589.00
 74.37     572.00
 74.47     630.00
 74.57     643.00
 74.67     604.24
 74.77     567.57
 74.87     535.49
 74.97     611.00
 75.07     615.00
 75.17     587.00
 75.27     579.00
 75.37     515.00
 75.47     564.00
 75.57     517.00
 75.67     522.25
 75.77     556.00
 75.87     613.63
 75.97     654.76
 76.07     619.00
 76.17     674.00
 76.27     709.31
 76.37     721.00
 76.47     735.00
 76.57     736.59
 76.67     714.00
 76.77     654.00
 76.87     601.00
 76.97     692.27
 77.07     578.88
 77.17     582.00
 77.27     533.00
 77.37     552.00
 77.47     591.66
 77.57     581.00
 77.67     494.90
 77.77     523.00
 77.87     495.00
 77.97     549.86
 78.07     566.00
 78.17     572.71
 78.27     531.00
 78.37     482.00
 78.47     487.00
 78.57     506.17
 78.67     544.00
 78.77     540.00
 78.87     528.00
 78.97     508.00
 79.07     557.00
 79.17     534.00
 79.27     553.00
 79.37     520.00
 79.47     544.00
 79.57     551.62
 79.67     507.00
 79.77     521.32
 79.87     538.00
 79.97     536.00
 80.07     571.00
 80.17     567.77
 80.27     563.54
 80.37     558.00
 80.47     587.00
 80.57     571.04
 80.67     628.00
 80.77     675.58
 80.87     654.94
 80.97     725.00
 81.07     704.00
 81.17     767.00
 81.27     703.40
 81.37     748.00
 81.47     776.00
 81.57     717.00
 81.67     803.00
 81.77     685.15
 81.87     685.00
 81.97     711.00
 82.07     694.00
 82.17     670.05
 82.27     622.00
 82.37     602.00
 82.47     621.00
 82.57     636.93
 82.67     570.00
 82.77     529.00
 82.87     552.00
 82.97     591.00
 83.07     504.00
 83.17     567.80
 83.27     534.00
 83.37     507.24
 83.47     579.00
 83.57     529.27
 83.67     591.42
 83.77     596.01
 83.87     592.00
 83.97     557.00
 84.07     615.38
 84.17     611.00
 84.27     590.00
 84.37     592.00
 84.47     543.78
 84.57     599.00
 84.67     514.65
 84.77     522.00
 84.87     560.00
 84.97     544.86
 85.07     540.00
 85.17     507.00
 85.27     553.21
 85.37     529.00
 85.47     491.85
 85.57     546.62
 85.67     568.00
 85.77     512.07
 85.87     502.00
 85.97     533.48
 86.07     537.00
 86.17     537.57
 86.27     529.00
 86.37     555.00
 86.47     550.00
 86.57     570.00
 86.67     550.00
 86.77     570.40
 86.87     574.00
 86.97     574.00
 87.07     653.00
 87.17     646.00
 87.27     679.00
 87.37     685.00
 87.47     652.00
 87.57     656.00
 87.67     646.72
 87.77     653.00
 87.87     649.71
 87.97     639.09
 88.07     539.94
 88.17     595.00
 88.27     602.00
 88.37     579.00
 88.47     582.00
 88.57     569.00
 88.67     526.00
 88.77     630.00
 88.87     565.98
 88.97     616.00
 89.07     635.00
 89.17     629.83
 89.27     601.00
 89.37     552.92
 89.47     595.00
 89.57     626.00
 89.67     584.00
 89.77     528.00
 89.87     574.82
 89.97     555.00
 90.07     554.56
 90.17     551.00
 90.27     536.00
 90.37     513.00
 90.47     532.00
 90.57     524.00
 90.67     532.00
 90.77     516.69
 90.87     495.11
 90.97     558.00
 91.07     538.73
 91.17     552.68
 91.27     547.54
 91.37     572.00
 91.47     551.00
 91.57     494.54
 91.67     533.00
 91.77     527.00
 91.87     533.00
 91.97     540.22
 92.07     569.00
 92.17     588.64
 92.27     596.00
 92.37     559.30
 92.47     563.00
 92.57     617.82
 92.67     588.00
 92.77     670.00
 92.87     724.00
 92.97     749.00
 93.07     731.00
 93.17     791.00
 93.27     791.00
 93.37     773.00
 93.47     864.00
 93.57     847.98
 93.67     832.00
 93.77     820.73
 93.87     901.00
 93.97     910.00
 94.07     809.71
 94.17     899.00
 94.27     852.33
 94.37     865.00
 94.47     845.08
 94.57     899.00
 94.67     896.24
 94.77     898.75
 94.87     848.43
 94.97     857.00
 95.07     886.00
 95.17     841.00
 95.27     837.00
 95.37     797.41
 95.47     803.00
 95.57     780.52
 95.67     683.75
 95.77     727.00
 95.87     719.00
 95.97     691.71
 96.07     668.00
 96.17     643.42
 96.27     690.00
 96.37     763.00
 96.47     771.61
 96.57     812.39
 96.67     901.00
 96.77     977.00
 96.87    1034.00
 96.97    1081.00
 97.07    1247.00
 97.17    1203.00
 97.27    1339.86
 97.37    1446.33
 97.47    1420.00
 97.57    1461.00
 97.67    1410.00
 97.77    1412.00
 97.87    1412.00
 97.97    1223.96
 98.07    1225.00
 98.17    1104.46
 98.27    1070.00
 98.37    1021.22
 98.47    1001.03
 98.57     946.13
 98.67     838.00
 98.77     840.00
 98.87     845.31
 98.97     784.00
 99.07     813.78
 99.17     876.40
 99.27     832.68
 99.37     949.00
 99.47    1049.20
 99.57    1070.00
 99.67    1155.00
 99.77    1216.53
 99.87    1460.83
 99.97    1508.00
100.07    1682.00
100.17    1713.00
100.27    1804.00
100.37    1965.00
100.47    2037.00
100.57    2087.29
100.67    2036.35
100.77    2065.00
100.87    2054.63
100.97    2092.00
101.07    1992.00
101.17    2027.00
101.27    1788.00
101.37    1740.00
101.47    1692.23
101.57    1462.98
101.67    1455.00
101.77    1414.87
101.87    1332.33
101.97    1233.00
102.07    1184.82
102.17    1198.00
102.27    1128.49
102.37    1078.99
102.47    1156.00
102.57    1141.34
102.67    1083.00
102.77     996.00
102.87    1005.00
102.97     975.00
103.07     874.16
103.17     865.54
103.27     827.32
103.37     830.51
103.47     790.92
103.57     764.00
103.67     708.88
103.77     632.19
103.87     612.00
103.97     618.00
104.07     613.00
104.17     598.00
104.27     568.16
104.37     530.00
104.47     564.00
104.57     517.00
104.67     516.00
104.77     556.00
104.87     594.00
104.97     534.84
105.07     541.00
105.17     546.00
105.27     563.00
105.37     501.56
105.47     546.00
105.57     541.00
105.67     539.00
105.77     559.00
105.87     592.00
105.97     587.00
106.07     555.00
106.17     599.00
106.27     549.00
106.37     631.99
106.47     607.00
106.57     593.00
106.67     625.00
106.77     654.00
106.87     629.00
106.97     646.00
107.07     661.79
107.17     686.00
107.27     665.28
107.37     752.22
107.47     666.72
107.57     690.00
107.67     715.00
107.77     701.03
107.87     648.00
107.97     729.32
108.07     686.91
108.17     691.12
108.27     657.00
108.37     654.00
108.47     662.00
108.57     701.00
108.67     639.00
108.77     726.40
108.87     708.14
108.97     655.53
109.07     620.00
109.17     669.00
109.27     644.95
109.37     665.62
109.47     592.16
109.57     634.00
109.67     604.00
109.77     595.00
109.87     565.46
109.97     546.56
110.07     574.13
110.17     574.00
110.27     559.00
110.37     550.62
110.47     587.00
110.57     553.00
110.67     498.86
110.77     518.00
110.87     558.85
110.97     484.88
111.07     546.00
111.17     561.32
111.27     500.74
111.37     544.00
111.47     556.09
111.57     542.59
111.67     537.00
111.77     537.23
111.87     556.00
111.97     538.76
112.07     547.90
112.17     581.78
112.27     542.00
112.37     586.98
112.47     607.00
112.57     573.00
112.67     586.00
112.77     633.00
112.87     726.00
112.97     669.00
113.07     687.30
113.17     752.11
113.27     729.00
113.37     752.43
113.47     797.00
113.57     808.00
113.67     942.00
113.77     923.00
113.87     962.00
113.97    1041.00
114.07    1081.12
114.17    1158.00
114.27    1127.53
114.37    1220.24
114.47    1340.00
114.57    1453.86
114.67    1552.00
114.77    1664.63
114.87    1916.00
114.97    2182.00
115.07    2277.00
115.17    2460.90
115.27    2840.00
115.37    2977.00
115.47    3346.23
115.57    3828.00
115.67    4196.78
115.77    4361.00
115.87    4814.95
115.97    5138.00
116.07    5567.00
116.17    6099.18
116.27    6177.63
116.37    6590.00
116.47    6655.00
116.57    6795.55
116.67    7100.00
116.77    6976.00
116.87    6952.00
116.97    6639.00
117.07    6504.00
117.17    6149.00
117.27    5519.00
117.37    5302.31
117.47    5167.06
117.57    4717.00
117.67    4320.00
117.77    3983.00
117.87    3451.02
117.97    3178.94
118.07    2696.96
118.17    2457.92
118.27    2288.25
118.37    1980.00
118.47    1752.60
118.57    1640.00
118.67    1373.00
118.77    1196.25
118.87    1178.00
118.97    1047.00
119.07     929.00
119.17     928.81
119.27     778.00
119.37     786.41
119.47     693.00
119.57     686.03
119.67     634.30
119.77     699.27
119.87     651.00
119.97     586.00
120.07     585.00
120.17     566.00
120.27     564.00
120.37     553.19
120.47     545.78
120.57     545.00
120.67     592.00
120.77     589.91
120.87     568.00
120.97     547.00
121.07     575.00
121.17     605.73
121.27     533.00
121.37     577.00
121.47     579.72
121.57     599.00
121.67     585.00
121.77     593.00
121.87     594.00
121.97     553.71
122.07     610.00
122.17     619.00
122.27     606.00
122.37     617.00
122.47     624.00
122.57     660.00
122.67     593.00
122.77     658.00
122.87     654.00
122.97     660.00
123.07     633.00
123.17     668.00
123.27     607.12
123.37     687.32
123.47     655.00
123.57     608.00
123.67     633.20
123.77     632.00
123.87     602.00
123.97     614.00
124.07     569.41
124.17     615.00
124.27     608.31
124.37     640.00
124.47     669.00
124.57     599.80
124.67     553.39
124.77     569.31
124.87     582.48
124.97     597.00
