  9.97     613.00
 10.07     623.00
 10.17     617.00
 10.27     566.00
 10.37     523.63
 10.47     565.26
 10.57     528.50
 10.67     574.00
 10.77     594.00
 10.87     629.00
 10.97     515.86
 11.07     592.25
 11.17     554.00
 11.27     565.00
 11.37     573.00
 11.47     588.00
 11.57     595.00
 11.67     575.52
 11.77     611.31
 11.87     648.00
 11.97     632.20
 12.07     676.00
 12.17     647.00
 12.27     725.85
 12.37     641.45
 12.47     609.42
 12.57     579.00
 12.67     548.00
 12.77     563.00
 12.87     568.00
 12.97     529.00
 13.07     563.00
 13.17     522.02
 13.27     600.50
 13.37     560.13
 13.47     529.00
 13.57     507.00
 13.67     537.00
 13.77     523.00
 13.87     551.03
 13.97     478.00
 14.07     580.31
 14.17     521.32
 14.27     558.65
 14.37     571.58
 14.47     555.00
 14.57     518.00
 14.67     530.50
 14.77     595.56
 14.87     543.00
 14.97     547.00
 15.07     545.00
 15.17     496.00
 15.27     540.22
 15.37     558.00
 15.47     551.00
 15.57     537.00
 15.67     544.00
 15.77     552.00
 15.87     528.36
 15.97     539.00
 16.07     546.15
 16.17     515.00
 16.27     573.25
 16.37     571.13
 16.47     525.00
 16.57     578.00
 16.67     551.44
 16.77     587.00
 16.87     556.00
 16.97     553.00
 17.07     562.00
 17.17     585.00
 17.27     543.00
 17.37     543.00
 17.47     595.00
 17.57     546.00
 17.67     509.00
 17.77     542.00
 17.87     543.00
 17.97     547.00
 18.07     554.72
 18.17     542.00
 18.27     575.42
 18.37     585.59
 18.47     511.00
 18.57     548.86
 18.67     551.00
 18.77     518.21
 18.87     535.00
 18.97     537.00
 19.07     527.00
 19.17     536.00
 19.27     592.70
 19.37     535.00
 19.47     554.00
 19.57     559.00
 19.67     533.00
 19.77     489.00
 19.87     531.00
 19.97     574.00
 20.07     526.00
 20.17     533.00
 20.27     542.00
 20.37     553.28
 20.47     526.87
 20.57     521.00
 20.67     527.00
 20.77     547.50
 20.87     527.00
 20.97     554.29
 21.07     515.42
 21.17     580.00
 21.27     539.66
 21.37     515.97
 21.47     537.00
 21.57     559.00
 21.67     543.68
 21.77     595.00
 21.87     586.00
 21.97     545.00
 22.07     565.81
 22.17     534.00
 22.27     546.00
 22.37     571.08
 22.47     583.21
 22.57     512.68
 22.67     561.00
 22.77     559.06
 22.87     532.00
 22.97     529.00
 23.07     544.00
 23.17     545.00
 23.27     559.92
 23.37     572.00
 23.47     578.00
 23.57     543.77
 23.67     539.00
 23.77     509.00
 23.87     515.65
 23.97     539.00
 24.07     567.00
 24.17     608.00
 24.27     572.00
 24.37     570.04
 24.47     580.00
 24.57     595.00
 24.67     628.00
 24.77     582.03
 24.87     661.00
 24.97     600.58
 25.07     641.00
 25.17     598.00
 25.27     615.00
 25.37     608.00
 25.47     582.89
 25.57     568.00
 25.67     507.26
 25.77     568.00
 25.87     554.00
 25.97     538.18
 26.07     507.99
 26.17     581.00
 26.27     610.00
 26.37     522.61
 26.47     492.00
 26.57     571.00
 26.67     532.00
 26.77     559.00
 26.87     560.87
 26.97     582.69
 27.07     594.00
 27.17     569.00
 27.27     566.00
 27.37     595.00
 27.47     539.00
 27.57     548.96
 27.67     581.00
 27.77     622.00
 27.87     557.00
 27.97     657.00
 28.07     726.00
 28.17     816.72
 28.27     933.00
 28.37     960.00
 28.47     834.58
 28.57     746.00
 28.67     715.00
 28.77     766.00
 28.87     794.90
 28.97     847.00
 29.07     824.23
 29.17     779.25
 29.27     730.00
 29.37     655.00
 29.47     541.00
 29.57     594.00
 29.67     617.00
 29.77     573.00
 29.87     550.00
 29.97     539.29
 30.07     582.00
 30.17     556.00
 30.27     588.00
 30.37     559.00
 30.47     576.92
 30.57     552.00
 30.67     583.00
 30.77     630.00
 30.87     586.00
 30.97     634.73
 31.07     604.63
 31.17     632.84
 31.27     565.04
 31.37     544.00
 31.47     543.00
 31.57     527.46
 31.67     526.99
 31.77     548.00
 31.87     582.00
 31.97     590.00
 32.07     520.00
 32.17     525.00
 32.27     571.00
 32.37     545.00
 32.47     534.00
 32.57     537.00
 32.67     577.00
 32.77     539.00
 32.87     538.03
 32.97     543.00
 33.07     567.48
 33.17     561.00
 33.27     546.00
 33.37     520.00
 33.47     557.00
 33.57     574.40
 33.67     650.73
 33.77     684.00
 33.87     768.00
 33.97     917.00
 34.07    1063.00
 34.17     995.65
 34.27     954.00
 34.37     851.17
 34.47     772.55
 34.57     646.35
 34.67     610.00
 34.77     583.46
 34.87     559.00
 34.97     565.00
 35.07     525.00
 35.17     498.00
 35.27     489.05
 35.37     505.09
 35.47     558.91
 35.57     506.00
 35.67     512.34
 35.77     488.00
 35.87     497.00
 35.97     499.44
 36.07     527.23
 36.17     541.26
 36.27     477.64
 36.37     512.00
 36.47     532.41
 36.57     511.00
 36.67     496.00
 36.77     477.00
 36.87     459.00
 36.97     468.00
 37.07     481.00
 37.17     529.84
 37.27     467.00
 37.37     503.00
 37.47     514.75
 37.57     531.00
 37.67     541.08
 37.77     514.00
 37.87     521.00
 37.97     502.77
 38.07     516.41
 38.17     485.00
 38.27     498.00
 38.37     457.00
 38.47     504.00
 38.57     474.00
 38.67     524.99
 38.77     520.00
 38.87     515.58
 38.97     472.00
 39.07     516.00
 39.17     492.00
 39.27     490.00
 39.37     508.66
 39.47     518.00
 39.57     536.11
 39.67     502.11
 39.77     485.00
 39.87     474.14
 39.97     496.00
 40.07     476.35
 40.17     504.18
 40.27     516.00
 40.37     511.70
 40.47     507.00
 40.57     479.00
 40.67     532.51
 40.77     459.50
 40.87     464.62
 40.97     486.00
 41.07     516.00
 41.17     468.62
 41.27     468.00
 41.37     485.00
 41.47     470.00
 41.57     504.00
 41.67     530.00
 41.77     540.44
 41.87     514.00
 41.97     488.00
 42.07     498.00
 42.17     481.00
 42.27     499.59
 42.37     496.07
 42.47     577.56
 42.57     574.00
 42.67     528.00
 42.77     634.52
 42.87     589.00
 42.97     574.66
 43.07     560.00
 43.17     525.00
 43.27     502.00
 43.37     516.00
 43.47     484.57
 43.57     465.77
 43.67     503.00
 43.77     501.61
 43.87     480.00
 43.97     533.00
 44.07     454.88
 44.17     519.81
 44.27     481.00
 44.37     464.13
 44.47     495.00
 44.57     508.00
 44.67     533.73
 44.77     532.39
 44.87     480.63
 44.97     510.87
 45.07     517.87
 45.17     467.00
 45.27     527.68
 45.37     506.00
 45.47     495.38
 45.57     518.00
 45.67     509.52
 45.77     472.00
 45.87     490.00
 45.97     499.00
 46.07     499.00
 46.17     467.00
 46.27     498.00
 46.37     495.20
 46.47     534.00
 46.57     483.73
 46.67     513.00
 46.77     524.14
 46.87     468.00
 46.97     506.55
 47.07     487.00
 47.17     471.00
 47.27     534.00
 47.37     532.00
 47.47     528.35
 47.57     570.77
 47.67     563.00
 47.77     586.84
 47.87     580.00
 47.97     563.00
 48.07     569.85
 48.17     544.08
 48.27     567.00
 48.37     559.00
 48.47     529.00
 48.57     523.00
 48.67     500.45
 48.77     509.00
 48.87     565.00
 48.97     502.00
 49.07     525.16
 49.17     558.00
 49.27     552.00
 49.37     588.00
 49.47     599.00
 49.57     631.35
 49.67     670.00
 49.77     833.00
 49.87    1097.95
 49.97    1430.00
 50.07    1818.71
 50.17    2096.00
 50.27    2413.00
 50.37    2349.54
 50.47    2068.45
 50.57    1851.00
 50.67    1321.00
 50.77    1066.00
 50.87     856.00
 50.97     750.00
 51.07     660.00
 51.17     674.00
 51.27     617.32
 51.37     643.00
 51.47     606.00
 51.57     583.98
 51.67     573.00
 51.77     555.33
 51.87     558.00
 51.97     516.00
 52.07     566.69
 52.17     537.00
 52.27     552.00
 52.37     512.16
 52.47     542.00
 52.57     573.87
 52.67     602.00
 52.77     542.62
 52.87     609.00
 52.97     671.85
 53.07     687.00
 53.17     765.64
 53.27     915.00
 53.37     948.00
 53.47    1164.00
 53.57    1095.06
 53.67    1111.37
 53.77    1060.81
 53.87    1016.00
 53.97     971.64
 54.07     796.00
 54.17     702.00
 54.27     634.00
 54.37     578.82
 54.47     574.00
 54.57     542.21
 54.67     529.12
 54.77     559.44
 54.87     519.40
 54.97     538.81
 55.07     560.00
 55.17     520.00
 55.27     581.00
 55.37     552.00
 55.47     548.00
 55.57     558.94
 55.67     600.71
 55.77     595.00
 55.87     600.00
 55.97     626.77
 56.07     653.00
 56.17     698.00
 56.27     795.00
 56.37     894.00
 56.47    1115.24
 56.57    1480.37
 56.67    1695.00
 56.77    2116.05
 56.87    2346.00
 56.97    2489.00
 57.07    2534.57
 57.17    2277.00
 57.27    1980.00
 57.37    1724.00
 57.47    1416.00
 57.57    1164.54
 57.67     973.00
 57.77     807.00
 57.87     801.11
 57.97     749.00
 58.07     706.00
 58.17     720.00
 58.27     708.00
 58.37     752.00
 58.47     830.68
 58.57     880.00
 58.67     930.29
 58.77     965.00
 58.87    1118.12
 58.97    1259.00
 59.07    1272.00
 59.17    1320.00
 59.27    1361.00
 59.37    1255.00
 59.47    1236.00
 59.57    1105.71
 59.67    1081.32
 59.77    1147.00
 59.87    1176.15
 59.97    1243.00
 60.07    1256.14
 60.17    1432.00
 60.27    1459.00
 60.37    1559.87
 60.47    1458.63
 60.57    1488.00
 60.67    1275.00
 60.77    1108.35
 60.87    1004.00
 60.97     805.05
 61.07     781.00
 61.17     686.00
 61.27     676.00
 61.37     664.00
 61.47     642.00
 61.57     679.64
 61.67     740.00
 61.77     766.00
 61.87     893.00
 61.97    1120.64
 62.07    1184.00
 62.17    1311.00
 62.27    1377.07
 62.37    1261.00
 62.47    1259.00
 62.57    1202.00
 62.67    1106.69
 62.77     952.19
 62.87     840.00
 62.97     785.00
 63.07     685.00
 63.17     609.00
 63.27     556.33
 63.37     642.00
 63.47     594.00
 63.57     533.84
 63.67     574.00
 63.77     608.00
 63.87     591.50
 63.97     652.00
 64.07     649.00
 64.17     684.72
 64.27     810.00
 64.37     792.00
 64.47     828.98
 64.57     859.00
 64.67     931.78
 64.77     965.93
 64.87    1044.87
 64.97    1006.80
 65.07     913.99
 65.17     844.00
 65.27     828.67
 65.37     738.00
 65.47     739.68
 65.57     687.24
 65.67     636.00
 65.77     636.00
 65.87     583.77
 65.97     608.44
 66.07     581.10
 66.17     592.69
 66.27     606.22
 66.37     576.00
 66.47     551.00
 66.57     557.00
 66.67     555.00
 66.77     570.00
 66.87     623.73
 66.97     614.00
 67.07     642.00
 67.17     617.00
 67.27     693.00
 67.37     713.00
 67.47     873.00
 67.57    1033.00
 67.67    1169.15
 67.77    1451.00
 67.87    1639.00
 67.97    1931.00
 68.07    2275.00
 68.17    2205.34
 68.27    2396.09
 68.37    2338.00
 68.47    2149.00
 68.57    1950.99
 68.67    1724.00
 68.77    1424.00
 68.87    1227.33
 68.97    1022.00
 69.07     897.95
 69.17     772.56
 69.27     728.40
 69.37     634.00
 69.47     659.97
 69.57     582.00
 69.67     598.00
 69.77     586.01
 69.87     586.00
 69.97     568.00
 70.07     573.43
 70.17     580.00
 70.27     618.00
 70.37     522.00
 70.47     530.34
 70.57     568.51
 70.67     603.36
 70.77     586.27
 70.87     570.00
 70.97     654.00
 71.07     650.24
 71.17     660.00
 71.27     712.66
 71.37     789.00
 71.47     897.00
 71.57    1025.00
 71.67    1195.00
 71.77    1296.54
 71.87    1484.00
 71.97    1615.00
 72.07    1853.44
 72.17    1820.00
 72.27    1882.00
 72.37    1752.00
 72.47    1655.00
 72.57    1455.00
 72.67    1306.27
 72.77    1178.00
 72.87    1076.00
 72.97     948.00
 73.07     844.00
 73.17     773.40
 73.27     760.00
 73.37     690.00
 73.47     615.00
 73.57     606.70
 73.67     603.00
 73.77     605.00
 73.87     587.00
 73.97     598.70
 74.07     514.00
 74.17     598.00
 74.27     614.00
 74.37     597.00
 74.47     616.06
 74.57     625.00
 74.67     560.27
 74.77     629.00
 74.87     609.22
 74.97     623.00
 75.07     609.00
 75.17     521.15
 75.27     560.00
 75.37     559.00
 75.47     561.00
 75.57     516.83
 75.67     565.03
 75.77     574.00
 75.87     598.00
 75.97     554.41
 76.07     591.48
 76.17     616.00
 76.27     642.87
 76.37     677.58
 76.47     633.00
 76.57     635.00
 76.67     683.00
 76.77     732.80
 76.87     706.00
 76.97     667.00
 77.07     701.68
 77.17     627.89
 77.27     577.00
 77.37     547.00
 77.47     613.00
 77.57     578.00
 77.67     559.00
 77.77     527.00
 77.87     497.34
 77.97     546.66
 78.07     516.00
 78.17     498.06
 78.27     478.85
 78.37     518.47
 78.47     513.84
 78.57     497.00
 78.67     508.56
 78.77     538.14
 78.87     458.00
 78.97     512.07
 79.07     530.08
 79.17     531.00
 79.27     542.00
 79.37     482.00
 79.47     522.00
 79.57     541.68
 79.67     542.00
 79.77     542.57
 79.87     508.54
 79.97     504.09
 80.07     505.10
 80.17     504.73
 80.27     537.00
 80.37     553.00
 80.47     573.00
 80.57     590.00
 80.67     548.78
 80.77     578.57
 80.87     583.00
 80.97     608.13
 81.07     648.00
 81.17     689.00
 81.27     724.00
 81.37     711.00
 81.47     720.14
 81.57     691.25
 81.67     713.06
 81.77     736.91
 81.87     676.68
 81.97     710.00
 82.07     643.00
 82.17     705.97
 82.27     635.00
 82.37     693.00
 82.47     655.00
 82.57     628.00
 82.67     570.48
 82.77     561.00
 82.87     578.00
 82.97     528.00
 83.07     498.00
 83.17     498.00
 83.27     523.82
 83.37     494.00
 83.47     538.00
 83.57     492.00
 83.67     522.00
 83.77     555.97
 83.87     576.00
 83.97     517.03
 84.07     531.00
 84.17     551.00
 84.27     509.00
 84.37     520.46
 84.47     567.01
 84.57     563.68
 84.67     576.21
 84.77     519.00
 84.87     535.97
 84.97     564.78
 85.07     534.89
 85.17     491.00
 85.27     527.10
 85.37     559.00
 85.47     537.00
 85.57     485.00
 85.67     501.00
 85.77     517.89
 85.87     535.24
 85.97     485.34
 86.07     526.00
 86.17     539.00
 86.27     583.00
 86.37     517.11
 86.47     549.00
 86.57     533.93
 86.67     519.26
 86.77     570.09
 86.87     568.00
 86.97     565.00
 87.07     519.10
 87.17     560.00
 87.27     611.00
 87.37     638.85
 87.47     592.00
 87.57     607.00
 87.67     660.00
 87.77     630.00
 87.87     618.25
 87.97     615.50
 88.07     609.25
 88.17     600.00
 88.27     585.00
 88.37     547.00
 88.47     632.00
 88.57     518.69
 88.67     583.00
 88.77     594.72
 88.87     552.00
 88.97     544.00
 89.07     564.00
 89.17     579.00
 89.27     594.00
 89.37     573.00
 89.47     545.16
 89.57     617.37
 89.67     535.00
 89.77     592.00
 89.87     590.00
 89.97     560.00
 90.07     502.00
 90.17     536.00
 90.27     540.00
 90.37     540.00
 90.47     529.00
 90.57     518.35
 90.67     546.00
 90.77     508.00
 90.87     524.00
 90.97     486.76
 91.07     480.40
 91.17     484.00
 91.27     529.51
 91.37     479.61
 91.47     519.00
 91.57     536.00
 91.67     511.22
 91.77     518.00
 91.87     519.00
 91.97     554.61
 92.07     515.00
 92.17     541.00
 92.27     527.00
 92.37     572.59
 92.47     582.00
 92.57     574.00
 92.67     566.45
 92.77     595.00
 92.87     653.00
 92.97     661.00
 93.07     702.00
 93.17     644.82
 93.27     675.00
 93.37     729.33
 93.47     727.00
 93.57     753.00
 93.67     807.00
 93.77     756.00
 93.87     834.63
 93.97     799.00
 94.07     808.81
 94.17     819.99
 94.27     841.37
 94.37     877.50
 94.47     814.02
 94.57     851.43
 94.67     884.26
 94.77     901.00
 94.87     881.00
 94.97     890.00
 95.07     892.00
 95.17     917.00
 95.27     838.00
 95.37     890.00
 95.47     770.14
 95.57     785.14
 95.67     760.13
 95.77     749.00
 95.87     669.84
 95.97     733.09
 96.07     717.00
 96.17     732.40
 96.27     695.00
 96.37     659.27
 96.47     698.00
 96.57     754.00
 96.67     787.00
 96.77     814.14
 96.87     861.00
 96.97     993.00
 97.07    1026.00
 97.17    1109.02
 97.27    1174.00
 97.37    1216.00
 97.47    1260.53
 97.57    1306.79
 97.67    1417.00
 97.77    1316.00
 97.87    1353.00
 97.97    1412.29
 98.07    1378.00
 98.17    1305.00
 98.27    1284.00
 98.37    1207.00
 98.47    1144.00
 98.57    1028.00
 98.67     989.00
 98.77     978.00
 98.87     946.71
 98.97     858.97
 99.07     905.53
 99.17     850.00
 99.27     861.00
 99.37     913.00
 99.47     902.00
 99.57     927.00
 99.67    1008.00
 99.77    1043.00
 99.87    1214.46
 99.97    1298.33
100.07    1310.00
100.17    1479.33
100.27    1497.00
100.37    1599.33
100.47    1732.36
100.57    1720.00
100.67    1837.21
100.77    1881.00
100.87    1855.31
100.97    2004.00
101.07    1981.00
101.17    1946.00
101.27    1855.45
101.37    1878.00
101.47    1812.64
101.57    1746.00
101.67    1637.43
101.77    1635.00
101.87    1540.78
101.97    1426.00
102.07    1394.00
102.17    1352.00
102.27    1223.58
102.37    1231.00
102.47    1214.00
102.57    1143.00
102.67    1164.00
102.77    1144.00
102.87    1070.00
102.97    1060.00
103.07    1089.00
103.17    1060.00
103.27     957.00
103.37     967.79
103.47     877.00
103.57     911.00
103.67     829.00
103.77     792.00
103.87     802.00
103.97     741.85
104.07     644.62
104.17     671.00
104.27     648.90
104.37     616.00
104.47     626.00
104.57     621.00
104.67     575.00
104.77     532.40
104.87     515.00
104.97     586.00
105.07     539.00
105.17     581.00
105.27     555.00
105.37     511.00
105.47     552.00
105.57     540.58
105.67     532.00
105.77     560.85
105.87     570.00
105.97     534.00
106.07     555.00
106.17     564.00
106.27     570.94
106.37     503.00
106.47     615.00
106.57     595.33
106.67     606.00
106.77     577.27
106.87     592.00
106.97     623.18
107.07     606.00
107.17     606.00
107.27     601.00
107.37     670.00
107.47     641.00
107.57     606.00
107.67     642.49
107.77     673.00
107.87     697.00
107.97     726.00
108.07     634.00
108.17     672.10
108.27     659.21
108.37     668.00
108.47     681.00
108.57     663.00
108.67     706.00
108.77     711.25
108.87     634.00
108.97     707.64
109.07     728.74
109.17     673.00
109.27     638.45
109.37     636.00
109.47     678.00
109.57     662.00
109.67     666.00
109.77     627.00
109.87     651.60
109.97     626.00
110.07     624.98
110.17     586.00
110.27     618.59
110.37     599.00
110.47     615.00
110.57     583.01
110.67     573.00
110.77     569.00
110.87     514.87
110.97     552.00
111.07     579.00
111.17     567.00
111.27     493.37
111.37     500.00
111.47     503.00
111.57     519.00
111.67     555.00
111.77     581.31
111.87     567.00
111.97     552.00
112.07     591.00
112.17     550.46
112.27     539.56
112.37     525.99
112.47     559.62
112.57     558.28
112.67     553.00
112.77     605.17
112.87     564.00
112.97     614.35
113.07     641.95
113.17     610.21
113.27     594.00
113.37     557.00
113.47     614.00
113.57     577.00
113.67     638.00
113.77     727.72
113.87     725.00
113.97     729.00
114.07     679.00
114.17     764.00
114.27     869.52
114.37     936.54
114.47     950.00
114.57    1052.57
114.67    1158.00
114.77    1221.00
114.87    1296.11
114.97    1465.56
115.07    1646.00
115.17    1877.00
115.27    2071.00
115.37    2319.00
115.47    2583.00
115.57    2861.26
115.67    3240.43
115.77    3559.00
115.87    3941.97
115.97    4217.00
116.07    4478.06
116.17    4967.40
116.27    5338.60
116.37    5552.76
116.47    6004.00
116.57    6292.80
116.67    6428.93
116.77    6721.00
116.87    6865.00
116.97    6831.00
117.07    6820.00
117.17    6622.16
117.27    6643.00
117.37    6434.96
117.47    6198.34
117.57    5764.00
117.67    5481.24
117.77    5115.04
117.87    4839.88
117.97    4511.34
118.07    4145.00
118.17    3818.00
118.27    3316.04
118.37    3005.91
118.47    2731.95
118.57    2456.01
118.67    2333.00
118.77    1938.00
118.87    1777.00
118.97    1694.58
119.07    1462.45
119.17    1299.00
119.27    1138.04
119.37    1082.00
119.47    1004.00
119.57     903.75
119.67     970.00
119.77     805.00
119.87     741.07
119.97     754.59
120.07     702.00
120.17     711.00
120.27     652.71
120.37     604.33
120.47     642.00
120.57     624.00
120.67     614.00
120.77     605.00
120.87     600.00
120.97     557.00
121.07     526.00
121.17     577.23
121.27     595.00
121.37     593.00
121.47     597.00
121.57     581.00
121.67     534.07
121.77     555.00
121.87     538.00
121.97     532.00
122.07     626.66
122.17     615.00
122.27     631.03
122.37     583.00
122.47     611.00
122.57     605.00
122.67     591.00
122.77     628.00
122.87     592.62
122.97     634.87
123.07     664.00
123.17     633.00
123.27     661.00
123.37     666.00
123.47     638.68
123.57     686.00
123.67     649.00
123.77     609.00
123.87     590.00
123.97     647.01
124.07     609.00
124.17     599.84
124.27     557.29
124.37     603.00
124.47     585.00
124.57     629.87
124.67     585.00
124.77     558.70
124.87     595.00
124.97     609.00
