  9.97     745.00
 10.07     670.55
 10.17     738.35
 10.27     729.06
 10.37     730.00
 10.47     767.00
 10.57     679.33
 10.67     700.98
 10.77     651.97
 10.87     776.00
 10.97     699.00
 11.07     745.71
 11.17     692.00
 11.27     675.51
 11.37     719.00
 11.47     733.65
 11.57     781.00
 11.67     731.14
 11.77     681.79
 11.87     750.00
 11.97     783.00
 12.07     887.00
 12.17     739.45
 12.27     836.00
 12.37     847.72
 12.47     777.93
 12.57     786.00
 12.67     715.00
 12.77     678.98
 12.87     741.19
 12.97     682.24
 13.07     650.00
 13.17     657.00
 13.27     646.71
 13.37     706.61
 13.47     699.47
 13.57     636.00
 13.67     673.81
 13.77     683.00
 13.87     695.00
 13.97     700.00
 14.07     691.00
 14.17     649.00
 14.27     711.76
 14.37     666.74
 14.47     695.65
 14.57     668.00
 14.67     621.00
 14.77     647.00
 14.87     689.00
 14.97     678.33
 15.07     654.00
 15.17     684.42
 15.27     639.00
 15.37     680.97
 15.47     611.44
 15.57     653.00
 15.67     623.44
 15.77     636.00
 15.87     623.00
 15.97     671.00
 16.07     649.00
 16.17     630.00
 16.27     574.00
 16.37     698.73
 16.47     650.00
 16.57     689.41
 16.67     679.03
 16.77     605.00
 16.87     697.01
 16.97     623.89
 17.07     683.00
 17.17     654.00
 17.27     691.97
 17.37     648.04
 17.47     655.00
 17.57     616.00
 17.67     684.13
 17.77     684.74
 17.87     637.00
 17.97     613.31
 18.07     634.00
 18.17     646.00
 18.27     597.00
 18.37     653.00
 18.47     625.00
 18.57     650.00
 18.67     669.00
 18.77     611.00
 18.87     599.00
 18.97     633.00
 19.07     650.00
 19.17     672.00
 19.27     644.00
 19.37     657.69
 19.47     609.45
 19.57     657.00
 19.67     590.00
 19.77     680.00
 19.87     610.00
 19.97     601.00
 20.07     618.00
 20.17     630.11
 20.27     636.00
 20.37     581.00
 20.47     622.00
 20.57     678.87
 20.67     633.00
 20.77     579.00
 20.87     633.06
 20.97     659.38
 21.07     588.00
 21.17     629.75
 21.27     590.00
 21.37     627.00
 21.47     587.66
 21.57     633.00
 21.67     584.24
 21.77     617.56
 21.87     624.18
 21.97     663.00
 22.07     620.00
 22.17     603.52
 22.27     629.00
 22.37     647.00
 22.47     612.43
 22.57     627.00
 22.67     623.00
 22.77     599.00
 22.87     635.00
 22.97     622.44
 23.07     644.92
 23.17     570.00
 23.27     623.61
 23.37     602.00
 23.47     602.00
 23.57     545.00
 23.67     644.89
 23.77     584.36
 23.87     649.00
 23.97     591.67
 24.07     634.91
 24.17     671.00
 24.27     645.39
 24.37     677.18
 24.47     672.00
 24.57     661.60
 24.67     663.00
 24.77     684.00
 24.87     672.00
 24.97     731.23
 25.07     688.00
 25.17     667.00
 25.27     707.85
 25.37     656.00
 25.47     650.00
 25.57     646.00
 25.67     681.00
 25.77     616.59
 25.87     589.53
 25.97     683.00
 26.07     643.00
 26.17     657.00
 26.27     607.99
 26.37     664.00
 26.47     624.67
 26.57     652.00
 26.67     610.00
 26.77     682.00
 26.87     624.22
 26.97     666.00
 27.07     658.00
 27.17     739.92
 27.27     665.00
 27.37     765.39
 27.47     729.10
 27.57     857.00
 27.67     814.57
 27.77     918.00
 27.87    1051.00
 27.97    1386.00
 28.07    1910.00
 28.17    3179.00
 28.27    5306.40
 28.37    7329.00
 28.47    8229.00
 28.57    7560.00
 28.67    5795.00
 28.77    3986.24
 28.87    3489.00
 28.97    3628.00
 29.07    4404.00
 29.17    4562.26
 29.27    4194.75
 29.37    3178.32
 29.47    2272.00
 29.57    1621.14
 29.67    1170.47
 29.77    1055.00
 29.87     934.00
 29.97     893.00
 30.07     769.00
 30.17     690.35
 30.27     787.00
 30.37     702.00
 30.47     668.00
 30.57     691.90
 30.67     717.00
 30.77     671.95
 30.87     750.00
 30.97     729.44
 31.07     790.00
 31.17     831.69
 31.27     798.61
 31.37     736.00
 31.47     733.00
 31.57     766.00
 31.67     689.00
 31.77     664.00
 31.87     682.00
 31.97     686.00
 32.07     653.00
 32.17     598.25
 32.27     644.86
 32.37     628.00
 32.47     577.28
 32.57     648.73
 32.67     579.72
 32.77     585.25
 32.87     640.08
 32.97     591.00
 33.07     629.86
 33.17     662.00
 33.27     620.00
 33.37     629.00
 33.47     625.00
 33.57     650.00
 33.67     627.35
 33.77     707.00
 33.87     786.18
 33.97     821.27
 34.07     913.00
 34.17    1120.00
 34.27    1258.27
 34.37    1279.00
 34.47    1145.00
 34.57    1000.00
 34.67     841.00
 34.77     750.00
 34.87     772.00
 34.97     687.00
 35.07     687.00
 35.17     680.00
 35.27     696.00
 35.37     603.00
 35.47     619.54
 35.57     644.25
 35.67     579.00
 35.77     647.66
 35.87     648.57
 35.97     574.99
 36.07     561.46
 36.17     629.00
 36.27     575.38
 36.37     614.00
 36.47     638.00
 36.57     580.00
 36.67     612.00
 36.77     584.00
 36.87     619.00
 36.97     617.00
 37.07     575.84
 37.17     628.49
 37.27     584.76
 37.37     615.00
 37.47     593.14
 37.57     674.00
 37.67     654.00
 37.77     639.00
 37.87     637.00
 37.97     639.78
 38.07     677.00
 38.17     786.39
 38.27     741.00
 38.37     766.00
 38.47     706.00
 38.57     721.00
 38.67     665.00
 38.77     629.11
 38.87     662.00
 38.97     652.15
 39.07     629.02
 39.17     587.00
 39.27     627.00
 39.37     599.00
 39.47     555.00
 39.57     607.00
 39.67     591.00
 39.77     591.00
 39.87     622.00
 39.97     583.00
 40.07     613.00
 40.17     571.00
 40.27     575.00
 40.37     590.00
 40.47     615.00
 40.57     558.43
 40.67     565.60
 40.77     625.68
 40.87     579.00
 40.97     619.00
 41.07     597.00
 41.17     570.84
 41.27     581.00
 41.37     587.00
 41.47     608.99
 41.57     603.00
 41.67     589.00
 41.77     567.00
 41.87     596.05
 41.97     598.00
 42.07     618.74
 42.17     595.27
 42.27     564.61
 42.37     574.00
 42.47     610.00
 42.57     608.04
 42.67     614.00
 42.77     639.30
 42.87     653.00
 42.97     669.00
 43.07     697.00
 43.17     663.00
 43.27     720.14
 43.37     650.48
 43.47     636.00
 43.57     649.12
 43.67     636.00
 43.77     578.55
 43.87     604.74
 43.97     618.89
 44.07     609.00
 44.17     623.00
 44.27     641.00
 44.37     578.00
 44.47     610.18
 44.57     609.00
 44.67     636.38
 44.77     607.00
 44.87     608.00
 44.97     606.12
 45.07     614.16
 45.17     608.00
 45.27     582.00
 45.37     557.77
 45.47     567.00
 45.57     591.00
 45.67     591.86
 45.77     594.00
 45.87     636.00
 45.97     549.29
 46.07     644.60
 46.17     617.00
 46.27     688.00
 46.37     566.02
 46.47     552.80
 46.57     665.00
 46.67     599.00
 46.77     634.27
 46.87     603.00
 46.97     631.94
 47.07     588.00
 47.17     608.00
 47.27     592.00
 47.37     581.00
 47.47     570.28
 47.57     609.00
 47.67     602.00
 47.77     639.00
 47.87     671.26
 47.97     703.03
 48.07     680.00
 48.17     692.00
 48.27     734.56
 48.37     707.00
 48.47     710.44
 48.57     662.00
 48.67     647.48
 48.77     686.74
 48.87     695.08
 48.97     635.00
 49.07     619.00
 49.17     678.75
 49.27     636.76
 49.37     692.13
 49.47     645.38
 49.57     712.20
 49.67     716.00
 49.77     747.00
 49.87     813.00
 49.97     930.00
 50.07    1244.84
 50.17    1591.19
 50.27    1998.00
 50.37    2425.00
 50.47    2926.00
 50.57    3109.00
 50.67    3091.00
 50.77    2803.00
 50.87    2268.00
 50.97    1787.00
 51.07    1440.00
 51.17    1119.88
 51.27     949.00
 51.37     881.00
 51.47     838.00
 51.57     772.00
 51.67     773.32
 51.77     746.38
 51.87     717.80
 51.97     733.00
 52.07     716.86
 52.17     720.00
 52.27     732.00
 52.37     710.00
 52.47     672.00
 52.57     658.49
 52.67     673.00
 52.77     670.07
 52.87     697.00
 52.97     675.84
 53.07     688.00
 53.17     737.71
 53.27     765.00
 53.37     773.00
 53.47     848.00
 53.57     942.15
 53.67    1102.12
 53.77    1198.46
 53.87    1267.00
 53.97    1357.05
 54.07    1227.00
 54.17    1259.00
 54.27    1194.27
 54.37     964.00
 54.47     956.40
 54.57     843.00
 54.67     763.00
 54.77     707.00
 54.87     749.93
 54.97     731.45
 55.07     627.36
 55.17     664.00
 55.27     672.00
 55.37     717.39
 55.47     640.00
 55.57     665.00
 55.67     644.00
 55.77     711.98
 55.87     691.52
 55.97     645.00
 56.07     681.00
 56.17     732.37
 56.27     764.00
 56.37     730.00
 56.47     851.00
 56.57     902.00
 56.67     979.00
 56.77    1279.00
 56.87    1483.00
 56.97    1850.00
 57.07    2162.00
 57.17    2441.00
 57.27    2684.00
 57.37    2732.00
 57.47    2625.00
 57.57    2366.00
 57.67    1942.21
 57.77    1769.00
 57.87    1443.00
 57.97    1163.00
 58.07     947.00
 58.17     906.00
 58.27     786.00
 58.37     826.00
 58.47     812.00
 58.57     823.00
 58.67     862.00
 58.77     874.00
 58.87     951.00
 58.97    1052.00
 59.07    1141.00
 59.17    1255.00
 59.27    1312.00
 59.37    1267.00
 59.47    1421.40
 59.57    1291.00
 59.67    1331.11
 59.77    1282.00
 59.87    1300.00
 59.97    1284.33
 60.07    1296.00
 60.17    1225.09
 60.27    1293.17
 60.37    1403.00
 60.47    1487.00
 60.57    1524.00
 60.67    1641.00
 60.77    1527.00
 60.87    1543.00
 60.97    1444.95
 61.07    1284.00
 61.17    1143.00
 61.27    1020.00
 61.37     925.00
 61.47     824.00
 61.57     812.00
 61.67     785.99
 61.77     832.00
 61.87     845.00
 61.97     877.50
 62.07    1047.98
 62.17    1139.00
 62.27    1338.63
 62.37    1443.00
 62.47    1613.00
 62.57    1740.00
 62.67    1760.00
 62.77    1781.89
 62.87    1648.41
 62.97    1493.00
 63.07    1314.33
 63.17    1222.00
 63.27    1020.00
 63.37     863.00
 63.47     868.80
 63.57     808.71
 63.67     776.00
 63.77     710.74
 63.87     709.00
 63.97     751.00
 64.07     759.00
 64.17     725.00
 64.27     766.94
 64.37     749.00
 64.47     892.00
 64.57     915.00
 64.67    1055.40
 64.77    1081.00
 64.87    1226.00
 64.97    1435.00
 65.07    1460.82
 65.17    1565.17
 65.27    1551.24
 65.37    1525.00
 65.47    1567.00
 65.57    1386.00
 65.67    1196.57
 65.77    1075.19
 65.87    1059.48
 65.97     926.00
 66.07     886.00
 66.17     810.00
 66.27     813.00
 66.37     812.19
 66.47     749.45
 66.57     713.00
 66.67     639.00
 66.77     666.00
 66.87     705.68
 66.97     658.00
 67.07     625.00
 67.17     688.52
 67.27     764.51
 67.37     720.00
 67.47     746.84
 67.57     776.00
 67.67     856.00
 67.77     959.21
 67.87    1044.00
 67.97    1202.00
 68.07    1354.00
 68.17    1633.00
 68.27    1828.00
 68.37    2108.00
 68.47    2378.00
 68.57    2391.57
 68.67    2618.51
 68.77    2499.00
 68.87    2496.00
 68.97    2168.00
 69.07    1999.12
 69.17    1729.52
 69.27    1488.00
 69.37    1214.00
 69.47    1021.10
 69.57     925.69
 69.67     930.00
 69.77     888.00
 69.87     801.03
 69.97     737.92
 70.07     759.37
 70.17     731.00
 70.27     679.70
 70.37     674.92
 70.47     667.41
 70.57     644.39
 70.67     644.81
 70.77     708.00
 70.87     724.00
 70.97     720.00
 71.07     684.00
 71.17     729.00
 71.27     677.00
 71.37     731.00
 71.47     784.00
 71.57     789.00
 71.67     798.00
 71.77     876.84
 71.87    1017.00
 71.97    1095.48
 72.07    1271.05
 72.17    1368.00
 72.27    1474.00
 72.37    1745.00
 72.47    1871.00
 72.57    2005.99
 72.67    2058.63
 72.77    2046.00
 72.87    1892.00
 72.97    1791.00
 73.07    1539.00
 73.17    1368.00
 73.27    1164.00
 73.37    1123.00
 73.47     959.79
 73.57     924.01
 73.67     802.00
 73.77     848.00
 73.87     711.54
 73.97     670.00
 74.07     702.00
 74.17     703.03
 74.27     688.00
 74.37     647.00
 74.47     626.00
 74.57     652.00
 74.67     639.00
 74.77     665.00
 74.87     657.00
 74.97     692.27
 75.07     711.00
 75.17     719.00
 75.27     752.00
 75.37     755.00
 75.47     694.22
 75.57     657.00
 75.67     704.59
 75.77     633.00
 75.87     679.00
 75.97     706.26
 76.07     668.00
 76.17     687.00
 76.27     710.00
 76.37     717.76
 76.47     750.00
 76.57     792.37
 76.67     820.00
 76.77     817.00
 76.87     919.00
 76.97     915.00
 77.07     977.00
 77.17     983.00
 77.27     951.00
 77.37     996.00
 77.47     974.00
 77.57     941.00
 77.67     892.00
 77.77     833.00
 77.87     850.00
 77.97     820.64
 78.07     732.00
 78.17     709.01
 78.27     693.74
 78.37     655.00
 78.47     697.00
 78.57     666.59
 78.67     636.00
 78.77     634.00
 78.87     635.00
 78.97     648.00
 79.07     632.60
 79.17     615.00
 79.27     595.89
 79.37     608.00
 79.47     646.00
 79.57     579.00
 79.67     601.30
 79.77     607.00
 79.87     642.00
 79.97     622.00
 80.07     636.00
 80.17     634.58
 80.27     633.00
 80.37     689.00
 80.47     700.68
 80.57     743.22
 80.67     724.00
 80.77     818.57
 80.87     805.00
 80.97     897.00
 81.07    1004.00
 81.17    1063.51
 81.27    1176.00
 81.37    1124.13
 81.47    1316.00
 81.57    1424.00
 81.67    1488.00
 81.77    1491.00
 81.87    1393.34
 81.97    1342.73
 82.07    1374.51
 82.17    1358.00
 82.27    1287.00
 82.37    1228.00
 82.47    1082.05
 82.57    1044.00
 82.67     968.00
 82.77     937.00
 82.87     822.37
 82.97     806.00
 83.07     746.19
 83.17     752.00
 83.27     656.00
 83.37     727.78
 83.47     666.46
 83.57     654.00
 83.67     670.85
 83.77     613.00
 83.87     670.00
 83.97     625.00
 84.07     607.00
 84.17     693.00
 84.27     703.98
 84.37     685.42
 84.47     651.00
 84.57     662.00
 84.67     666.49
 84.77     652.00
 84.87     682.14
 84.97     647.00
 85.07     656.59
 85.17     651.00
 85.27     646.00
 85.37     592.00
 85.47     664.00
 85.57     642.02
 85.67     651.00
 85.77     621.00
 85.87     658.14
 85.97     615.00
 86.07     631.38
 86.17     604.00
 86.27     584.00
 86.37     595.46
 86.47     636.24
 86.57     616.00
 86.67     628.00
 86.77     631.00
 86.87     668.00
 86.97     646.62
 87.07     650.00
 87.17     667.00
 87.27     661.01
 87.37     671.00
 87.47     624.56
 87.57     638.03
 87.67     753.00
 87.77     682.00
 87.87     655.93
 87.97     695.61
 88.07     731.96
 88.17     751.02
 88.27     733.00
 88.37     716.00
 88.47     689.51
 88.57     778.00
 88.67     727.00
 88.77     648.97
 88.87     693.00
 88.97     626.86
 89.07     746.00
 89.17     657.00
 89.27     676.51
 89.37     645.18
 89.47     656.94
 89.57     622.00
 89.67     686.00
 89.77     654.00
 89.87     647.00
 89.97     680.00
 90.07     675.79
 90.17     705.00
 90.27     722.00
 90.37     700.00
 90.47     640.00
 90.57     700.40
 90.67     620.62
 90.77     642.32
 90.87     596.00
 90.97     658.45
 91.07     623.00
 91.17     637.99
 91.27     577.00
 91.37     608.35
 91.47     644.00
 91.57     600.00
 91.67     590.00
 91.77     591.86
 91.87     603.19
 91.97     600.00
 92.07     565.75
 92.17     610.01
 92.27     553.80
 92.37     641.46
 92.47     598.00
 92.57     639.00
 92.67     587.00
 92.77     667.23
 92.87     594.89
 92.97     610.00
 93.07     658.00
 93.17     677.00
 93.27     646.98
 93.37     635.00
 93.47     703.00
 93.57     741.00
 93.67     778.00
 93.77     797.00
 93.87     782.00
 93.97     806.00
 94.07     810.00
 94.17     792.00
 94.27     913.35
 94.37     890.00
 94.47     940.75
 94.57     931.99
 94.67     940.36
 94.77     965.00
 94.87     955.00
 94.97     999.46
 95.07    1058.00
 95.17     984.72
 95.27    1006.61
 95.37     956.00
 95.47    1046.00
 95.57    1035.00
 95.67    1029.00
 95.77    1068.58
 95.87     992.00
 95.97    1017.12
 96.07     956.00
 96.17     983.00
 96.27     930.00
 96.37     876.00
 96.47     920.00
 96.57     866.00
 96.67     827.00
 96.77     861.00
 96.87     806.00
 96.97     825.15
 97.07     859.34
 97.17     814.27
 97.27     946.00
 97.37     969.00
 97.47    1039.00
 97.57    1100.66
 97.67    1136.00
 97.77    1123.37
 97.87    1266.00
 97.97    1312.00
 98.07    1484.88
 98.17    1413.73
 98.27    1493.61
 98.37    1640.00
 98.47    1636.22
 98.57    1635.00
 98.67    1592.00
 98.77    1582.63
 98.87    1449.00
 98.97    1394.00
 99.07    1430.00
 99.17    1248.00
 99.27    1203.00
 99.37    1284.00
 99.47    1065.00
 99.57    1070.00
 99.67    1017.00
 99.77    1010.90
 99.87     998.00
 99.97     962.59
100.07     985.67
100.17    1049.00
100.27    1055.00
100.37    1089.78
100.47    1151.00
100.57    1330.93
100.67    1367.00
100.77    1471.00
100.87    1608.24
100.97    1706.00
101.07    1777.74
101.17    1829.00
101.27    1922.00
101.37    1922.00
101.47    2013.96
101.57    2123.49
101.67    2033.00
101.77    2110.00
101.87    2092.00
101.97    2180.51
102.07    2097.00
102.17    1995.00
102.27    1950.59
102.37    1933.00
102.47    1887.21
102.57    1857.64
102.67    1691.00
102.77    1592.00
102.87    1586.91
102.97    1548.98
103.07    1508.84
103.17    1470.04
103.27    1347.00
103.37    1412.05
103.47    1271.00
103.57    1271.00
103.67    1299.24
103.77    1243.00
103.87    1251.05
103.97    1161.47
104.07    1076.28
104.17    1066.00
104.27    1008.46
104.37    1024.00
104.47     927.71
104.57     907.00
104.67     847.00
104.77     821.00
104.87     809.50
104.97     773.00
105.07     771.00
105.17     660.00
105.27     732.52
105.37     638.62
105.47     602.75
105.57     656.00
105.67     614.00
105.77     661.00
105.87     627.00
105.97     633.00
106.07     617.08
106.17     618.00
106.27     627.96
106.37     642.00
106.47     642.00
106.57     579.25
106.67     656.00
106.77     696.00
106.87     607.89
106.97     636.38
107.07     626.00
107.17     704.00
107.27     702.00
107.37     695.00
107.47     698.00
107.57     725.38
107.67     721.00
107.77     720.00
107.87     757.65
107.97     742.00
108.07     734.00
108.17     739.00
108.27     783.08
108.37     797.00
108.47     808.00
108.57     813.99
108.67     754.06
108.77     804.00
108.87     765.00
108.97     790.00
109.07     768.00
109.17     738.00
109.27     812.00
109.37     734.00
109.47     752.00
109.57     743.00
109.67     805.00
109.77     836.71
109.87     739.00
109.97     760.44
110.07     753.00
110.17     755.85
110.27     829.76
110.37     759.00
110.47     745.51
110.57     813.00
110.67     767.00
110.77     755.00
110.87     711.92
110.97     687.00
111.07     766.32
111.17     708.00
111.27     704.00
111.37     740.00
111.47     668.00
111.57     656.00
111.67     667.93
111.77     636.00
111.87     622.00
111.97     670.00
112.07     610.12
112.17     662.57
112.27     585.00
112.37     584.92
112.47     670.00
112.57     618.00
112.67     612.00
112.77     611.00
112.87     599.96
112.97     600.00
113.07     575.00
113.17     613.00
113.27     674.34
113.37     603.46
113.47     586.00
113.57     686.00
113.67     643.02
113.77     653.00
113.87     686.00
113.97     645.00
114.07     686.00
114.17     630.00
114.27     679.00
114.37     664.55
114.47     733.00
114.57     699.00
114.67     749.08
114.77     725.95
114.87     751.00
114.97     798.00
115.07     850.00
115.17     861.85
115.27     987.10
115.37    1068.11
115.47    1102.68
115.57    1169.00
115.67    1305.05
115.77    1433.77
115.87    1576.38
115.97    1719.72
116.07    2110.00
116.17    2307.00
116.27    2491.00
116.37    2814.00
116.47    3172.29
116.57    3357.00
116.67    3710.00
116.77    4220.00
116.87    4443.00
116.97    5004.00
117.07    5425.25
117.17    5698.32
117.27    6021.00
117.37    6380.00
117.47    6736.00
117.57    7037.00
117.67    7400.00
117.77    7458.16
117.87    7536.00
117.97    7540.00
118.07    7499.00
118.17    7265.55
118.27    7243.00
118.37    7103.89
118.47    6581.00
118.57    6297.00
118.67    6051.00
118.77    5703.78
118.87    5171.04
118.97    4952.00
119.07    4435.34
119.17    4299.00
119.27    3713.91
119.37    3572.60
119.47    3255.52
119.57    2855.38
119.67    2639.00
119.77    2313.00
119.87    2143.00
119.97    1943.00
120.07    1789.00
120.17    1593.00
120.27    1389.66
120.37    1339.26
120.47    1288.00
120.57    1164.00
120.67    1026.59
120.77    1002.11
120.87     982.75
120.97     981.85
121.07     852.00
121.17     851.15
121.27     779.00
121.37     787.00
121.47     784.00
121.57     737.95
121.67     755.00
121.77     717.00
121.87     745.94
121.97     715.00
122.07     714.00
122.17     700.00
122.27     656.00
122.37     727.28
122.47     750.75
122.57     731.00
122.67     688.49
122.77     700.87
122.87     731.18
122.97     713.75
123.07     735.00
123.17     689.00
123.27     703.00
123.37     715.00
123.47     737.00
123.57     698.17
123.67     796.00
123.77     755.00
123.87     779.00
123.97     783.41
124.07     823.00
124.17     802.00
124.27     766.88
124.37     800.00
124.47     726.37
124.57     751.00
124.67     725.34
124.77     733.99
124.87     819.00
124.97     755.00
