  9.97     614.46
 10.07     601.00
 10.17     541.21
 10.27     551.59
 10.37     557.15
 10.47     648.00
 10.57     561.00
 10.67     536.79
 10.77     557.00
 10.87     603.24
 10.97     607.00
 11.07     623.00
 11.17     580.00
 11.27     629.00
 11.37     601.34
 11.47     611.30
 11.57     626.00
 11.67     624.00
 11.77     624.00
 11.87     630.48
 11.97     671.27
 12.07     681.76
 12.17     759.91
 12.27     693.00
 12.37     653.00
 12.47     631.00
 12.57     599.00
 12.67     584.93
 12.77     556.26
 12.87     580.00
 12.97     610.86
 13.07     628.00
 13.17     578.00
 13.27     530.00
 13.37     590.00
 13.47     584.00
 13.57     578.00
 13.67     536.61
 13.77     546.93
 13.87     555.05
 13.97     523.00
 14.07     519.68
 14.17     541.27
 14.27     577.74
 14.37     530.92
 14.47     535.00
 14.57     580.00
 14.67     530.00
 14.77     562.79
 14.87     546.00
 14.97     534.22
 15.07     558.00
 15.17     524.12
 15.27     556.00
 15.37     556.00
 15.47     534.00
 15.57     561.00
 15.67     601.43
 15.77     559.00
 15.87     528.00
 15.97     578.00
 16.07     543.00
 16.17     540.13
 16.27     530.00
 16.37     602.15
 16.47     535.62
 16.57     547.00
 16.67     568.38
 16.77     589.29
 16.87     561.00
 16.97     549.00
 17.07     611.77
 17.17     537.00
 17.27     582.00
 17.37     581.42
 17.47     554.00
 17.57     532.34
 17.67     577.00
 17.77     590.98
 17.87     595.00
 17.97     591.30
 18.07     559.00
 18.17     566.00
 18.27     577.00
 18.37     569.00
 18.47     574.00
 18.57     541.00
 18.67     582.88
 18.77     515.00
 18.87     572.81
 18.97     572.49
 19.07     537.00
 19.17     543.00
 19.27     602.62
 19.37     549.00
 19.47     523.00
 19.57     590.00
 19.67     580.00
 19.77     579.58
 19.87     524.00
 19.97     557.38
 20.07     520.86
 20.17     537.00
 20.27     572.00
 20.37     530.89
 20.47     539.63
 20.57     572.29
 20.67     577.00
 20.77     592.31
 20.87     539.00
 20.97     543.00
 21.07     557.00
 21.17     590.57
 21.27     496.00
 21.37     540.00
 21.47     536.00
 21.57     579.36
 21.67     537.60
 21.77     576.11
 21.87     574.71
 21.97     558.00
 22.07     535.00
 22.17     571.00
 22.27     544.00
 22.37     529.00
 22.47     561.26
 22.57     505.02
 22.67     529.00
 22.77     585.84
 22.87     513.00
 22.97     584.00
 23.07     537.00
 23.17     566.19
 23.27     536.00
 23.37     554.00
 23.47     548.00
 23.57     555.00
 23.67     562.00
 23.77     575.00
 23.87     565.00
 23.97     531.00
 24.07     567.00
 24.17     543.00
 24.27     543.47
 24.37     565.00
 24.47     542.27
 24.57     605.00
 24.67     608.00
 24.77     638.00
 24.87     591.56
 24.97     601.00
 25.07     615.54
 25.17     610.28
 25.27     550.00
 25.37     561.00
 25.47     521.00
 25.57     559.00
 25.67     525.00
 25.77     510.29
 25.87     557.00
 25.97     506.87
 26.07     535.13
 26.17     547.00
 26.27     541.00
 26.37     564.00
 26.47     533.00
 26.57     541.00
 26.67     524.65
 26.77     562.00
 26.87     549.00
 26.97     526.00
 27.07     503.12
 27.17     529.00
 27.27     523.21
 27.37     502.08
 27.47     607.00
 27.57     593.00
 27.67     588.00
 27.77     528.32
 27.87     598.00
 27.97     674.00
 28.07     772.00
 28.17     882.00
 28.27     916.75
 28.37     910.00
 28.47     794.67
 28.57     725.00
 28.67     710.07
 28.77     653.00
 28.87     807.00
 28.97     846.39
 29.07     853.03
 29.17     676.00
 29.27     601.50
 29.37     648.00
 29.47     615.00
 29.57     586.00
 29.67     592.00
 29.77     605.00
 29.87     603.00
 29.97     571.00
 30.07     600.00
 30.17     600.00
 30.27     551.00
 30.37     527.00
 30.47     554.00
 30.57     594.00
 30.67     533.00
 30.77     606.98
 30.87     630.68
 30.97     611.99
 31.07     628.00
 31.17     608.75
 31.27     578.69
 31.37     566.00
 31.47     563.00
 31.57     520.00
 31.67     548.00
 31.77     514.41
 31.87     550.00
 31.97     563.00
 32.07     553.34
 32.17     552.00
 32.27     539.00
 32.37     502.66
 32.47     548.40
 32.57     558.00
 32.67     520.00
 32.77     509.52
 32.87     562.00
 32.97     563.00
 33.07     559.00
 33.17     498.70
 33.27     492.00
 33.37     543.00
 33.47     590.00
 33.57     605.00
 33.67     653.00
 33.77     747.00
 33.87     883.00
 33.97    1005.66
 34.07    1072.00
 34.17    1040.00
 34.27     935.75
 34.37     723.00
 34.47     642.00
 34.57     534.00
 34.67     523.00
 34.77     498.00
 34.87     557.00
 34.97     498.71
 35.07     525.21
 35.17     545.00
 35.27     547.00
 35.37     535.05
 35.47     515.00
 35.57     502.00
 35.67     510.00
 35.77     479.00
 35.87     540.00
 35.97     547.62
 36.07     532.00
 36.17     454.00
 36.27     502.00
 36.37     466.00
 36.47     506.00
 36.57     540.00
 36.67     539.23
 36.77     515.00
 36.87     504.00
 36.97     523.00
 37.07     481.07
 37.17     468.31
 37.27     559.24
 37.37     478.21
 37.47     532.39
 37.57     522.00
 37.67     502.00
 37.77     541.02
 37.87     569.00
 37.97     483.09
 38.07     481.00
 38.17     556.00
 38.27     477.33
 38.37     497.00
 38.47     521.44
 38.57     511.17
 38.67     476.00
 38.77     520.58
 38.87     487.00
 38.97     471.79
 39.07     495.00
 39.17     467.34
 39.27     551.00
 39.37     508.00
 39.47     468.53
 39.57     520.92
 39.67     508.00
 39.77     459.00
 39.87     548.72
 39.97     459.37
 40.07     473.00
 40.17     517.82
 40.27     475.49
 40.37     462.08
 40.47     550.30
 40.57     545.00
 40.67     494.77
 40.77     497.00
 40.87     459.00
 40.97     520.04
 41.07     503.00
 41.17     480.00
 41.27     494.00
 41.37     495.00
 41.47     517.02
 41.57     537.00
 41.67     486.00
 41.77     495.00
 41.87     472.00
 41.97     513.00
 42.07     522.00
 42.17     497.00
 42.27     519.61
 42.37     552.00
 42.47     624.88
 42.57     600.43
 42.67     594.00
 42.77     643.25
 42.87     592.00
 42.97     543.50
 43.07     508.19
 43.17     539.00
 43.27     502.00
 43.37     482.45
 43.47     517.00
 43.57     477.74
 43.67     492.00
 43.77     538.27
 43.87     472.00
 43.97     521.70
 44.07     534.00
 44.17     550.00
 44.27     484.00
 44.37     491.00
 44.47     466.29
 44.57     503.30
 44.67     523.00
 44.77     476.79
 44.87     476.33
 44.97     537.00
 45.07     528.86
 45.17     507.00
 45.27     495.00
 45.37     483.00
 45.47     538.00
 45.57     477.54
 45.67     534.71
 45.77     523.00
 45.87     474.00
 45.97     531.00
 46.07     516.00
 46.17     498.00
 46.27     511.00
 46.37     459.00
 46.47     485.06
 46.57     563.00
 46.67     543.68
 46.77     513.00
 46.87     477.00
 46.97     523.42
 47.07     545.00
 47.17     471.75
 47.27     482.80
 47.37     513.00
 47.47     540.00
 47.57     559.00
 47.67     584.00
 47.77     575.00
 47.87     633.99
 47.97     557.00
 48.07     563.00
 48.17     583.00
 48.27     615.00
 48.37     567.26
 48.47     532.00
 48.57     494.38
 48.67     495.00
 48.77     523.53
 48.87     521.10
 48.97     583.00
 49.07     553.00
 49.17     585.42
 49.27     639.96
 49.37     642.00
 49.47     677.67
 49.57     800.00
 49.67     939.00
 49.77    1180.00
 49.87    1462.00
 49.97    1786.46
 50.07    2183.00
 50.17    2479.00
 50.27    2495.00
 50.37    2242.00
 50.47    1793.00
 50.57    1412.00
 50.67    1079.00
 50.77     771.00
 50.87     801.14
 50.97     638.00
 51.07     691.00
 51.17     614.00
 51.27     632.82
 51.37     595.27
 51.47     565.00
 51.57     576.00
 51.67     522.00
 51.77     513.49
 51.87     561.07
 51.97     564.00
 52.07     548.00
 52.17     553.00
 52.27     565.00
 52.37     555.00
 52.47     512.16
 52.57     582.00
 52.67     557.00
 52.77     615.14
 52.87     661.00
 52.97     725.00
 53.07     806.00
 53.17     951.56
 53.27    1078.00
 53.37    1125.00
 53.47    1189.00
 53.57    1171.22
 53.67    1169.28
 53.77     966.98
 53.87     860.00
 53.97     744.00
 54.07     683.00
 54.17     644.55
 54.27     583.00
 54.37     556.00
 54.47     574.00
 54.57     547.00
 54.67     536.40
 54.77     574.01
 54.87     577.00
 54.97     554.00
 55.07     558.00
 55.17     562.00
 55.27     586.00
 55.37     530.00
 55.47     570.00
 55.57     572.00
 55.67     559.00
 55.77     544.12
 55.87     628.20
 55.97     655.87
 56.07     675.00
 56.17     731.00
 56.27     879.00
 56.37    1061.00
 56.47    1421.00
 56.57    1813.00
 56.67    2081.00
 56.77    2374.00
 56.87    2634.00
 56.97    2660.00
 57.07    2496.00
 57.17    1991.52
 57.27    1702.00
 57.37    1321.85
 57.47    1051.00
 57.57     903.00
 57.67     753.00
 57.77     708.03
 57.87     707.00
 57.97     679.00
 58.07     729.40
 58.17     761.00
 58.27     773.00
 58.37     823.00
 58.47    1023.80
 58.57    1106.12
 58.67    1177.00
 58.77    1291.00
 58.87    1427.77
 58.97    1450.00
 59.07    1665.00
 59.17    1478.62
 59.27    1573.00
 59.37    1410.00
 59.47    1236.00
 59.57    1210.00
 59.67    1170.00
 59.77    1093.10
 59.87    1195.00
 59.97    1330.41
 60.07    1527.00
 60.17    1558.00
 60.27    1588.00
 60.37    1445.97
 60.47    1372.05
 60.57    1341.00
 60.67    1107.40
 60.77     922.00
 60.87     841.08
 60.97     752.00
 61.07     676.00
 61.17     648.00
 61.27     654.00
 61.37     678.77
 61.47     683.00
 61.57     740.03
 61.67     826.92
 61.77     977.13
 61.87    1062.00
 61.97    1247.00
 62.07    1346.00
 62.17    1382.90
 62.27    1374.00
 62.37    1316.00
 62.47    1140.02
 62.57    1002.75
 62.67     854.08
 62.77     766.00
 62.87     674.08
 62.97     628.00
 63.07     578.00
 63.17     557.00
 63.27     551.93
 63.37     570.31
 63.47     603.21
 63.57     616.00
 63.67     563.13
 63.77     608.00
 63.87     623.23
 63.97     683.00
 64.07     688.30
 64.17     808.00
 64.27     816.00
 64.37     919.00
 64.47     950.00
 64.57     987.00
 64.67    1068.00
 64.77    1010.00
 64.87    1009.00
 64.97     878.00
 65.07     887.63
 65.17     746.00
 65.27     698.51
 65.37     704.45
 65.47     635.00
 65.57     664.62
 65.67     574.00
 65.77     586.51
 65.87     553.00
 65.97     525.54
 66.07     550.88
 66.17     584.40
 66.27     597.34
 66.37     546.00
 66.47     579.00
 66.57     584.30
 66.67     570.00
 66.77     585.00
 66.87     558.12
 66.97     593.00
 67.07     628.00
 67.17     618.00
 67.27     808.73
 67.37     878.00
 67.47     993.00
 67.57    1290.17
 67.67    1518.00
 67.77    1719.00
 67.87    2096.00
 67.97    2331.98
 68.07    2482.04
 68.17    2393.00
 68.27    2329.00
 68.37    2033.00
 68.47    1740.02
 68.57    1559.73
 68.67    1298.00
 68.77    1058.00
 68.87     854.00
 68.97     752.00
 69.07     713.21
 69.17     672.00
 69.27     648.00
 69.37     638.00
 69.47     580.00
 69.57     588.00
 69.67     616.00
 69.77     554.00
 69.87     589.00
 69.97     532.00
 70.07     557.00
 70.17     613.00
 70.27     584.00
 70.37     588.00
 70.47     587.60
 70.57     558.87
 70.67     548.00
 70.77     543.23
 70.87     598.00
 70.97     628.00
 71.07     611.00
 71.17     757.00
 71.27     816.00
 71.37     925.32
 71.47    1099.25
 71.57    1214.00
 71.67    1413.00
 71.77    1667.00
 71.87    1795.00
 71.97    1906.00
 72.07    1913.64
 72.17    1864.00
 72.27    1714.57
 72.37    1643.12
 72.47    1450.00
 72.57    1279.00
 72.67    1190.00
 72.77    1011.00
 72.87     946.00
 72.97     827.00
 73.07     778.00
 73.17     759.00
 73.27     711.00
 73.37     675.00
 73.47     647.87
 73.57     682.94
 73.67     666.95
 73.77     620.40
 73.87     586.00
 73.97     621.95
 74.07     590.00
 74.17     615.00
 74.27     592.00
 74.37     533.41
 74.47     632.00
 74.57     586.05
 74.67     537.04
 74.77     642.00
 74.87     562.93
 74.97     626.00
 75.07     529.71
 75.17     545.82
 75.27     562.00
 75.37     596.87
 75.47     552.00
 75.57     587.00
 75.67     568.00
 75.77     616.00
 75.87     545.44
 75.97     602.73
 76.07     644.00
 76.17     715.00
 76.27     657.00
 76.37     666.00
 76.47     681.00
 76.57     689.51
 76.67     688.00
 76.77     725.00
 76.87     649.00
 76.97     607.39
 77.07     593.15
 77.17     643.03
 77.27     550.00
 77.37     539.00
 77.47     569.00
 77.57     507.99
 77.67     535.00
 77.77     585.66
 77.87     527.26
 77.97     517.00
 78.07     538.00
 78.17     549.72
 78.27     507.00
 78.37     538.00
 78.47     559.58
 78.57     492.23
 78.67     508.00
 78.77     514.00
 78.87     537.00
 78.97     511.00
 79.07     549.36
 79.17     523.00
 79.27     498.00
 79.37     540.15
 79.47     531.30
 79.57     585.05
 79.67     514.51
 79.77     556.57
 79.87     516.00
 79.97     585.16
 80.07     534.00
 80.17     542.00
 80.27     571.00
 80.37     627.00
 80.47     593.71
 80.57     583.00
 80.67     646.51
 80.77     637.40
 80.87     661.00
 80.97     679.21
 81.07     744.09
 81.17     695.00
 81.27     749.65
 81.37     767.00
 81.47     730.00
 81.57     728.68
 81.67     785.00
 81.77     753.00
 81.87     731.00
 81.97     638.49
 82.07     664.67
 82.17     635.00
 82.27     611.00
 82.37     661.22
 82.47     601.13
 82.57     582.00
 82.67     595.00
 82.77     611.99
 82.87     579.00
 82.97     543.25
 83.07     572.00
 83.17     587.64
 83.27     559.07
 83.37     537.00
 83.47     597.00
 83.57     578.00
 83.67     549.65
 83.77     563.03
 83.87     545.00
 83.97     601.00
 84.07     552.55
 84.17     530.00
 84.27     545.49
 84.37     550.00
 84.47     553.38
 84.57     536.00
 84.67     589.00
 84.77     562.00
 84.87     555.19
 84.97     549.00
 85.07     498.00
 85.17     501.00
 85.27     525.00
 85.37     457.00
 85.47     567.00
 85.57     531.00
 85.67     487.60
 85.77     535.00
 85.87     530.00
 85.97     576.00
 86.07     502.00
 86.17     503.00
 86.27     560.00
 86.37     542.00
 86.47     574.71
 86.57     574.00
 86.67     514.51
 86.77     563.00
 86.87     601.00
 86.97     672.00
 87.07     600.06
 87.17     639.00
 87.27     681.00
 87.37     609.12
 87.47     605.84
 87.57     645.00
 87.67     660.00
 87.77     632.00
 87.87     673.00
 87.97     634.00
 88.07     621.00
 88.17     591.09
 88.27     621.00
 88.37     552.00
 88.47     594.69
 88.57     608.19
 88.67     624.00
 88.77     614.15
 88.87     619.00
 88.97     624.00
 89.07     606.03
 89.17     554.71
 89.27     572.00
 89.37     573.00
 89.47     606.55
 89.57     627.00
 89.67     573.64
 89.77     583.00
 89.87     539.50
 89.97     532.33
 90.07     586.38
 90.17     493.00
 90.27     546.00
 90.37     536.06
 90.47     574.30
 90.57     492.31
 90.67     522.00
 90.77     507.00
 90.87     529.00
 90.97     488.16
 91.07     511.00
 91.17     535.00
 91.27     568.32
 91.37     535.42
 91.47     578.47
 91.57     533.00
 91.67     545.07
 91.77     511.00
 91.87     535.00
 91.97     518.41
 92.07     599.00
 92.17     577.00
 92.27     614.03
 92.37     596.00
 92.47     585.00
 92.57     595.45
 92.67     649.00
 92.77     710.00
 92.87     713.00
 92.97     702.00
 93.07     722.00
 93.17     775.00
 93.27     801.80
 93.37     755.34
 93.47     839.86
 93.57     830.00
 93.67     826.00
 93.77     864.00
 93.87     810.37
 93.97     775.14
 94.07     813.14
 94.17     852.00
 94.27     886.00
 94.37     880.00
 94.47     837.48
 94.57     903.00
 94.67     911.00
 94.77     875.13
 94.87     966.00
 94.97     887.00
 95.07     914.70
 95.17     879.51
 95.27     845.00
 95.37     778.55
 95.47     786.00
 95.57     700.07
 95.67     668.00
 95.77     719.50
 95.87     723.00
 95.97     713.83
 96.07     704.00
 96.17     718.00
 96.27     710.00
 96.37     768.00
 96.47     815.00
 96.57     844.35
 96.67     986.00
 96.77    1038.53
 96.87    1013.00
 96.97    1070.00
 97.07    1248.00
 97.17    1277.00
 97.27    1398.00
 97.37    1420.00
 97.47    1356.00
 97.57    1472.88
 97.67    1466.96
 97.77    1398.18
 97.87    1378.00
 97.97    1276.00
 98.07    1288.00
 98.17    1180.00
 98.27    1042.40
 98.37     993.00
 98.47     984.00
 98.57     903.00
 98.67     827.00
 98.77     787.00
 98.87     768.00
 98.97     769.26
 99.07     790.00
 99.17     861.00
 99.27     895.00
 99.37     896.00
 99.47    1062.96
 99.57    1060.00
 99.67    1170.27
 99.77    1310.00
 99.87    1458.00
 99.97    1431.01
100.07    1649.00
100.17    1789.79
100.27    1822.50
100.37    1916.26
100.47    2010.00
100.57    2100.28
100.67    2105.00
100.77    2047.00
100.87    2129.00
100.97    2030.76
101.07    1958.00
101.17    1912.34
101.27    1718.72
101.37    1735.00
101.47    1667.89
101.57    1483.08
101.67    1450.00
101.77    1415.18
101.87    1281.29
101.97    1221.00
102.07    1163.00
102.17    1202.44
102.27    1130.00
102.37    1185.86
102.47    1062.00
102.57    1089.00
102.67    1010.64
102.77    1050.94
102.87    1017.95
102.97     915.19
103.07     958.01
103.17     822.00
103.27     866.00
103.37     791.00
103.47     793.00
103.57     735.54
103.67     682.00
103.77     680.44
103.87     662.00
103.97     627.88
104.07     625.00
104.17     602.94
104.27     583.00
104.37     609.00
104.47     586.77
104.57     544.00
104.67     591.00
104.77     486.24
104.87     561.31
104.97     505.25
105.07     556.00
105.17     534.00
105.27     547.22
105.37     573.00
105.47     575.00
105.57     546.00
105.67     532.00
105.77     555.68
105.87     512.72
105.97     550.00
106.07     575.00
106.17     600.17
106.27     595.00
106.37     590.00
106.47     628.60
106.57     564.00
106.67     624.00
106.77     665.00
106.87     633.95
106.97     655.00
107.07     657.00
107.17     705.00
107.27     679.00
107.37     703.00
107.47     631.00
107.57     670.00
107.67     684.66
107.77     704.00
107.87     640.00
107.97     695.00
108.07     628.00
108.17     713.18
108.27     693.76
108.37     702.00
108.47     739.00
108.57     692.56
108.67     692.00
108.77     642.00
108.87     660.25
108.97     647.00
109.07     666.00
109.17     687.00
109.27     701.00
109.37     632.00
109.47     676.00
109.57     663.00
109.67     670.00
109.77     628.72
109.87     558.13
109.97     572.36
110.07     609.00
110.17     547.66
110.27     548.00
110.37     545.00
110.47     546.00
110.57     582.99
110.67     549.00
110.77     556.41
110.87     576.88
110.97     554.29
111.07     524.00
111.17     520.37
111.27     580.78
111.37     504.00
111.47     532.57
111.57     528.00
111.67     542.00
111.77     512.00
111.87     533.00
111.97     587.04
112.07     586.47
112.17     559.00
112.27     574.19
112.37     591.00
112.47     601.00
112.57     578.41
112.67     607.00
112.77     632.99
112.87     684.21
112.97     630.95
113.07     697.00
113.17     673.35
113.27     769.30
113.37     738.59
113.47     724.00
113.57     851.00
113.67     848.00
113.77     906.69
113.87     924.00
113.97     934.14
114.07     950.00
114.17    1100.00
114.27    1136.29
114.37    1247.72
114.47    1226.01
114.57    1327.94
114.67    1592.00
114.77    1692.00
114.87    1883.00
114.97    2131.00
115.07    2236.65
115.17    2541.00
115.27    2783.00
115.37    3072.00
115.47    3444.00
115.57    3758.00
115.67    3990.00
115.77    4498.00
115.87    5050.86
115.97    5065.00
116.07    5492.00
116.17    6021.00
116.27    6343.00
116.37    6651.00
116.47    6684.00
116.57    7001.00
116.67    7045.00
116.77    7108.35
116.87    6942.00
116.97    6792.00
117.07    6342.03
117.17    6109.84
117.27    5526.00
117.37    5326.00
117.47    4972.00
117.57    4596.00
117.67    4392.00
117.77    3880.00
117.87    3575.00
117.97    3215.00
118.07    2831.56
118.17    2611.00
118.27    2272.00
118.37    1955.00
118.47    1743.83
118.57    1489.00
118.67    1385.00
118.77    1314.97
118.87    1200.24
118.97    1077.68
119.07     938.00
119.17     872.00
119.27     849.00
119.37     806.00
119.47     766.00
119.57     759.51
119.67     662.86
119.77     638.00
119.87     624.00
119.97     586.46
120.07     599.00
120.17     612.19
120.27     566.00
120.37     583.30
120.47     573.00
120.57     563.91
120.67     595.18
120.77     546.00
120.87     602.00
120.97     616.62
121.07     574.04
121.17     564.00
121.27     600.00
121.37     623.17
121.47     564.00
121.57     592.83
121.67     599.00
121.77     634.66
121.87     600.26
121.97     584.00
122.07     605.00
122.17     618.00
122.27     627.00
122.37     608.96
122.47     679.00
122.57     609.00
122.67     675.51
122.77     631.45
122.87     685.00
122.97     661.09
123.07     678.00
123.17     665.00
123.27     623.00
123.37     634.00
123.47     665.00
123.57     596.00
123.67     616.00
123.77     674.00
123.87     642.76
123.97     678.52
124.07     600.00
124.17     623.00
124.27     656.00
124.37     631.00
124.47     615.00
124.57     596.95
124.67     555.15
124.77     613.00
124.87     584.94
124.97     621.00
