  9.97     626.00
 10.07     574.00
 10.17     605.00
 10.27     586.00
 10.37     646.00
 10.47     601.27
 10.57     594.00
 10.67     607.00
 10.77     556.00
 10.87     581.00
 10.97     614.00
 11.07     525.97
 11.17     567.00
 11.27     592.00
 11.37     584.96
 11.47     603.59
 11.57     580.00
 11.67     551.72
 11.77     593.95
 11.87     635.19
 11.97     652.00
 12.07     723.07
 12.17     672.00
 12.27     717.53
 12.37     706.60
 12.47     615.00
 12.57     619.00
 12.67     582.00
 12.77     605.00
 12.87     557.00
 12.97     598.76
 13.07     537.00
 13.17     624.00
 13.27     609.04
 13.37     543.00
 13.47     586.00
 13.57     543.00
 13.67     568.00
 13.77     557.00
 13.87     583.26
 13.97     553.00
 14.07     587.70
 14.17     528.60
 14.27     600.10
 14.37     552.70
 14.47     572.00
 14.57     612.91
 14.67     579.00
 14.77     533.00
 14.87     578.00
 14.97     525.62
 15.07     570.00
 15.17     549.00
 15.27     527.71
 15.37     568.47
 15.47     569.00
 15.57     557.00
 15.67     547.00
 15.77     575.00
 15.87     575.04
 15.97     601.33
 16.07     577.00
 16.17     607.00
 16.27     578.85
 16.37     581.00
 16.47     560.00
 16.57     585.46
 16.67     535.00
 16.77     516.00
 16.87     562.00
 16.97     548.00
 17.07     566.00
 17.17     611.00
 17.27     611.81
 17.37     520.85
 17.47     579.00
 17.57     566.18
 17.67     523.00
 17.77     585.79
 17.87     520.00
 17.97     561.51
 18.07     535.00
 18.17     552.00
 18.27     579.14
 18.37     602.83
 18.47     569.02
 18.57     587.00
 18.67     531.00
 18.77     564.00
 18.87     551.00
 18.97     573.00
 19.07     603.16
 19.17     534.00
 19.27     571.84
 19.37     595.00
 19.47     555.00
 19.57     570.00
 19.67     541.62
 19.77     539.00
 19.87     512.00
 19.97     554.00
 20.07     602.28
 20.17     576.34
 20.27     529.58
 20.37     537.43
 20.47     527.00
 20.57     552.00
 20.67     543.00
 20.77     582.01
 20.87     584.89
 20.97     558.00
 21.07     532.07
 21.17     533.00
 21.27     520.40
 21.37     535.00
 21.47     564.00
 21.57     554.00
 21.67     547.00
 21.77     558.00
 21.87     585.47
 21.97     567.00
 22.07     560.00
 22.17     578.00
 22.27     552.00
 22.37     556.51
 22.47     536.00
 22.57     564.35
 22.67     564.00
 22.77     507.00
 22.87     537.86
 22.97     580.28
 23.07     536.00
 23.17     544.00
 23.27     587.00
 23.37     526.83
 23.47     593.58
 23.57     569.00
 23.67     564.42
 23.77     547.00
 23.87     571.00
 23.97     581.82
 24.07     580.00
 24.17     557.00
 24.27     591.00
 24.37     571.00
 24.47     589.87
 24.57     567.46
 24.67     647.00
 24.77     635.00
 24.87     592.93
 24.97     581.35
 25.07     593.00
 25.17     547.00
 25.27     561.00
 25.37     604.00
 25.47     559.00
 25.57     505.13
 25.67     503.09
 25.77     576.00
 25.87     555.00
 25.97     553.24
 26.07     542.07
 26.17     529.00
 26.27     560.96
 26.37     598.00
 26.47     573.00
 26.57     514.34
 26.67     573.00
 26.77     559.95
 26.87     570.44
 26.97     526.00
 27.07     564.96
 27.17     538.00
 27.27     603.00
 27.37     564.00
 27.47     542.00
 27.57     536.00
 27.67     580.56
 27.77     574.00
 27.87     544.45
 27.97     682.98
 28.07     739.00
 28.17     958.21
 28.27     918.48
 28.37     916.05
 28.47     773.00
 28.57     717.00
 28.67     690.00
 28.77     710.00
 28.87     763.00
 28.97     851.00
 29.07     824.00
 29.17     686.69
 29.27     666.77
 29.37     558.53
 29.47     542.20
 29.57     626.00
 29.67     627.00
 29.77     598.20
 29.87     619.00
 29.97     587.00
 30.07     599.00
 30.17     565.00
 30.27     551.00
 30.37     536.00
 30.47     588.00
 30.57     614.00
 30.67     585.00
 30.77     606.00
 30.87     574.74
 30.97     600.00
 31.07     556.42
 31.17     626.75
 31.27     520.99
 31.37     586.80
 31.47     569.00
 31.57     526.80
 31.67     491.14
 31.77     553.00
 31.87     544.00
 31.97     507.78
 32.07     511.00
 32.17     556.00
 32.27     556.00
 32.37     594.00
 32.47     543.00
 32.57     564.00
 32.67     512.78
 32.77     520.00
 32.87     529.00
 32.97     522.00
 33.07     580.00
 33.17     561.15
 33.27     551.89
 33.37     591.00
 33.47     513.00
 33.57     590.00
 33.67     625.41
 33.77     777.00
 33.87     892.00
 33.97     985.00
 34.07    1028.00
 34.17     998.83
 34.27     868.00
 34.37     726.00
 34.47     647.00
 34.57     554.77
 34.67     549.82
 34.77     529.00
 34.87     538.00
 34.97     564.00
 35.07     548.00
 35.17     528.00
 35.27     549.16
 35.37     479.00
 35.47     530.00
 35.57     480.72
 35.67     515.52
 35.77     534.86
 35.87     532.07
 35.97     519.51
 36.07     480.43
 36.17     495.00
 36.27     527.00
 36.37     488.00
 36.47     507.00
 36.57     525.00
 36.67     515.00
 36.77     525.01
 36.87     482.34
 36.97     543.28
 37.07     523.41
 37.17     526.00
 37.27     506.00
 37.37     508.00
 37.47     504.00
 37.57     511.00
 37.67     503.00
 37.77     530.00
 37.87     530.00
 37.97     501.00
 38.07     511.00
 38.17     545.45
 38.27     470.00
 38.37     527.82
 38.47     502.00
 38.57     500.00
 38.67     497.00
 38.77     489.00
 38.87     516.88
 38.97     474.52
 39.07     489.00
 39.17     534.00
 39.27     532.00
 39.37     520.00
 39.47     506.00
 39.57     531.49
 39.67     553.36
 39.77     521.00
 39.87     521.88
 39.97     521.18
 40.07     491.00
 40.17     512.77
 40.27     539.00
 40.37     486.43
 40.47     518.00
 40.57     522.00
 40.67     522.00
 40.77     501.00
 40.87     485.00
 40.97     495.99
 41.07     507.00
 41.17     451.00
 41.27     520.54
 41.37     451.00
 41.47     482.29
 41.57     518.00
 41.67     529.39
 41.77     489.33
 41.87     492.00
 41.97     521.00
 42.07     517.00
 42.17     493.62
 42.27     533.00
 42.37     570.00
 42.47     550.29
 42.57     662.02
 42.67     588.00
 42.77     590.00
 42.87     637.64
 42.97     559.25
 43.07     533.00
 43.17     529.00
 43.27     465.00
 43.37     514.00
 43.47     510.96
 43.57     508.31
 43.67     478.00
 43.77     486.85
 43.87     516.00
 43.97     501.00
 44.07     541.74
 44.17     505.06
 44.27     458.00
 44.37     528.70
 44.47     487.00
 44.57     493.00
 44.67     518.00
 44.77     490.00
 44.87     506.00
 44.97     466.14
 45.07     529.00
 45.17     525.00
 45.27     528.22
 45.37     513.00
 45.47     527.33
 45.57     489.00
 45.67     491.00
 45.77     506.00
 45.87     539.36
 45.97     536.00
 46.07     472.34
 46.17     506.00
 46.27     518.00
 46.37     507.00
 46.47     512.00
 46.57     503.38
 46.67     495.00
 46.77     550.00
 46.87     521.00
 46.97     452.00
 47.07     491.00
 47.17     488.00
 47.27     487.26
 47.37     482.00
 47.47     643.00
 47.57     542.00
 47.67     594.16
 47.77     550.92
 47.87     548.97
 47.97     544.00
 48.07     565.00
 48.17     559.00
 48.27     559.07
 48.37     561.00
 48.47     534.00
 48.57     533.00
 48.67     567.00
 48.77     549.00
 48.87     537.00
 48.97     553.00
 49.07     546.00
 49.17     587.00
 49.27     612.00
 49.37     679.00
 49.47     655.67
 49.57     811.00
 49.67     950.00
 49.77    1079.00
 49.87    1418.00
 49.97    1868.77
 50.07    2277.00
 50.17    2508.00
 50.27    2497.00
 50.37    2220.00
 50.47    1903.94
 50.57    1395.00
 50.67    1052.00
 50.77     806.00
 50.87     734.00
 50.97     646.00
 51.07     649.94
 51.17     657.34
 51.27     591.75
 51.37     542.91
 51.47     600.71
 51.57     585.44
 51.67     596.00
 51.77     585.00
 51.87     600.00
 51.97     561.00
 52.07     532.57
 52.17     544.76
 52.27     548.00
 52.37     578.00
 52.47     550.75
 52.57     529.00
 52.67     547.00
 52.77     590.00
 52.87     667.00
 52.97     691.00
 53.07     722.81
 53.17     912.00
 53.27    1021.00
 53.37    1135.76
 53.47    1175.62
 53.57    1228.00
 53.67    1110.00
 53.77     974.00
 53.87     888.00
 53.97     782.24
 54.07     642.93
 54.17     587.00
 54.27     592.40
 54.37     565.00
 54.47     520.53
 54.57     565.00
 54.67     542.00
 54.77     507.16
 54.87     523.00
 54.97     507.38
 55.07     579.00
 55.17     555.00
 55.27     507.43
 55.37     595.46
 55.47     582.00
 55.57     582.00
 55.67     574.00
 55.77     585.00
 55.87     610.00
 55.97     581.00
 56.07     636.00
 56.17     755.00
 56.27     875.00
 56.37    1069.00
 56.47    1283.00
 56.57    1694.00
 56.67    2222.52
 56.77    2455.00
 56.87    2674.64
 56.97    2609.00
 57.07    2371.53
 57.17    1971.72
 57.27    1682.70
 57.37    1319.00
 57.47    1054.00
 57.57     951.00
 57.67     747.00
 57.77     703.00
 57.87     704.00
 57.97     617.45
 58.07     748.00
 58.17     749.44
 58.27     729.00
 58.37     871.00
 58.47     957.01
 58.57    1076.00
 58.67    1293.91
 58.77    1384.00
 58.87    1445.27
 58.97    1592.00
 59.07    1525.72
 59.17    1548.89
 59.27    1422.00
 59.37    1395.53
 59.47    1272.00
 59.57    1125.00
 59.67    1127.00
 59.77    1128.72
 59.87    1217.00
 59.97    1347.00
 60.07    1428.00
 60.17    1506.90
 60.27    1505.83
 60.37    1516.00
 60.47    1413.00
 60.57    1201.00
 60.67    1074.03
 60.77     915.00
 60.87     755.44
 60.97     654.50
 61.07     641.00
 61.17     598.91
 61.27     651.00
 61.37     626.47
 61.47     679.00
 61.57     742.00
 61.67     842.31
 61.77     906.88
 61.87    1132.07
 61.97    1231.00
 62.07    1383.13
 62.17    1382.00
 62.27    1381.00
 62.37    1295.00
 62.47    1187.00
 62.57    1032.00
 62.67     915.21
 62.77     732.88
 62.87     667.00
 62.97     640.00
 63.07     562.00
 63.17     566.02
 63.27     537.70
 63.37     537.00
 63.47     538.28
 63.57     556.09
 63.67     583.95
 63.77     547.74
 63.87     608.00
 63.97     634.13
 64.07     722.00
 64.17     792.00
 64.27     871.00
 64.37     915.57
 64.47     948.00
 64.57     947.90
 64.67    1026.00
 64.77     996.00
 64.87     932.84
 64.97     939.00
 65.07     838.00
 65.17     801.00
 65.27     751.62
 65.37     691.40
 65.47     640.00
 65.57     675.88
 65.67     597.08
 65.77     545.88
 65.87     609.08
 65.97     576.00
 66.07     548.00
 66.17     553.00
 66.27     527.00
 66.37     548.00
 66.47     581.20
 66.57     549.00
 66.67     600.51
 66.77     549.00
 66.87     621.64
 66.97     583.00
 67.07     626.00
 67.17     668.00
 67.27     741.35
 67.37     870.00
 67.47    1070.11
 67.57    1211.00
 67.67    1503.00
 67.77    1823.10
 67.87    2099.00
 67.97    2373.00
 68.07    2392.61
 68.17    2447.00
 68.27    2384.00
 68.37    2039.00
 68.47    1712.40
 68.57    1588.00
 68.67    1248.00
 68.77    1038.00
 68.87     921.64
 68.97     753.00
 69.07     704.00
 69.17     639.16
 69.27     564.98
 69.37     563.98
 69.47     595.00
 69.57     556.80
 69.67     596.38
 69.77     552.89
 69.87     560.21
 69.97     568.70
 70.07     549.17
 70.17     599.00
 70.27     564.00
 70.37     587.07
 70.47     603.00
 70.57     638.00
 70.67     600.04
 70.77     572.00
 70.87     612.00
 70.97     593.00
 71.07     636.97
 71.17     726.00
 71.27     825.54
 71.37     975.00
 71.47    1082.70
 71.57    1262.00
 71.67    1383.00
 71.77    1653.00
 71.87    1787.00
 71.97    1939.65
 72.07    1876.88
 72.17    1909.00
 72.27    1742.89
 72.37    1672.00
 72.47    1488.73
 72.57    1297.55
 72.67    1225.01
 72.77    1134.00
 72.87     984.00
 72.97     944.00
 73.07     824.00
 73.17     836.29
 73.27     750.09
 73.37     652.00
 73.47     685.03
 73.57     593.00
 73.67     676.63
 73.77     596.00
 73.87     582.82
 73.97     584.00
 74.07     534.02
 74.17     655.00
 74.27     612.00
 74.37     523.71
 74.47     615.00
 74.57     596.23
 74.67     618.46
 74.77     627.00
 74.87     527.64
 74.97     595.02
 75.07     559.38
 75.17     523.25
 75.27     537.00
 75.37     555.00
 75.47     584.00
 75.57     588.96
 75.67     556.00
 75.77     626.00
 75.87     569.77
 75.97     610.00
 76.07     647.00
 76.17     619.92
 76.27     662.52
 76.37     649.00
 76.47     737.00
 76.57     663.00
 76.67     674.00
 76.77     724.58
 76.87     628.00
 76.97     697.00
 77.07     595.31
 77.17     589.35
 77.27     572.00
 77.37     598.93
 77.47     510.00
 77.57     507.00
 77.67     536.00
 77.77     532.00
 77.87     556.00
 77.97     553.34
 78.07     480.00
 78.17     497.00
 78.27     500.00
 78.37     510.00
 78.47     541.94
 78.57     491.00
 78.67     512.00
 78.77     539.00
 78.87     483.12
 78.97     541.00
 79.07     537.00
 79.17     541.00
 79.27     498.96
 79.37     526.63
 79.47     562.83
 79.57     549.92
 79.67     489.00
 79.77     550.78
 79.87     503.23
 79.97     552.00
 80.07     518.00
 80.17     573.00
 80.27     565.00
 80.37     561.00
 80.47     575.00
 80.57     585.74
 80.67     627.00
 80.77     675.00
 80.87     691.00
 80.97     730.55
 81.07     730.00
 81.17     728.00
 81.27     708.64
 81.37     774.65
 81.47     811.00
 81.57     713.00
 81.67     757.39
 81.77     696.01
 81.87     687.80
 81.97     739.00
 82.07     683.07
 82.17     652.00
 82.27     626.00
 82.37     610.70
 82.47     599.47
 82.57     631.00
 82.67     569.00
 82.77     590.00
 82.87     571.00
 82.97     582.00
 83.07     594.81
 83.17     522.00
 83.27     502.00
 83.37     546.00
 83.47     507.00
 83.57     516.00
 83.67     561.72
 83.77     520.00
 83.87     576.00
 83.97     577.00
 84.07     582.00
 84.17     551.69
 84.27     603.00
 84.37     534.21
 84.47     532.16
 84.57     542.00
 84.67     564.00
 84.77     541.00
 84.87     559.86
 84.97     519.00
 85.07     551.00
 85.17     512.16
 85.27     520.91
 85.37     554.00
 85.47     517.00
 85.57     528.72
 85.67     496.00
 85.77     522.00
 85.87     511.99
 85.97     568.00
 86.07     539.49
 86.17     510.00
 86.27     563.00
 86.37     562.39
 86.47     576.00
 86.57     585.00
 86.67     552.00
 86.77     537.10
 86.87     575.00
 86.97     637.00
 87.07     625.00
 87.17     624.00
 87.27     683.00
 87.37     591.64
 87.47     694.00
 87.57     635.00
 87.67     680.00
 87.77     627.53
 87.87     576.00
 87.97     643.00
 88.07     544.96
 88.17     616.47
 88.27     588.00
 88.37     628.00
 88.47     595.00
 88.57     560.00
 88.67     573.00
 88.77     607.50
 88.87     531.70
 88.97     596.97
 89.07     625.00
 89.17     637.00
 89.27     558.17
 89.37     616.81
 89.47     602.00
 89.57     561.57
 89.67     589.19
 89.77     623.48
 89.87     542.00
 89.97     599.00
 90.07     555.00
 90.17     546.00
 90.27     521.00
 90.37     530.00
 90.47     566.33
 90.57     481.00
 90.67     541.00
 90.77     519.00
 90.87     493.62
 90.97     520.00
 91.07     523.00
 91.17     563.40
 91.27     517.49
 91.37     511.90
 91.47     533.00
 91.57     535.00
 91.67     508.00
 91.77     512.00
 91.87     559.00
 91.97     545.00
 92.07     511.00
 92.17     634.00
 92.27     615.51
 92.37     589.00
 92.47     572.30
 92.57     684.00
 92.67     642.27
 92.77     659.00
 92.87     716.98
 92.97     712.74
 93.07     736.00
 93.17     796.00
 93.27     834.72
 93.37     828.00
 93.47     821.00
 93.57     785.58
 93.67     819.00
 93.77     765.11
 93.87     885.00
 93.97     819.00
 94.07     880.00
 94.17     841.00
 94.27     794.00
 94.37     907.00
 94.47     885.00
 94.57     916.50
 94.67     965.00
 94.77     891.00
 94.87     891.00
 94.97     891.93
 95.07     892.00
 95.17     860.97
 95.27     876.00
 95.37     797.00
 95.47     714.94
 95.57     743.00
 95.67     702.00
 95.77     740.00
 95.87     711.00
 95.97     663.87
 96.07     698.01
 96.17     676.00
 96.27     740.70
 96.37     744.00
 96.47     798.00
 96.57     855.00
 96.67     948.00
 96.77     977.00
 96.87    1102.00
 96.97    1069.00
 97.07    1223.00
 97.17    1299.00
 97.27    1387.00
 97.37    1426.00
 97.47    1459.00
 97.57    1452.00
 97.67    1427.00
 97.77    1343.00
 97.87    1310.00
 97.97    1315.58
 98.07    1250.63
 98.17    1150.00
 98.27    1118.00
 98.37     975.00
 98.47     981.29
 98.57     944.48
 98.67     871.81
 98.77     767.00
 98.87     749.00
 98.97     767.00
 99.07     851.00
 99.17     872.38
 99.27     867.00
 99.37     942.00
 99.47     936.00
 99.57    1053.00
 99.67    1168.00
 99.77    1310.66
 99.87    1379.92
 99.97    1514.00
100.07    1624.00
100.17    1777.50
100.27    1893.00
100.37    1913.00
100.47    2069.00
100.57    2050.00
100.67    2108.37
100.77    2050.00
100.87    2043.54
100.97    1990.00
101.07    1975.00
101.17    1886.00
101.27    1863.00
101.37    1657.42
101.47    1574.00
101.57    1494.00
101.67    1458.00
101.77    1369.00
101.87    1292.02
101.97    1207.00
102.07    1264.18
102.17    1198.00
102.27    1077.00
102.37    1120.00
102.47    1055.00
102.57    1040.00
102.67    1045.00
102.77    1015.00
102.87    1017.00
102.97     953.00
103.07     928.00
103.17     851.00
103.27     802.95
103.37     754.00
103.47     743.78
103.57     754.00
103.67     694.00
103.77     699.40
103.87     648.00
103.97     655.39
104.07     608.00
104.17     588.00
104.27     566.00
104.37     547.00
104.47     547.00
104.57     585.84
104.67     558.00
104.77     530.21
104.87     546.35
104.97     575.00
105.07     544.00
105.17     568.00
105.27     494.06
105.37     594.00
105.47     489.52
105.57     561.00
105.67     566.00
105.77     530.86
105.87     551.00
105.97     554.00
106.07     553.81
106.17     606.00
106.27     625.13
106.37     597.43
106.47     609.00
106.57     616.00
106.67     642.00
106.77     615.12
106.87     715.07
106.97     688.00
107.07     693.00
107.17     673.00
107.27     692.57
107.37     689.00
107.47     658.00
107.57     714.97
107.67     700.00
107.77     750.85
107.87     667.00
107.97     688.91
108.07     713.00
108.17     685.00
108.27     712.43
108.37     692.00
108.47     695.90
108.57     656.22
108.67     712.00
108.77     692.00
108.87     676.03
108.97     701.00
109.07     661.00
109.17     687.00
109.27     713.00
109.37     621.57
109.47     637.98
109.57     652.20
109.67     655.07
109.77     619.00
109.87     553.07
109.97     563.60
110.07     605.00
110.17     617.07
110.27     560.00
110.37     540.00
110.47     506.63
110.57     516.26
110.67     503.82
110.77     562.01
110.87     560.00
110.97     529.00
111.07     504.00
111.17     530.13
111.27     522.44
111.37     556.00
111.47     570.00
111.57     570.00
111.67     569.00
111.77     555.00
111.87     522.00
111.97     544.00
112.07     560.00
112.17     597.00
112.27     564.00
112.37     626.69
112.47     641.78
112.57     612.00
112.67     639.00
112.77     598.59
112.87     683.00
112.97     677.00
113.07     721.73
113.17     719.00
113.27     717.00
113.37     749.52
113.47     802.32
113.57     833.00
113.67     895.51
113.77     940.00
113.87     910.00
113.97     997.13
114.07    1073.00
114.17    1164.95
114.27    1198.00
114.37    1240.00
114.47    1338.00
114.57    1419.00
114.67    1594.00
114.77    1733.00
114.87    1907.71
114.97    2118.00
115.07    2410.00
115.17    2545.37
115.27    2776.00
115.37    3024.00
115.47    3542.74
115.57    3806.45
115.67    4100.80
115.77    4384.00
115.87    4912.00
115.97    5165.00
116.07    5506.00
116.17    5972.00
116.27    6418.00
116.37    6530.59
116.47    6970.64
116.57    6947.62
116.67    6832.51
116.77    6949.00
116.87    6806.00
116.97    6704.00
117.07    6536.19
117.17    6147.00
117.27    5756.41
117.37    5542.82
117.47    5200.99
117.57    4766.00
117.67    4152.16
117.77    3984.00
117.87    3546.35
117.97    3247.00
118.07    2954.00
118.17    2530.00
118.27    2271.52
118.37    1917.00
118.47    1690.67
118.57    1575.00
118.67    1365.00
118.77    1261.83
118.87    1119.23
118.97    1011.00
119.07     954.62
119.17     871.00
119.27     867.00
119.37     752.00
119.47     711.30
119.57     707.74
119.67     655.08
119.77     698.78
119.87     667.97
119.97     645.19
120.07     608.79
120.17     559.00
120.27     565.00
120.37     534.00
120.47     573.00
120.57     548.00
120.67     558.00
120.77     549.76
120.87     548.26
120.97     578.00
121.07     572.00
121.17     562.00
121.27     550.00
121.37     616.46
121.47     635.00
121.57     563.00
121.67     605.00
121.77     591.00
121.87     575.00
121.97     549.00
122.07     595.68
122.17     632.00
122.27     600.24
122.37     648.43
122.47     596.00
122.57     660.34
122.67     633.08
122.77     671.00
122.87     619.00
122.97     620.00
123.07     592.25
123.17     652.00
123.27     633.00
123.37     655.00
123.47     613.79
123.57     648.00
123.67     637.00
123.77     627.03
123.87     643.00
123.97     595.92
124.07     591.00
124.17     630.00
124.27     624.00
124.37     583.24
124.47     588.62
124.57     620.13
124.67     541.87
124.77     592.00
124.87     605.00
124.97     623.00
