  9.97     573.45
 10.07     547.00
 10.17     577.49
 10.27     589.77
 10.37     543.20
 10.47     526.04
 10.57     570.00
 10.67     600.00
 10.77     598.00
 10.87     569.00
 10.97     602.00
 11.07     552.00
 11.17     551.00
 11.27     587.00
 11.37     595.37
 11.47     559.00
 11.57     578.96
 11.67     603.00
 11.77     583.68
 11.87     653.00
 11.97     675.00
 12.07     705.36
 12.17     737.00
 12.27     680.00
 12.37     676.04
 12.47     648.65
 12.57     568.00
 12.67     640.00
 12.77     538.90
 12.87     594.00
 12.97     502.00
 13.07     573.00
 13.17     547.00
 13.27     550.00
 13.37     608.33
 13.47     563.00
 13.57     536.79
 13.67     533.00
 13.77     527.00
 13.87     612.14
 13.97     562.00
 14.07     538.00
 14.17     542.00
 14.27     580.00
 14.37     561.00
 14.47     562.00
 14.57     580.07
 14.67     549.00
 14.77     562.00
 14.87     528.43
 14.97     566.00
 15.07     570.00
 15.17     524.72
 15.27     579.27
 15.37     543.00
 15.47     525.07
 15.57     545.00
 15.67     564.00
 15.77     525.16
 15.87     521.59
 15.97     570.07
 16.07     555.73
 16.17     537.00
 16.27     569.00
 16.37     601.00
 16.47     592.00
 16.57     525.00
 16.67     569.00
 16.77     534.00
 16.87     531.00
 16.97     568.00
 17.07     585.00
 17.17     529.97
 17.27     561.00
 17.37     530.00
 17.47     555.00
 17.57     592.29
 17.67     552.00
 17.77     591.42
 17.87     582.00
 17.97     545.00
 18.07     592.00
 18.17     609.00
 18.27     590.00
 18.37     535.73
 18.47     608.00
 18.57     517.35
 18.67     516.40
 18.77     516.00
 18.87     522.00
 18.97     551.00
 19.07     548.23
 19.17     591.00
 19.27     573.00
 19.37     573.33
 19.47     570.34
 19.57     575.00
 19.67     532.00
 19.77     582.55
 19.87     563.00
 19.97     532.56
 20.07     585.00
 20.17     564.00
 20.27     539.00
 20.37     573.34
 20.47     525.00
 20.57     576.00
 20.67     562.00
 20.77     574.00
 20.87     554.00
 20.97     541.00
 21.07     555.00
 21.17     513.71
 21.27     537.00
 21.37     543.00
 21.47     534.04
 21.57     561.00
 21.67     594.00
 21.77     574.24
 21.87     516.17
 21.97     556.00
 22.07     556.00
 22.17     576.26
 22.27     553.00
 22.37     568.00
 22.47     540.00
 22.57     574.00
 22.67     524.00
 22.77     555.00
 22.87     515.38
 22.97     526.78
 23.07     507.85
 23.17     547.00
 23.27     557.00
 23.37     578.00
 23.47     577.27
 23.57     562.00
 23.67     555.00
 23.77     530.00
 23.87     524.00
 23.97     507.49
 24.07     589.00
 24.17     585.00
 24.27     571.63
 24.37     546.00
 24.47     592.00
 24.57     591.92
 24.67     598.00
 24.77     651.59
 24.87     672.05
 24.97     661.00
 25.07     618.00
 25.17     570.00
 25.27     549.25
 25.37     581.00
 25.47     540.74
 25.57     611.00
 25.67     564.47
 25.77     513.90
 25.87     545.00
 25.97     551.75
 26.07     553.84
 26.17     604.00
 26.27     542.00
 26.37     539.00
 26.47     534.14
 26.57     563.00
 26.67     522.28
 26.77     551.00
 26.87     530.00
 26.97     576.00
 27.07     509.56
 27.17     567.06
 27.27     525.00
 27.37     575.00
 27.47     561.00
 27.57     581.82
 27.67     550.00
 27.77     573.00
 27.87     664.00
 27.97     664.39
 28.07     819.00
 28.17     876.00
 28.27     990.00
 28.37     929.14
 28.47     802.00
 28.57     703.00
 28.67     681.06
 28.77     748.56
 28.87     796.00
 28.97     782.00
 29.07     759.00
 29.17     681.35
 29.27     635.00
 29.37     604.94
 29.47     600.09
 29.57     595.00
 29.67     599.00
 29.77     569.00
 29.87     549.09
 29.97     568.00
 30.07     548.00
 30.17     529.00
 30.27     512.91
 30.37     545.34
 30.47     529.51
 30.57     508.20
 30.67     566.00
 30.77     582.00
 30.87     648.00
 30.97     589.23
 31.07     603.00
 31.17     565.00
 31.27     564.71
 31.37     531.85
 31.47     521.00
 31.57     531.00
 31.67     564.00
 31.77     561.00
 31.87     528.00
 31.97     558.68
 32.07     545.00
 32.17     563.00
 32.27     556.00
 32.37     554.82
 32.47     568.72
 32.57     497.73
 32.67     555.00
 32.77     557.00
 32.87     523.92
 32.97     519.12
 33.07     571.04
 33.17     542.87
 33.27     552.00
 33.37     541.77
 33.47     619.00
 33.57     589.00
 33.67     631.00
 33.77     795.00
 33.87     858.54
 33.97     999.00
 34.07    1129.00
 34.17     976.65
 34.27     871.00
 34.37     813.00
 34.47     612.00
 34.57     590.00
 34.67     599.97
 34.77     559.00
 34.87     568.00
 34.97     573.09
 35.07     510.00
 35.17     560.14
 35.27     498.00
 35.37     495.00
 35.47     530.00
 35.57     486.00
 35.67     535.00
 35.77     518.00
 35.87     503.00
 35.97     496.98
 36.07     562.32
 36.17     547.13
 36.27     516.00
 36.37     538.00
 36.47     506.00
 36.57     536.00
 36.67     554.89
 36.77     548.00
 36.87     536.32
 36.97     494.00
 37.07     493.00
 37.17     564.00
 37.27     542.00
 37.37     523.89
 37.47     544.93
 37.57     521.00
 37.67     508.37
 37.77     537.00
 37.87     523.00
 37.97     563.88
 38.07     513.00
 38.17     548.95
 38.27     475.00
 38.37     517.00
 38.47     553.00
 38.57     492.00
 38.67     553.13
 38.77     515.32
 38.87     524.00
 38.97     535.94
 39.07     505.00
 39.17     517.00
 39.27     526.32
 39.37     547.67
 39.47     509.00
 39.57     499.00
 39.67     504.00
 39.77     529.34
 39.87     531.00
 39.97     519.07
 40.07     524.11
 40.17     535.00
 40.27     468.03
 40.37     523.40
 40.47     521.99
 40.57     485.00
 40.67     489.80
 40.77     533.00
 40.87     527.41
 40.97     513.00
 41.07     468.02
 41.17     489.37
 41.27     523.00
 41.37     469.00
 41.47     520.00
 41.57     502.00
 41.67     484.00
 41.77     526.85
 41.87     541.38
 41.97     499.81
 42.07     546.00
 42.17     521.99
 42.27     543.27
 42.37     576.00
 42.47     535.00
 42.57     604.23
 42.67     658.84
 42.77     595.74
 42.87     567.00
 42.97     620.28
 43.07     534.00
 43.17     524.00
 43.27     526.00
 43.37     486.00
 43.47     499.00
 43.57     476.49
 43.67     525.96
 43.77     500.00
 43.87     510.00
 43.97     481.00
 44.07     532.00
 44.17     532.12
 44.27     525.10
 44.37     509.95
 44.47     447.00
 44.57     470.12
 44.67     548.41
 44.77     470.99
 44.87     502.00
 44.97     518.00
 45.07     540.00
 45.17     469.84
 45.27     479.00
 45.37     527.00
 45.47     491.00
 45.57     484.87
 45.67     463.37
 45.77     498.27
 45.87     507.00
 45.97     493.88
 46.07     484.00
 46.17     501.00
 46.27     494.00
 46.37     522.00
 46.47     526.00
 46.57     473.74
 46.67     551.95
 46.77     474.20
 46.87     538.83
 46.97     522.42
 47.07     519.00
 47.17     522.00
 47.27     535.60
 47.37     504.00
 47.47     538.00
 47.57     576.00
 47.67     577.00
 47.77     623.00
 47.87     582.00
 47.97     594.51
 48.07     618.00
 48.17     554.00
 48.27     541.00
 48.37     520.00
 48.47     553.86
 48.57     494.67
 48.67     565.35
 48.77     539.00
 48.87     559.00
 48.97     512.82
 49.07     575.00
 49.17     606.84
 49.27     639.00
 49.37     671.44
 49.47     672.93
 49.57     750.00
 49.67     913.00
 49.77    1128.00
 49.87    1454.93
 49.97    1849.00
 50.07    2235.70
 50.17    2543.00
 50.27    2497.00
 50.37    2264.00
 50.47    1811.03
 50.57    1422.72
 50.67    1018.00
 50.77     810.90
 50.87     751.89
 50.97     659.41
 51.07     628.00
 51.17     624.00
 51.27     618.00
 51.37     590.00
 51.47     524.12
 51.57     587.00
 51.67     521.00
 51.77     556.00
 51.87     581.34
 51.97     521.61
 52.07     534.34
 52.17     494.05
 52.27     547.00
 52.37     562.00
 52.47     498.07
 52.57     600.00
 52.67     578.00
 52.77     577.00
 52.87     656.42
 52.97     723.30
 53.07     771.70
 53.17     910.00
 53.27    1017.34
 53.37    1148.00
 53.47    1223.00
 53.57    1227.00
 53.67    1046.00
 53.77    1011.59
 53.87     862.00
 53.97     760.00
 54.07     649.89
 54.17     616.61
 54.27     566.00
 54.37     569.00
 54.47     564.00
 54.57     516.55
 54.67     584.00
 54.77     576.59
 54.87     610.00
 54.97     574.57
 55.07     579.00
 55.17     584.24
 55.27     567.00
 55.37     591.00
 55.47     533.00
 55.57     549.94
 55.67     585.16
 55.77     605.79
 55.87     605.00
 55.97     599.00
 56.07     646.00
 56.17     725.00
 56.27     893.00
 56.37    1040.00
 56.47    1432.00
 56.57    1834.52
 56.67    2164.00
 56.77    2470.48
 56.87    2570.14
 56.97    2700.83
 57.07    2424.00
 57.17    2095.00
 57.27    1640.81
 57.37    1314.00
 57.47    1061.00
 57.57     864.03
 57.67     766.00
 57.77     732.02
 57.87     701.00
 57.97     640.00
 58.07     675.00
 58.17     688.00
 58.27     732.00
 58.37     819.00
 58.47     960.00
 58.57    1122.87
 58.67    1251.00
 58.77    1344.00
 58.87    1511.00
 58.97    1492.54
 59.07    1666.00
 59.17    1674.00
 59.27    1490.00
 59.37    1365.00
 59.47    1296.00
 59.57    1167.00
 59.67    1141.00
 59.77    1106.39
 59.87    1167.00
 59.97    1218.86
 60.07    1492.00
 60.17    1550.00
 60.27    1635.00
 60.37    1519.00
 60.47    1382.00
 60.57    1201.00
 60.67    1044.00
 60.77     879.24
 60.87     744.48
 60.97     680.60
 61.07     596.00
 61.17     597.71
 61.27     621.00
 61.37     649.00
 61.47     652.00
 61.57     776.64
 61.67     817.88
 61.77     939.00
 61.87    1092.15
 61.97    1142.00
 62.07    1312.00
 62.17    1372.54
 62.27    1431.00
 62.37    1394.34
 62.47    1159.97
 62.57     996.49
 62.67     929.00
 62.77     784.45
 62.87     721.00
 62.97     640.00
 63.07     642.04
 63.17     576.00
 63.27     575.00
 63.37     549.00
 63.47     514.96
 63.57     585.00
 63.67     614.95
 63.77     614.00
 63.87     625.00
 63.97     618.00
 64.07     727.00
 64.17     701.41
 64.27     819.00
 64.37     917.00
 64.47    1010.00
 64.57    1033.00
 64.67    1012.00
 64.77     991.79
 64.87     976.66
 64.97     864.32
 65.07     863.42
 65.17     787.00
 65.27     763.00
 65.37     655.00
 65.47     632.00
 65.57     603.00
 65.67     588.00
 65.77     618.00
 65.87     550.90
 65.97     613.00
 66.07     527.00
 66.17     586.00
 66.27     564.00
 66.37     583.70
 66.47     574.00
 66.57     581.00
 66.67     580.00
 66.77     545.00
 66.87     616.51
 66.97     621.00
 67.07     624.00
 67.17     680.00
 67.27     719.00
 67.37     893.00
 67.47    1067.00
 67.57    1256.00
 67.67    1510.00
 67.77    1790.57
 67.87    2094.39
 67.97    2298.00
 68.07    2387.00
 68.17    2471.00
 68.27    2318.25
 68.37    2027.00
 68.47    1863.06
 68.57    1560.00
 68.67    1193.74
 68.77     989.00
 68.87     912.93
 68.97     751.00
 69.07     737.83
 69.17     710.00
 69.27     647.00
 69.37     620.00
 69.47     593.00
 69.57     606.00
 69.67     577.00
 69.77     607.00
 69.87     581.77
 69.97     590.00
 70.07     606.53
 70.17     602.25
 70.27     551.00
 70.37     602.72
 70.47     582.00
 70.57     574.23
 70.67     558.04
 70.77     584.55
 70.87     577.00
 70.97     603.00
 71.07     655.83
 71.17     701.87
 71.27     803.00
 71.37     950.00
 71.47    1086.60
 71.57    1293.00
 71.67    1415.00
 71.77    1640.00
 71.87    1824.00
 71.97    1910.00
 72.07    1908.83
 72.17    1937.00
 72.27    1810.53
 72.37    1616.00
 72.47    1517.67
 72.57    1332.00
 72.67    1197.00
 72.77    1106.00
 72.87     972.57
 72.97     948.57
 73.07     785.00
 73.17     714.00
 73.27     728.00
 73.37     758.07
 73.47     564.00
 73.57     642.00
 73.67     601.00
 73.77     638.00
 73.87     559.44
 73.97     596.00
 74.07     546.76
 74.17     613.00
 74.27     554.00
 74.37     540.83
 74.47     527.06
 74.57     627.00
 74.67     610.86
 74.77     641.00
 74.87     611.00
 74.97     625.00
 75.07     585.00
 75.17     591.57
 75.27     606.00
 75.37     567.00
 75.47     545.63
 75.57     578.00
 75.67     569.00
 75.77     529.62
 75.87     547.00
 75.97     597.00
 76.07     619.00
 76.17     662.00
 76.27     696.00
 76.37     693.00
 76.47     723.00
 76.57     748.11
 76.67     679.85
 76.77     722.52
 76.87     663.00
 76.97     693.47
 77.07     600.00
 77.17     597.00
 77.27     568.00
 77.37     525.78
 77.47     530.00
 77.57     534.00
 77.67     573.39
 77.77     527.00
 77.87     572.06
 77.97     522.00
 78.07     481.00
 78.17     521.57
 78.27     503.00
 78.37     562.80
 78.47     474.00
 78.57     478.00
 78.67     483.52
 78.77     509.00
 78.87     546.00
 78.97     516.00
 79.07     561.17
 79.17     525.00
 79.27     550.00
 79.37     550.00
 79.47     512.00
 79.57     541.00
 79.67     512.00
 79.77     509.00
 79.87     554.50
 79.97     564.00
 80.07     523.35
 80.17     562.00
 80.27     622.00
 80.37     555.00
 80.47     618.00
 80.57     623.95
 80.67     593.00
 80.77     623.00
 80.87     666.00
 80.97     678.75
 81.07     753.00
 81.17     715.00
 81.27     716.00
 81.37     746.00
 81.47     712.51
 81.57     705.50
 81.67     733.59
 81.77     718.00
 81.87     763.00
 81.97     716.00
 82.07     647.83
 82.17     676.00
 82.27     665.00
 82.37     661.94
 82.47     608.00
 82.57     580.00
 82.67     569.00
 82.77     545.00
 82.87     532.00
 82.97     559.00
 83.07     533.00
 83.17     577.00
 83.27     543.71
 83.37     539.00
 83.47     484.00
 83.57     546.55
 83.67     589.96
 83.77     529.72
 83.87     528.01
 83.97     573.96
 84.07     531.00
 84.17     588.00
 84.27     629.00
 84.37     560.00
 84.47     530.00
 84.57     562.07
 84.67     524.10
 84.77     517.00
 84.87     519.00
 84.97     575.00
 85.07     545.00
 85.17     522.00
 85.27     517.00
 85.37     566.65
 85.47     501.58
 85.57     545.00
 85.67     523.00
 85.77     530.00
 85.87     510.00
 85.97     496.17
 86.07     471.00
 86.17     584.00
 86.27     542.00
 86.37     580.16
 86.47     562.68
 86.57     545.89
 86.67     584.00
 86.77     536.63
 86.87     647.00
 86.97     598.32
 87.07     626.00
 87.17     660.00
 87.27     610.00
 87.37     635.74
 87.47     657.00
 87.57     641.62
 87.67     614.00
 87.77     589.07
 87.87     649.49
 87.97     618.00
 88.07     647.00
 88.17     583.00
 88.27     610.00
 88.37     528.45
 88.47     582.00
 88.57     536.28
 88.67     577.00
 88.77     608.00
 88.87     557.24
 88.97     576.00
 89.07     598.14
 89.17     606.71
 89.27     571.75
 89.37     635.00
 89.47     640.00
 89.57     643.05
 89.67     575.00
 89.77     528.00
 89.87     611.82
 89.97     543.00
 90.07     582.48
 90.17     585.67
 90.27     541.00
 90.37     513.00
 90.47     530.00
 90.57     512.52
 90.67     505.00
 90.77     532.00
 90.87     502.00
 90.97     533.00
 91.07     568.09
 91.17     493.89
 91.27     526.00
 91.37     547.00
 91.47     528.02
 91.57     513.00
 91.67     509.48
 91.77     546.00
 91.87     503.00
 91.97     587.53
 92.07     578.00
 92.17     524.00
 92.27     579.00
 92.37     576.53
 92.47     632.35
 92.57     627.60
 92.67     627.62
 92.77     699.00
 92.87     655.00
 92.97     764.01
 93.07     752.00
 93.17     767.00
 93.27     788.00
 93.37     766.45
 93.47     842.00
 93.57     806.00
 93.67     840.19
 93.77     874.15
 93.87     870.00
 93.97     893.00
 94.07     827.00
 94.17     823.49
 94.27     882.00
 94.37     844.00
 94.47     809.58
 94.57     909.00
 94.67     928.00
 94.77     846.00
 94.87     938.00
 94.97     810.77
 95.07     909.99
 95.17     806.96
 95.27     829.00
 95.37     820.02
 95.47     799.00
 95.57     765.47
 95.67     699.88
 95.77     708.00
 95.87     733.00
 95.97     662.00
 96.07     685.00
 96.17     697.00
 96.27     705.00
 96.37     805.29
 96.47     761.86
 96.57     860.00
 96.67     863.43
 96.77     967.00
 96.87    1021.00
 96.97    1110.69
 97.07    1230.00
 97.17    1312.00
 97.27    1311.48
 97.37    1403.28
 97.47    1483.54
 97.57    1388.00
 97.67    1455.38
 97.77    1429.75
 97.87    1362.47
 97.97    1310.00
 98.07    1221.79
 98.17    1145.00
 98.27    1044.00
 98.37     957.34
 98.47     919.00
 98.57     948.95
 98.67     828.00
 98.77     778.35
 98.87     829.00
 98.97     756.00
 99.07     785.00
 99.17     835.00
 99.27     909.86
 99.37     920.00
 99.47    1011.00
 99.57    1135.00
 99.67    1188.00
 99.77    1220.89
 99.87    1403.00
 99.97    1537.00
100.07    1565.00
100.17    1690.46
100.27    1839.00
100.37    1993.00
100.47    2066.34
100.57    2155.00
100.67    2172.71
100.77    2103.34
100.87    2100.00
100.97    2072.78
101.07    2056.61
101.17    1913.00
101.27    1767.06
101.37    1733.00
101.47    1687.81
101.57    1576.00
101.67    1454.00
101.77    1389.29
101.87    1278.00
101.97    1236.00
102.07    1237.00
102.17    1170.00
102.27    1183.00
102.37    1086.00
102.47    1054.00
102.57    1075.00
102.67    1047.00
102.77    1021.38
102.87     976.25
102.97     916.00
103.07     867.00
103.17     893.00
103.27     885.11
103.37     858.00
103.47     773.00
103.57     738.79
103.67     672.00
103.77     699.00
103.87     648.00
103.97     575.57
104.07     636.00
104.17     619.00
104.27     584.00
104.37     575.42
104.47     588.21
104.57     526.08
104.67     562.00
104.77     595.00
104.87     518.00
104.97     485.65
105.07     526.00
105.17     552.29
105.27     561.52
105.37     558.00
105.47     542.00
105.57     549.97
105.67     546.00
105.77     567.61
105.87     580.74
105.97     581.00
106.07     534.17
106.17     594.00
106.27     556.00
106.37     583.00
106.47     587.90
106.57     639.00
106.67     632.00
106.77     614.00
106.87     654.00
106.97     625.00
107.07     667.00
107.17     676.00
107.27     657.00
107.37     664.00
107.47     672.00
107.57     694.00
107.67     662.54
107.77     714.88
107.87     672.00
107.97     680.00
108.07     678.89
108.17     648.00
108.27     666.34
108.37     719.00
108.47     714.32
108.57     641.00
108.67     683.00
108.77     681.00
108.87     695.00
108.97     710.24
109.07     636.12
109.17     669.94
109.27     679.00
109.37     671.00
109.47     596.00
109.57     627.00
109.67     613.00
109.77     623.00
109.87     617.00
109.97     578.00
110.07     583.86
110.17     532.99
110.27     581.00
110.37     543.00
110.47     514.00
110.57     568.00
110.67     538.00
110.77     559.00
110.87     508.45
110.97     536.38
111.07     578.66
111.17     535.00
111.27     502.00
111.37     561.00
111.47     518.00
111.57     576.00
111.67     519.00
111.77     557.86
111.87     560.00
111.97     562.00
112.07     600.00
112.17     593.00
112.27     547.00
112.37     582.98
112.47     568.32
112.57     628.00
112.67     623.27
112.77     611.00
112.87     599.00
112.97     683.00
113.07     692.00
113.17     731.85
113.27     728.00
113.37     759.00
113.47     813.00
113.57     814.00
113.67     842.53
113.77     947.16
113.87     952.00
113.97    1002.06
114.07    1088.00
114.17    1127.38
114.27    1177.43
114.37    1322.00
114.47    1399.84
114.57    1458.00
114.67    1581.00
114.77    1683.17
114.87    1927.79
114.97    2123.00
115.07    2305.61
115.17    2466.00
115.27    2848.00
115.37    3162.12
115.47    3370.00
115.57    3758.00
115.67    4137.00
115.77    4482.00
115.87    4852.13
115.97    5164.00
116.07    5794.69
116.17    6083.00
116.27    6201.00
116.37    6467.99
116.47    6833.00
116.57    6850.90
116.67    6898.29
116.77    6977.00
116.87    6966.35
116.97    6790.00
117.07    6334.00
117.17    6249.53
117.27    5730.00
117.37    5378.00
117.47    4965.59
117.57    4616.00
117.67    4214.49
117.77    3951.29
117.87    3695.00
117.97    3283.00
118.07    2717.86
118.17    2577.00
118.27    2288.30
118.37    2035.00
118.47    1792.00
118.57    1604.00
118.67    1377.00
118.77    1272.00
118.87    1121.00
118.97    1006.00
119.07     925.00
119.17     888.00
119.27     864.75
119.37     825.35
119.47     774.00
119.57     679.00
119.67     666.08
119.77     638.95
119.87     633.42
119.97     610.00
120.07     624.00
120.17     554.25
120.27     558.00
120.37     565.00
120.47     554.79
120.57     570.00
120.67     546.58
120.77     590.55
120.87     562.95
120.97     565.00
121.07     580.00
121.17     570.40
121.27     579.00
121.37     526.00
121.47     570.88
121.57     558.75
121.67     562.00
121.77     573.02
121.87     605.93
121.97     589.59
122.07     568.09
122.17     616.00
122.27     635.00
122.37     604.13
122.47     674.00
122.57     637.73
122.67     605.00
122.77     685.07
122.87     671.57
122.97     648.00
123.07     667.07
123.17     635.00
123.27     607.10
123.37     632.00
123.47     608.61
123.57     596.00
123.67     657.00
123.77     611.00
123.87     616.00
123.97     599.00
124.07     606.07
124.17     647.62
124.27     603.00
124.37     617.44
124.47     578.00
124.57     621.00
124.67     596.00
124.77     587.00
124.87     632.00
124.97     568.00
