  9.97     575.11
 10.07     589.14
 10.17     605.00
 10.27     605.00
 10.37     574.00
 10.47     595.49
 10.57     604.00
 10.67     583.00
 10.77     576.00
 10.87     591.00
 10.97     571.64
 11.07     549.00
 11.17     594.00
 11.27     592.10
 11.37     599.00
 11.47     636.00
 11.57     550.00
 11.67     594.00
 11.77     594.43
 11.87     698.00
 11.97     670.00
 12.07     714.00
 12.17     653.48
 12.27     646.00
 12.37     644.20
 12.47     639.00
 12.57     607.00
 12.67     561.00
 12.77     624.52
 12.87     596.00
 12.97     582.45
 13.07     523.00
 13.17     569.00
 13.27     576.00
 13.37     561.00
 13.47     579.24
 13.57     557.00
 13.67     569.00
 13.77     578.87
 13.87     598.00
 13.97     522.00
 14.07     529.00
 14.17     560.00
 14.27     544.00
 14.37     578.00
 14.47     522.00
 14.57     558.00
 14.67     559.03
 14.77     522.00
 14.87     558.00
 14.97     612.79
 15.07     532.86
 15.17     541.00
 15.27     546.35
 15.37     569.00
 15.47     548.54
 15.57     549.00
 15.67     523.92
 15.77     511.00
 15.87     566.00
 15.97     594.15
 16.07     590.00
 16.17     570.46
 16.27     564.00
 16.37     583.53
 16.47     559.25
 16.57     521.36
 16.67     583.00
 16.77     565.59
 16.87     587.00
 16.97     590.00
 17.07     546.00
 17.17     549.00
 17.27     544.00
 17.37     547.00
 17.47     583.89
 17.57     533.00
 17.67     580.00
 17.77     566.00
 17.87     575.00
 17.97     565.00
 18.07     574.00
 18.17     589.60
 18.27     593.94
 18.37     559.22
 18.47     533.00
 18.57     538.00
 18.67     577.00
 18.77     582.00
 18.87     548.00
 18.97     599.46
 19.07     577.00
 19.17     535.00
 19.27     532.65
 19.37     558.00
 19.47     530.00
 19.57     536.71
 19.67     582.96
 19.77     581.28
 19.87     557.00
 19.97     522.00
 20.07     548.00
 20.17     566.00
 20.27     544.00
 20.37     582.00
 20.47     514.80
 20.57     580.39
 20.67     599.22
 20.77     561.73
 20.87     574.00
 20.97     575.00
 21.07     550.91
 21.17     549.00
 21.27     551.00
 21.37     590.00
 21.47     533.06
 21.57     571.64
 21.67     551.00
 21.77     495.00
 21.87     527.17
 21.97     594.00
 22.07     577.16
 22.17     530.00
 22.27     569.00
 22.37     527.00
 22.47     582.00
 22.57     534.00
 22.67     558.65
 22.77     545.00
 22.87     521.00
 22.97     528.13
 23.07     577.00
 23.17     560.00
 23.27     565.00
 23.37     549.00
 23.47     582.39
 23.57     556.00
 23.67     566.00
 23.77     586.00
 23.87     563.00
 23.97     578.00
 24.07     522.79
 24.17     545.00
 24.27     532.03
 24.37     584.31
 24.47     563.00
 24.57     616.00
 24.67     613.00
 24.77     661.69
 24.87     650.47
 24.97     652.00
 25.07     628.71
 25.17     596.00
 25.27     542.00
 25.37     606.00
 25.47     501.00
 25.57     537.00
 25.67     504.76
 25.77     503.75
 25.87     588.16
 25.97     511.10
 26.07     555.00
 26.17     578.00
 26.27     500.96
 26.37     543.00
 26.47     542.00
 26.57     533.00
 26.67     546.00
 26.77     548.00
 26.87     542.00
 26.97     558.00
 27.07     560.75
 27.17     505.63
 27.27     559.00
 27.37     537.72
 27.47     582.00
 27.57     515.75
 27.67     563.00
 27.77     572.00
 27.87     602.00
 27.97     647.00
 28.07     788.00
 28.17     896.93
 28.27     920.00
 28.37     876.00
 28.47     778.44
 28.57     703.00
 28.67     714.00
 28.77     716.91
 28.87     749.00
 28.97     862.00
 29.07     747.00
 29.17     652.00
 29.27     629.00
 29.37     610.82
 29.47     554.52
 29.57     565.00
 29.67     516.76
 29.77     601.00
 29.87     575.25
 29.97     558.00
 30.07     573.32
 30.17     511.00
 30.27     563.90
 30.37     591.00
 30.47     557.45
 30.57     571.00
 30.67     540.80
 30.77     574.23
 30.87     606.41
 30.97     623.00
 31.07     622.00
 31.17     586.00
 31.27     560.00
 31.37     596.00
 31.47     499.00
 31.57     566.00
 31.67     528.00
 31.77     539.00
 31.87     530.00
 31.97     560.00
 32.07     540.00
 32.17     553.00
 32.27     530.00
 32.37     613.00
 32.47     552.00
 32.57     543.00
 32.67     486.10
 32.77     512.00
 32.87     547.38
 32.97     535.00
 33.07     535.00
 33.17     561.00
 33.27     520.24
 33.37     553.00
 33.47     569.00
 33.57     594.00
 33.67     669.63
 33.77     804.00
 33.87     862.00
 33.97    1001.91
 34.07    1039.00
 34.17    1010.00
 34.27     945.71
 34.37     807.00
 34.47     707.75
 34.57     567.00
 34.67     521.00
 34.77     556.00
 34.87     558.38
 34.97     541.71
 35.07     527.42
 35.17     553.00
 35.27     517.00
 35.37     512.80
 35.47     501.00
 35.57     557.57
 35.67     484.19
 35.77     565.00
 35.87     512.00
 35.97     525.90
 36.07     515.21
 36.17     544.43
 36.27     504.00
 36.37     523.00
 36.47     495.00
 36.57     495.00
 36.67     481.09
 36.77     483.00
 36.87     525.00
 36.97     542.00
 37.07     510.72
 37.17     544.00
 37.27     486.00
 37.37     541.00
 37.47     562.91
 37.57     538.00
 37.67     549.00
 37.77     513.20
 37.87     523.33
 37.97     512.00
 38.07     509.00
 38.17     520.00
 38.27     496.54
 38.37     536.99
 38.47     493.00
 38.57     541.60
 38.67     505.00
 38.77     515.00
 38.87     488.94
 38.97     502.41
 39.07     493.92
 39.17     478.00
 39.27     469.00
 39.37     542.00
 39.47     519.00
 39.57     486.30
 39.67     524.00
 39.77     508.55
 39.87     479.00
 39.97     490.88
 40.07     524.00
 40.17     512.00
 40.27     508.00
 40.37     516.00
 40.47     475.40
 40.57     514.50
 40.67     467.25
 40.77     500.00
 40.87     499.00
 40.97     484.56
 41.07     545.34
 41.17     518.00
 41.27     496.00
 41.37     523.24
 41.47     509.48
 41.57     541.41
 41.67     508.00
 41.77     453.00
 41.87     546.77
 41.97     489.00
 42.07     524.00
 42.17     496.32
 42.27     521.00
 42.37     539.66
 42.47     611.00
 42.57     608.00
 42.67     531.00
 42.77     639.75
 42.87     556.38
 42.97     576.21
 43.07     539.00
 43.17     502.89
 43.27     507.54
 43.37     540.83
 43.47     543.26
 43.57     479.00
 43.67     504.00
 43.77     470.00
 43.87     492.00
 43.97     517.00
 44.07     528.52
 44.17     511.00
 44.27     495.00
 44.37     483.00
 44.47     474.00
 44.57     473.00
 44.67     506.00
 44.77     509.46
 44.87     521.00
 44.97     509.00
 45.07     511.00
 45.17     530.29
 45.27     478.54
 45.37     483.00
 45.47     518.00
 45.57     486.00
 45.67     512.00
 45.77     501.00
 45.87     529.84
 45.97     497.00
 46.07     538.29
 46.17     537.68
 46.27     465.32
 46.37     522.28
 46.47     510.00
 46.57     499.00
 46.67     462.52
 46.77     491.17
 46.87     460.00
 46.97     513.00
 47.07     469.37
 47.17     526.00
 47.27     510.00
 47.37     528.47
 47.47     509.00
 47.57     556.00
 47.67     566.00
 47.77     582.00
 47.87     604.00
 47.97     573.00
 48.07     526.00
 48.17     539.00
 48.27     569.00
 48.37     557.00
 48.47     588.00
 48.57     545.19
 48.67     534.22
 48.77     528.00
 48.87     576.00
 48.97     532.00
 49.07     522.83
 49.17     548.00
 49.27     543.45
 49.37     634.00
 49.47     694.09
 49.57     694.00
 49.67     825.39
 49.77    1045.56
 49.87    1406.00
 49.97    1731.37
 50.07    2143.00
 50.17    2387.49
 50.27    2478.00
 50.37    2183.00
 50.47    1948.91
 50.57    1455.00
 50.67    1043.00
 50.77     850.00
 50.87     735.00
 50.97     711.00
 51.07     634.89
 51.17     642.08
 51.27     582.91
 51.37     561.00
 51.47     570.00
 51.57     544.91
 51.67     552.00
 51.77     570.00
 51.87     532.22
 51.97     497.00
 52.07     491.00
 52.17     511.03
 52.27     549.00
 52.37     526.00
 52.47     587.65
 52.57     560.38
 52.67     552.39
 52.77     604.02
 52.87     656.73
 52.97     724.00
 53.07     807.86
 53.17     851.88
 53.27    1012.11
 53.37    1086.80
 53.47    1163.00
 53.57    1224.00
 53.67    1075.20
 53.77    1024.00
 53.87     940.40
 53.97     831.34
 54.07     646.00
 54.17     670.86
 54.27     652.87
 54.37     637.00
 54.47     631.00
 54.57     554.00
 54.67     615.00
 54.77     544.00
 54.87     596.00
 54.97     601.00
 55.07     575.66
 55.17     528.00
 55.27     527.31
 55.37     594.00
 55.47     592.00
 55.57     552.24
 55.67     584.00
 55.77     567.00
 55.87     638.00
 55.97     649.90
 56.07     665.00
 56.17     743.00
 56.27     916.00
 56.37    1124.00
 56.47    1462.00
 56.57    1757.00
 56.67    2182.66
 56.77    2468.53
 56.87    2620.00
 56.97    2585.00
 57.07    2402.00
 57.17    1983.88
 57.27    1658.00
 57.37    1423.52
 57.47    1156.77
 57.57     930.00
 57.67     837.00
 57.77     770.00
 57.87     688.70
 57.97     654.36
 58.07     691.00
 58.17     700.29
 58.27     751.06
 58.37     846.46
 58.47     917.03
 58.57    1054.60
 58.67     997.00
 58.77    1189.88
 58.87    1220.00
 58.97    1362.00
 59.07    1321.10
 59.17    1455.00
 59.27    1340.00
 59.37    1355.00
 59.47    1284.00
 59.57    1240.00
 59.67    1165.00
 59.77    1131.00
 59.87    1250.00
 59.97    1316.00
 60.07    1471.00
 60.17    1468.86
 60.27    1470.81
 60.37    1495.00
 60.47    1421.00
 60.57    1301.00
 60.67    1048.00
 60.77     896.00
 60.87     785.00
 60.97     682.95
 61.07     676.00
 61.17     634.50
 61.27     632.34
 61.37     691.00
 61.47     707.00
 61.57     777.00
 61.67     864.00
 61.77    1002.35
 61.87    1122.00
 61.97    1246.17
 62.07    1337.00
 62.17    1390.00
 62.27    1359.00
 62.37    1303.00
 62.47    1203.00
 62.57    1080.00
 62.67     959.34
 62.77     799.76
 62.87     677.00
 62.97     658.00
 63.07     591.00
 63.17     591.00
 63.27     581.00
 63.37     558.00
 63.47     582.00
 63.57     584.00
 63.67     575.51
 63.77     624.00
 63.87     647.95
 63.97     692.00
 64.07     681.00
 64.17     712.99
 64.27     827.00
 64.37     905.00
 64.47     948.00
 64.57    1025.00
 64.67    1035.00
 64.77    1019.86
 64.87     966.72
 64.97     883.37
 65.07     874.03
 65.17     745.00
 65.27     722.00
 65.37     681.00
 65.47     607.00
 65.57     636.00
 65.67     594.65
 65.77     592.00
 65.87     627.20
 65.97     569.00
 66.07     570.00
 66.17     555.34
 66.27     552.00
 66.37     562.00
 66.47     571.00
 66.57     555.00
 66.67     539.00
 66.77     576.06
 66.87     600.00
 66.97     596.18
 67.07     665.00
 67.17     716.00
 67.27     793.44
 67.37     871.96
 67.47    1060.00
 67.57    1319.00
 67.67    1490.59
 67.77    1854.00
 67.87    2041.00
 67.97    2349.00
 68.07    2465.77
 68.17    2447.00
 68.27    2321.00
 68.37    2132.10
 68.47    1828.00
 68.57    1497.00
 68.67    1358.00
 68.77    1048.64
 68.87     977.00
 68.97     788.00
 69.07     749.00
 69.17     643.00
 69.27     589.75
 69.37     621.69
 69.47     625.27
 69.57     566.00
 69.67     545.00
 69.77     548.36
 69.87     569.00
 69.97     544.00
 70.07     561.46
 70.17     601.00
 70.27     610.36
 70.37     549.00
 70.47     557.43
 70.57     563.85
 70.67     586.46
 70.77     569.00
 70.87     590.00
 70.97     637.00
 71.07     675.00
 71.17     778.00
 71.27     792.61
 71.37     867.00
 71.47    1138.00
 71.57    1254.00
 71.67    1467.00
 71.77    1617.22
 71.87    1704.00
 71.97    1840.65
 72.07    1931.00
 72.17    1870.00
 72.27    1804.00
 72.37    1611.00
 72.47    1493.39
 72.57    1312.47
 72.67    1012.00
 72.77    1032.63
 72.87     882.57
 72.97     857.13
 73.07     790.00
 73.17     721.00
 73.27     661.00
 73.37     634.00
 73.47     614.00
 73.57     624.87
 73.67     600.00
 73.77     626.00
 73.87     624.74
 73.97     549.00
 74.07     598.15
 74.17     598.00
 74.27     583.91
 74.37     603.00
 74.47     631.00
 74.57     538.99
 74.67     624.00
 74.77     595.52
 74.87     604.31
 74.97     624.00
 75.07     618.00
 75.17     580.00
 75.27     565.62
 75.37     580.00
 75.47     539.70
 75.57     597.00
 75.67     576.00
 75.77     601.00
 75.87     590.00
 75.97     621.00
 76.07     648.00
 76.17     670.65
 76.27     678.00
 76.37     733.41
 76.47     704.00
 76.57     664.68
 76.67     714.62
 76.77     700.00
 76.87     662.00
 76.97     652.00
 77.07     687.00
 77.17     622.00
 77.27     601.56
 77.37     536.00
 77.47     532.00
 77.57     534.00
 77.67     537.00
 77.77     576.21
 77.87     537.00
 77.97     503.00
 78.07     468.00
 78.17     503.00
 78.27     552.79
 78.37     572.00
 78.47     468.00
 78.57     500.00
 78.67     519.00
 78.77     568.39
 78.87     530.00
 78.97     510.00
 79.07     516.00
 79.17     475.00
 79.27     523.00
 79.37     559.20
 79.47     485.00
 79.57     466.00
 79.67     511.00
 79.77     571.00
 79.87     567.26
 79.97     509.98
 80.07     508.02
 80.17     533.00
 80.27     599.00
 80.37     580.82
 80.47     570.00
 80.57     615.00
 80.67     646.00
 80.77     622.00
 80.87     632.20
 80.97     704.00
 81.07     688.00
 81.17     710.04
 81.27     748.14
 81.37     740.00
 81.47     758.00
 81.57     731.00
 81.67     705.59
 81.77     741.13
 81.87     693.77
 81.97     732.39
 82.07     622.06
 82.17     628.00
 82.27     621.00
 82.37     617.00
 82.47     624.47
 82.57     573.00
 82.67     615.85
 82.77     568.00
 82.87     528.56
 82.97     589.00
 83.07     561.29
 83.17     525.00
 83.27     563.66
 83.37     563.00
 83.47     575.00
 83.57     523.09
 83.67     593.65
 83.77     529.33
 83.87     582.38
 83.97     585.00
 84.07     579.00
 84.17     560.00
 84.27     533.00
 84.37     565.00
 84.47     562.83
 84.57     494.00
 84.67     531.00
 84.77     556.87
 84.87     556.08
 84.97     554.00
 85.07     526.74
 85.17     504.70
 85.27     516.64
 85.37     508.73
 85.47     544.00
 85.57     538.52
 85.67     535.00
 85.77     508.85
 85.87     536.00
 85.97     528.00
 86.07     544.00
 86.17     522.00
 86.27     551.00
 86.37     555.99
 86.47     533.00
 86.57     558.00
 86.67     531.61
 86.77     561.00
 86.87     579.00
 86.97     628.46
 87.07     617.00
 87.17     627.00
 87.27     666.42
 87.37     662.87
 87.47     649.48
 87.57     662.00
 87.67     620.00
 87.77     653.17
 87.87     646.60
 87.97     580.55
 88.07     642.00
 88.17     631.00
 88.27     602.00
 88.37     607.00
 88.47     587.00
 88.57     590.00
 88.67     551.83
 88.77     571.00
 88.87     588.00
 88.97     591.00
 89.07     603.00
 89.17     619.16
 89.27     613.00
 89.37     554.86
 89.47     567.00
 89.57     580.00
 89.67     526.00
 89.77     578.00
 89.87     547.00
 89.97     567.18
 90.07     536.85
 90.17     528.00
 90.27     557.22
 90.37     496.00
 90.47     493.00
 90.57     559.84
 90.67     529.00
 90.77     503.00
 90.87     565.00
 90.97     491.00
 91.07     532.00
 91.17     503.00
 91.27     554.61
 91.37     513.00
 91.47     531.00
 91.57     545.09
 91.67     550.84
 91.77     532.17
 91.87     574.00
 91.97     562.00
 92.07     552.59
 92.17     535.00
 92.27     596.18
 92.37     627.44
 92.47     583.65
 92.57     657.17
 92.67     609.45
 92.77     634.79
 92.87     645.46
 92.97     685.00
 93.07     681.78
 93.17     791.41
 93.27     761.00
 93.37     792.27
 93.47     785.93
 93.57     797.43
 93.67     847.29
 93.77     766.00
 93.87     838.00
 93.97     851.52
 94.07     845.32
 94.17     841.00
 94.27     893.63
 94.37     872.00
 94.47     902.00
 94.57     929.68
 94.67     948.00
 94.77     895.00
 94.87     900.00
 94.97     864.52
 95.07     907.00
 95.17     874.00
 95.27     832.00
 95.37     830.00
 95.47     794.00
 95.57     770.00
 95.67     730.99
 95.77     741.00
 95.87     744.78
 95.97     690.62
 96.07     654.86
 96.17     680.00
 96.27     753.00
 96.37     809.00
 96.47     842.02
 96.57     841.00
 96.67     918.41
 96.77    1061.00
 96.87    1018.49
 96.97    1176.90
 97.07    1234.00
 97.17    1302.21
 97.27    1421.00
 97.37    1411.44
 97.47    1409.00
 97.57    1469.67
 97.67    1344.00
 97.77    1395.40
 97.87    1400.80
 97.97    1304.00
 98.07    1264.22
 98.17    1225.74
 98.27    1117.00
 98.37    1017.59
 98.47     968.02
 98.57     907.00
 98.67     810.00
 98.77     840.15
 98.87     845.00
 98.97     805.00
 99.07     839.02
 99.17     863.50
 99.27     938.00
 99.37     977.00
 99.47    1034.00
 99.57    1123.00
 99.67    1210.00
 99.77    1268.03
 99.87    1350.00
 99.97    1511.00
100.07    1656.89
100.17    1821.00
100.27    1807.00
100.37    1959.00
100.47    2016.00
100.57    2045.00
100.67    2033.00
100.77    1970.00
100.87    2090.75
100.97    1935.00
101.07    1984.43
101.17    1810.83
101.27    1741.00
101.37    1691.00
101.47    1615.00
101.57    1484.00
101.67    1480.38
101.77    1354.00
101.87    1325.64
101.97    1228.00
102.07    1195.88
102.17    1193.00
102.27    1127.00
102.37    1196.73
102.47    1075.48
102.57    1083.00
102.67    1097.83
102.77    1030.00
102.87     985.59
102.97    1034.53
103.07     950.78
103.17     894.00
103.27     879.00
103.37     783.00
103.47     809.70
103.57     786.21
103.67     734.00
103.77     739.00
103.87     678.00
103.97     665.30
104.07     587.52
104.17     591.00
104.27     584.00
104.37     553.00
104.47     563.85
104.57     575.00
104.67     542.00
104.77     520.00
104.87     553.00
104.97     507.00
105.07     526.95
105.17     524.00
105.27     548.00
105.37     535.00
105.47     573.89
105.57     572.00
105.67     540.00
105.77     603.00
105.87     539.50
105.97     563.00
106.07     590.00
106.17     573.00
106.27     588.00
106.37     605.00
106.47     611.07
106.57     592.90
106.67     643.00
106.77     681.96
106.87     654.00
106.97     653.00
107.07     696.45
107.17     674.00
107.27     677.91
107.37     665.00
107.47     652.45
107.57     728.98
107.67     679.00
107.77     712.00
107.87     703.00
107.97     710.00
108.07     735.08
108.17     739.85
108.27     716.00
108.37     716.09
108.47     720.00
108.57     676.00
108.67     714.00
108.77     648.80
108.87     720.00
108.97     661.00
109.07     667.00
109.17     602.00
109.27     615.60
109.37     680.00
109.47     639.00
109.57     614.00
109.67     626.14
109.77     632.00
109.87     610.93
109.97     593.67
110.07     597.00
110.17     539.13
110.27     534.72
110.37     559.00
110.47     562.26
110.57     560.00
110.67     527.00
110.77     504.14
110.87     522.28
110.97     533.00
111.07     550.08
111.17     578.00
111.27     572.00
111.37     503.00
111.47     529.00
111.57     513.30
111.67     567.00
111.77     577.66
111.87     523.00
111.97     531.56
112.07     545.00
112.17     577.54
112.27     585.00
112.37     520.00
112.47     562.00
112.57     662.00
112.67     558.00
112.77     575.00
112.87     592.00
112.97     613.89
113.07     581.00
113.17     667.00
113.27     612.00
113.37     662.39
113.47     759.24
113.57     750.00
113.67     797.33
113.77     756.00
113.87     812.26
113.97     833.17
114.07     892.42
114.17     912.00
114.27    1011.00
114.37    1110.33
114.47    1235.33
114.57    1359.37
114.67    1481.00
114.77    1629.21
114.87    1834.00
114.97    2071.00
115.07    2203.00
115.17    2558.00
115.27    2801.00
115.37    2911.48
115.47    3277.00
115.57    3749.00
115.67    4057.00
115.77    4425.00
115.87    4737.00
115.97    5118.00
116.07    5571.00
116.17    5793.36
116.27    6346.00
116.37    6431.00
116.47    6632.00
116.57    6716.00
116.67    6886.00
116.77    6900.00
116.87    6827.00
116.97    6476.00
117.07    6458.00
117.17    6213.13
117.27    5565.00
117.37    5218.00
117.47    5080.21
117.57    4630.00
117.67    4441.52
117.77    3924.00
117.87    3656.40
117.97    3328.44
118.07    2980.00
118.17    2583.28
118.27    2284.00
118.37    2073.00
118.47    1869.00
118.57    1585.00
118.67    1477.09
118.77    1396.93
118.87    1205.00
118.97    1004.00
119.07     992.03
119.17     893.00
119.27     843.00
119.37     781.66
119.47     805.26
119.57     705.33
119.67     761.00
119.77     721.49
119.87     638.00
119.97     599.00
120.07     627.00
120.17     608.74
120.27     618.95
120.37     556.00
120.47     638.00
120.57     564.00
120.67     549.98
120.77     580.07
120.87     581.00
120.97     572.00
121.07     557.00
121.17     579.00
121.27     571.52
121.37     600.88
121.47     575.00
121.57     549.00
121.67     549.00
121.77     588.00
121.87     564.00
121.97     577.66
122.07     655.00
122.17     631.82
122.27     577.12
122.37     652.00
122.47     649.11
122.57     650.08
122.67     645.00
122.77     604.00
122.87     669.00
122.97     631.00
123.07     599.81
123.17     643.00
123.27     662.00
123.37     655.00
123.47     655.00
123.57     621.00
123.67     625.00
123.77     600.16
123.87     665.00
123.97     600.00
124.07     650.00
124.17     618.00
124.27     598.00
124.37     592.73
124.47     634.62
124.57     594.00
124.67     574.92
124.77     563.00
124.87     624.20
124.97     591.00
