  9.97     628.00
 10.07     521.34
 10.17     599.38
 10.27     592.12
 10.37     537.26
 10.47     506.77
 10.57     603.29
 10.67     603.00
 10.77     575.00
 10.87     627.00
 10.97     577.00
 11.07     569.00
 11.17     535.55
 11.27     535.00
 11.37     587.00
 11.47     592.73
 11.57     575.00
 11.67     585.90
 11.77     654.00
 11.87     610.00
 11.97     672.00
 12.07     679.97
 12.17     640.00
 12.27     715.00
 12.37     638.00
 12.47     601.00
 12.57     589.00
 12.67     560.57
 12.77     593.00
 12.87     573.68
 12.97     598.97
 13.07     547.00
 13.17     597.62
 13.27     573.00
 13.37     563.24
 13.47     554.64
 13.57     538.00
 13.67     567.55
 13.77     549.34
 13.87     563.00
 13.97     558.00
 14.07     534.23
 14.17     517.00
 14.27     593.27
 14.37     506.00
 14.47     559.00
 14.57     529.00
 14.67     562.00
 14.77     522.04
 14.87     563.00
 14.97     572.01
 15.07     594.29
 15.17     592.14
 15.27     536.00
 15.37     591.00
 15.47     583.00
 15.57     504.00
 15.67     589.43
 15.77     529.00
 15.87     601.40
 15.97     500.00
 16.07     556.10
 16.17     569.97
 16.27     567.00
 16.37     557.00
 16.47     544.36
 16.57     565.82
 16.67     531.00
 16.77     555.00
 16.87     573.00
 16.97     529.86
 17.07     558.00
 17.17     572.00
 17.27     544.00
 17.37     576.72
 17.47     513.00
 17.57     525.00
 17.67     586.00
 17.77     551.84
 17.87     565.92
 17.97     531.64
 18.07     522.00
 18.17     540.20
 18.27     524.00
 18.37     585.03
 18.47     510.00
 18.57     606.57
 18.67     594.23
 18.77     551.00
 18.87     543.00
 18.97     590.00
 19.07     533.00
 19.17     518.00
 19.27     529.00
 19.37     605.26
 19.47     525.00
 19.57     506.00
 19.67     552.00
 19.77     553.92
 19.87     537.00
 19.97     544.00
 20.07     514.15
 20.17     564.00
 20.27     588.15
 20.37     541.00
 20.47     603.12
 20.57     541.00
 20.67     540.26
 20.77     562.69
 20.87     568.00
 20.97     571.00
 21.07     562.00
 21.17     519.00
 21.27     571.00
 21.37     517.25
 21.47     554.00
 21.57     539.80
 21.67     573.00
 21.77     534.45
 21.87     594.97
 21.97     547.00
 22.07     572.00
 22.17     536.00
 22.27     553.08
 22.37     536.00
 22.47     566.00
 22.57     542.06
 22.67     584.71
 22.77     544.00
 22.87     583.00
 22.97     541.62
 23.07     521.00
 23.17     556.00
 23.27     538.95
 23.37     524.59
 23.47     542.51
 23.57     512.30
 23.67     577.49
 23.77     519.54
 23.87     578.88
 23.97     506.23
 24.07     570.29
 24.17     549.00
 24.27     558.79
 24.37     568.00
 24.47     587.00
 24.57     618.00
 24.67     561.52
 24.77     618.00
 24.87     587.89
 24.97     627.00
 25.07     607.00
 25.17     626.92
 25.27     611.32
 25.37     564.00
 25.47     581.00
 25.57     528.21
 25.67     569.00
 25.77     568.00
 25.87     582.11
 25.97     585.00
 26.07     574.00
 26.17     602.00
 26.27     539.00
 26.37     551.00
 26.47     570.00
 26.57     567.00
 26.67     571.00
 26.77     568.00
 26.87     529.17
 26.97     584.08
 27.07     576.00
 27.17     568.62
 27.27     549.00
 27.37     590.00
 27.47     556.00
 27.57     584.00
 27.67     609.00
 27.77     581.00
 27.87     626.13
 27.97     661.00
 28.07     685.00
 28.17     782.00
 28.27     955.00
 28.37     974.00
 28.47     885.00
 28.57     805.00
 28.67     684.74
 28.77     762.55
 28.87     779.00
 28.97     796.30
 29.07     847.00
 29.17     728.18
 29.27     688.00
 29.37     674.93
 29.47     627.57
 29.57     588.00
 29.67     584.00
 29.77     585.17
 29.87     578.00
 29.97     553.66
 30.07     604.00
 30.17     566.00
 30.27     520.77
 30.37     566.00
 30.47     561.00
 30.57     600.00
 30.67     601.00
 30.77     604.00
 30.87     607.00
 30.97     601.00
 31.07     553.25
 31.17     547.42
 31.27     605.00
 31.37     589.00
 31.47     529.00
 31.57     556.82
 31.67     545.00
 31.77     557.00
 31.87     510.52
 31.97     517.00
 32.07     552.00
 32.17     553.00
 32.27     514.00
 32.37     526.00
 32.47     538.00
 32.57     552.46
 32.67     554.00
 32.77     507.14
 32.87     492.00
 32.97     577.00
 33.07     525.19
 33.17     532.64
 33.27     531.00
 33.37     540.15
 33.47     590.00
 33.57     575.34
 33.67     588.00
 33.77     655.00
 33.87     793.00
 33.97     860.00
 34.07    1004.00
 34.17    1030.00
 34.27     956.00
 34.37     878.00
 34.47     735.00
 34.57     647.89
 34.67     575.00
 34.77     561.00
 34.87     591.49
 34.97     571.09
 35.07     539.00
 35.17     521.38
 35.27     528.00
 35.37     522.00
 35.47     503.73
 35.57     493.94
 35.67     512.00
 35.77     529.00
 35.87     551.00
 35.97     496.24
 36.07     542.00
 36.17     515.00
 36.27     536.00
 36.37     498.00
 36.47     511.00
 36.57     476.06
 36.67     471.67
 36.77     506.00
 36.87     489.84
 36.97     482.00
 37.07     493.39
 37.17     533.34
 37.27     513.00
 37.37     503.75
 37.47     524.00
 37.57     532.00
 37.67     507.00
 37.77     557.45
 37.87     509.00
 37.97     483.00
 38.07     527.00
 38.17     552.22
 38.27     527.00
 38.37     470.00
 38.47     490.00
 38.57     454.00
 38.67     481.00
 38.77     503.00
 38.87     486.00
 38.97     468.00
 39.07     497.00
 39.17     546.31
 39.27     468.91
 39.37     496.00
 39.47     503.00
 39.57     483.00
 39.67     497.85
 39.77     496.00
 39.87     528.48
 39.97     522.00
 40.07     515.04
 40.17     464.00
 40.27     453.00
 40.37     448.00
 40.47     484.00
 40.57     434.00
 40.67     511.63
 40.77     508.00
 40.87     464.10
 40.97     515.05
 41.07     511.91
 41.17     497.00
 41.27     451.00
 41.37     500.00
 41.47     498.07
 41.57     493.00
 41.67     470.00
 41.77     497.00
 41.87     536.70
 41.97     463.00
 42.07     491.00
 42.17     521.00
 42.27     493.00
 42.37     525.00
 42.47     528.00
 42.57     575.00
 42.67     573.68
 42.77     623.51
 42.87     568.00
 42.97     636.41
 43.07     605.44
 43.17     535.00
 43.27     532.95
 43.37     558.00
 43.47     446.00
 43.57     509.00
 43.67     534.00
 43.77     511.00
 43.87     494.00
 43.97     470.00
 44.07     453.12
 44.17     509.88
 44.27     530.59
 44.37     468.58
 44.47     502.00
 44.57     476.00
 44.67     437.00
 44.77     457.13
 44.87     510.00
 44.97     493.00
 45.07     503.00
 45.17     499.00
 45.27     508.00
 45.37     497.00
 45.47     461.00
 45.57     511.53
 45.67     533.00
 45.77     520.50
 45.87     475.00
 45.97     504.00
 46.07     501.00
 46.17     503.00
 46.27     514.00
 46.37     496.29
 46.47     482.35
 46.57     476.00
 46.67     482.00
 46.77     514.00
 46.87     529.00
 46.97     502.00
 47.07     469.36
 47.17     507.00
 47.27     473.72
 47.37     488.20
 47.47     522.52
 47.57     510.00
 47.67     579.00
 47.77     575.69
 47.87     575.00
 47.97     550.00
 48.07     559.00
 48.17     546.00
 48.27     536.76
 48.37     540.15
 48.47     552.00
 48.57     523.00
 48.67     506.00
 48.77     490.00
 48.87     540.00
 48.97     573.83
 49.07     520.96
 49.17     575.93
 49.27     603.00
 49.37     569.00
 49.47     577.00
 49.57     608.00
 49.67     709.24
 49.77     857.11
 49.87    1028.00
 49.97    1406.00
 50.07    1782.00
 50.17    2199.29
 50.27    2306.00
 50.37    2269.00
 50.47    2187.00
 50.57    1836.00
 50.67    1530.94
 50.77    1122.00
 50.87     854.00
 50.97     767.00
 51.07     708.00
 51.17     655.00
 51.27     588.39
 51.37     597.00
 51.47     583.00
 51.57     550.00
 51.67     605.15
 51.77     562.00
 51.87     532.00
 51.97     609.00
 52.07     562.00
 52.17     604.00
 52.27     579.00
 52.37     543.00
 52.47     502.82
 52.57     591.00
 52.67     548.00
 52.77     606.00
 52.87     598.00
 52.97     641.34
 53.07     679.21
 53.17     766.13
 53.27     877.75
 53.37     946.00
 53.47    1031.55
 53.57    1122.00
 53.67    1135.40
 53.77    1126.00
 53.87    1113.93
 53.97     886.00
 54.07     803.80
 54.17     759.34
 54.27     640.62
 54.37     622.00
 54.47     572.00
 54.57     595.09
 54.67     570.67
 54.77     599.00
 54.87     534.68
 54.97     513.95
 55.07     553.00
 55.17     597.48
 55.27     567.00
 55.37     548.00
 55.47     572.54
 55.57     569.47
 55.67     606.00
 55.77     564.00
 55.87     598.00
 55.97     639.91
 56.07     605.00
 56.17     662.00
 56.27     793.00
 56.37     941.47
 56.47    1177.87
 56.57    1342.32
 56.67    1642.00
 56.77    1943.00
 56.87    2342.49
 56.97    2479.78
 57.07    2527.56
 57.17    2287.44
 57.27    2117.00
 57.37    1799.26
 57.47    1512.00
 57.57    1159.38
 57.67    1034.49
 57.77     811.66
 57.87     815.32
 57.97     721.00
 58.07     696.00
 58.17     694.00
 58.27     708.00
 58.37     741.00
 58.47     782.98
 58.57     858.00
 58.67     989.00
 58.77    1005.00
 58.87    1127.00
 58.97    1196.00
 59.07    1236.00
 59.17    1356.00
 59.27    1292.00
 59.37    1266.00
 59.47    1182.21
 59.57    1244.00
 59.67    1186.16
 59.77    1059.94
 59.87    1161.00
 59.97    1203.00
 60.07    1408.00
 60.17    1402.00
 60.27    1497.00
 60.37    1487.00
 60.47    1535.76
 60.57    1401.00
 60.67    1359.00
 60.77    1176.00
 60.87     969.00
 60.97     857.00
 61.07     761.00
 61.17     714.45
 61.27     625.88
 61.37     679.00
 61.47     710.00
 61.57     701.00
 61.67     742.00
 61.77     859.00
 61.87     973.00
 61.97    1040.00
 62.07    1125.00
 62.17    1278.00
 62.27    1268.00
 62.37    1376.00
 62.47    1327.53
 62.57    1170.00
 62.67    1135.00
 62.77     947.37
 62.87     841.00
 62.97     747.94
 63.07     675.41
 63.17     678.62
 63.27     638.00
 63.37     597.36
 63.47     610.00
 63.57     522.33
 63.67     614.00
 63.77     562.00
 63.87     589.00
 63.97     602.00
 64.07     656.00
 64.17     678.00
 64.27     750.00
 64.37     772.00
 64.47     840.00
 64.57     931.12
 64.67     981.00
 64.77     990.00
 64.87     944.21
 64.97     954.00
 65.07     923.43
 65.17     880.00
 65.27     807.00
 65.37     802.00
 65.47     765.00
 65.57     644.00
 65.67     645.00
 65.77     613.00
 65.87     604.00
 65.97     613.07
 66.07     623.94
 66.17     569.00
 66.27     542.11
 66.37     605.41
 66.47     527.00
 66.57     566.00
 66.67     588.00
 66.77     596.42
 66.87     623.55
 66.97     557.00
 67.07     652.00
 67.17     651.00
 67.27     623.00
 67.37     770.00
 67.47     816.40
 67.57    1009.42
 67.67    1139.00
 67.77    1363.07
 67.87    1620.00
 67.97    1875.86
 68.07    2040.60
 68.17    2207.49
 68.27    2418.00
 68.37    2260.00
 68.47    2242.00
 68.57    1998.00
 68.67    1777.00
 68.77    1465.48
 68.87    1237.36
 68.97    1066.00
 69.07     905.00
 69.17     819.00
 69.27     709.00
 69.37     669.76
 69.47     635.00
 69.57     655.29
 69.67     603.00
 69.77     589.03
 69.87     600.00
 69.97     558.00
 70.07     543.48
 70.17     596.00
 70.27     578.25
 70.37     602.00
 70.47     583.00
 70.57     572.00
 70.67     540.77
 70.77     632.00
 70.87     547.00
 70.97     613.00
 71.07     582.00
 71.17     669.00
 71.27     751.00
 71.37     857.68
 71.47     904.00
 71.57    1081.39
 71.67    1079.00
 71.77    1350.00
 71.87    1490.11
 71.97    1584.78
 72.07    1759.00
 72.17    1868.00
 72.27    1817.09
 72.37    1854.00
 72.47    1629.05
 72.57    1592.00
 72.67    1513.00
 72.77    1284.00
 72.87    1050.11
 72.97     966.00
 73.07     878.97
 73.17     839.45
 73.27     731.00
 73.37     701.00
 73.47     656.00
 73.57     678.67
 73.67     627.49
 73.77     642.22
 73.87     613.00
 73.97     573.90
 74.07     587.28
 74.17     605.00
 74.27     601.00
 74.37     602.00
 74.47     579.96
 74.57     579.00
 74.67     637.00
 74.77     622.49
 74.87     599.97
 74.97     524.80
 75.07     606.00
 75.17     662.00
 75.27     595.74
 75.37     562.00
 75.47     549.00
 75.57     571.00
 75.67     566.00
 75.77     571.00
 75.87     555.00
 75.97     563.00
 76.07     545.25
 76.17     593.00
 76.27     626.00
 76.37     656.00
 76.47     713.27
 76.57     693.44
 76.67     665.00
 76.77     733.04
 76.87     731.00
 76.97     703.00
 77.07     657.00
 77.17     649.00
 77.27     658.37
 77.37     599.00
 77.47     608.14
 77.57     572.79
 77.67     588.00
 77.77     501.10
 77.87     519.00
 77.97     513.00
 78.07     540.00
 78.17     561.10
 78.27     520.00
 78.37     526.00
 78.47     510.83
 78.57     550.26
 78.67     511.00
 78.77     532.00
 78.87     491.00
 78.97     508.00
 79.07     493.00
 79.17     488.09
 79.27     532.62
 79.37     536.00
 79.47     519.00
 79.57     508.00
 79.67     526.00
 79.77     539.00
 79.87     530.00
 79.97     565.92
 80.07     548.00
 80.17     558.46
 80.27     524.15
 80.37     569.00
 80.47     563.00
 80.57     527.00
 80.67     571.00
 80.77     561.80
 80.87     651.00
 80.97     583.00
 81.07     620.00
 81.17     680.84
 81.27     665.00
 81.37     696.00
 81.47     698.66
 81.57     700.00
 81.67     720.18
 81.77     754.18
 81.87     718.00
 81.97     742.06
 82.07     668.00
 82.17     672.00
 82.27     686.97
 82.37     680.00
 82.47     610.11
 82.57     588.95
 82.67     658.00
 82.77     555.00
 82.87     537.00
 82.97     591.00
 83.07     543.00
 83.17     561.00
 83.27     583.81
 83.37     562.55
 83.47     512.00
 83.57     527.11
 83.67     519.00
 83.77     520.00
 83.87     543.00
 83.97     591.94
 84.07     590.68
 84.17     562.57
 84.27     589.00
 84.37     538.00
 84.47     547.00
 84.57     539.00
 84.67     550.75
 84.77     573.00
 84.87     500.00
 84.97     490.61
 85.07     525.78
 85.17     520.00
 85.27     471.21
 85.37     469.00
 85.47     484.00
 85.57     500.61
 85.67     498.00
 85.77     514.00
 85.87     535.57
 85.97     511.00
 86.07     509.00
 86.17     492.00
 86.27     540.00
 86.37     520.00
 86.47     512.00
 86.57     555.00
 86.67     568.00
 86.77     490.00
 86.87     573.27
 86.97     553.00
 87.07     544.00
 87.17     563.00
 87.27     538.00
 87.37     584.00
 87.47     613.00
 87.57     634.00
 87.67     640.01
 87.77     566.97
 87.87     624.01
 87.97     669.00
 88.07     609.82
 88.17     673.00
 88.27     602.00
 88.37     580.00
 88.47     553.00
 88.57     585.00
 88.67     561.00
 88.77     580.16
 88.87     601.00
 88.97     567.00
 89.07     607.00
 89.17     546.00
 89.27     552.71
 89.37     587.00
 89.47     600.00
 89.57     614.00
 89.67     623.00
 89.77     562.00
 89.87     550.52
 89.97     587.00
 90.07     588.00
 90.17     550.00
 90.27     559.72
 90.37     563.47
 90.47     518.47
 90.57     482.00
 90.67     512.00
 90.77     461.00
 90.87     554.19
 90.97     485.14
 91.07     483.65
 91.17     534.93
 91.27     472.14
 91.37     527.00
 91.47     525.57
 91.57     555.44
 91.67     523.22
 91.77     493.00
 91.87     509.00
 91.97     514.00
 92.07     493.00
 92.17     516.00
 92.27     508.00
 92.37     534.00
 92.47     559.23
 92.57     541.29
 92.67     612.00
 92.77     577.00
 92.87     614.00
 92.97     627.00
 93.07     619.52
 93.17     658.35
 93.27     686.00
 93.37     725.00
 93.47     679.00
 93.57     782.00
 93.67     763.15
 93.77     794.08
 93.87     747.53
 93.97     830.00
 94.07     788.98
 94.17     873.00
 94.27     830.41
 94.37     852.00
 94.47     895.52
 94.57     859.97
 94.67     860.00
 94.77     858.00
 94.87     902.00
 94.97     812.66
 95.07     938.00
 95.17     926.25
 95.27     823.16
 95.37     868.00
 95.47     832.00
 95.57     815.35
 95.67     819.69
 95.77     801.00
 95.87     750.00
 95.97     727.00
 96.07     701.00
 96.17     703.00
 96.27     677.00
 96.37     695.65
 96.47     764.33
 96.57     725.81
 96.67     753.79
 96.77     833.00
 96.87     897.59
 96.97     893.93
 97.07     988.00
 97.17    1121.00
 97.27    1060.00
 97.37    1191.00
 97.47    1273.70
 97.57    1331.00
 97.67    1389.00
 97.77    1396.00
 97.87    1466.00
 97.97    1374.77
 98.07    1413.00
 98.17    1312.00
 98.27    1203.00
 98.37    1241.00
 98.47    1220.00
 98.57    1063.00
 98.67     990.78
 98.77    1027.00
 98.87    1004.18
 98.97     916.02
 99.07     909.72
 99.17     825.06
 99.27     830.00
 99.37     848.00
 99.47     868.36
 99.57     952.00
 99.67    1021.47
 99.77    1008.76
 99.87    1152.00
 99.97    1208.00
100.07    1330.00
100.17    1400.63
100.27    1539.00
100.37    1525.00
100.47    1752.00
100.57    1708.85
100.67    1914.00
100.77    1944.71
100.87    1923.00
100.97    1947.00
101.07    2048.52
101.17    1962.00
101.27    2025.00
101.37    1902.00
101.47    1840.00
101.57    1751.00
101.67    1714.00
101.77    1685.00
101.87    1523.66
101.97    1433.78
102.07    1420.00
102.17    1362.00
102.27    1289.00
102.37    1220.89
102.47    1183.88
102.57    1213.90
102.67    1144.00
102.77    1125.00
102.87    1173.00
102.97    1051.00
103.07    1041.00
103.17    1039.00
103.27     966.54
103.37     927.83
103.47     913.00
103.57     915.00
103.67     797.00
103.77     844.70
103.87     729.52
103.97     766.00
104.07     675.52
104.17     626.41
104.27     637.00
104.37     656.84
104.47     617.00
104.57     581.00
104.67     559.43
104.77     510.96
104.87     563.82
104.97     571.00
105.07     567.00
105.17     510.63
105.27     502.36
105.37     601.00
105.47     529.00
105.57     551.07
105.67     552.00
105.77     529.00
105.87     522.00
105.97     552.00
106.07     511.93
106.17     529.51
106.27     500.42
106.37     578.90
106.47     586.99
106.57     572.50
106.67     569.80
106.77     588.56
106.87     655.54
106.97     606.91
107.07     635.63
107.17     614.00
107.27     661.00
107.37     643.00
107.47     721.36
107.57     680.00
107.67     645.00
107.77     672.31
107.87     708.44
107.97     639.00
108.07     650.00
108.17     682.00
108.27     653.36
108.37     715.09
108.47     676.00
108.57     673.00
108.67     669.00
108.77     668.00
108.87     686.60
108.97     681.00
109.07     642.95
109.17     705.00
109.27     666.56
109.37     672.00
109.47     696.00
109.57     666.00
109.67     700.00
109.77     660.95
109.87     680.00
109.97     598.13
110.07     636.00
110.17     585.04
110.27     578.89
110.37     588.00
110.47     602.81
110.57     585.00
110.67     618.00
110.77     583.00
110.87     549.62
110.97     517.90
111.07     563.70
111.17     530.79
111.27     566.00
111.37     561.00
111.47     522.00
111.57     555.99
111.67     492.09
111.77     579.00
111.87     509.32
111.97     550.00
112.07     572.40
112.17     586.00
112.27     539.00
112.37     549.00
112.47     563.82
112.57     598.00
112.67     601.80
112.77     599.00
112.87     589.00
112.97     566.56
113.07     606.00
113.17     565.00
113.27     580.00
113.37     626.00
113.47     571.00
113.57     600.00
113.67     629.00
113.77     719.45
113.87     663.00
113.97     730.28
114.07     771.53
114.17     804.14
114.27     777.00
114.37     882.64
114.47     909.00
114.57     962.38
114.67    1056.00
114.77    1120.00
114.87    1295.39
114.97    1418.00
115.07    1639.47
115.17    1826.00
115.27    1935.00
115.37    2297.00
115.47    2482.88
115.57    2881.00
115.67    3049.11
115.77    3431.00
115.87    3789.00
115.97    4053.00
116.07    4410.00
116.17    4788.00
116.27    5024.00
116.37    5413.00
116.47    5933.00
116.57    6106.32
116.67    6502.00
116.77    6624.23
116.87    6917.84
116.97    6972.00
117.07    6828.00
117.17    6788.00
117.27    6775.24
117.37    6446.48
117.47    6313.00
117.57    6027.00
117.67    5711.20
117.77    5278.00
117.87    4787.00
117.97    4642.00
118.07    4409.83
118.17    4084.00
118.27    3696.00
118.37    3296.00
118.47    2998.00
118.57    2649.00
118.67    2449.00
118.77    2071.00
118.87    1866.00
118.97    1707.72
119.07    1470.66
119.17    1357.00
119.27    1231.00
119.37    1199.00
119.47    1070.00
119.57     955.93
119.67     937.00
119.77     807.00
119.87     790.00
119.97     790.00
120.07     691.53
120.17     704.81
120.27     645.00
120.37     627.00
120.47     619.79
120.57     663.97
120.67     601.00
120.77     588.00
120.87     546.13
120.97     607.34
121.07     539.00
121.17     559.58
121.27     613.17
121.37     606.95
121.47     556.00
121.57     543.00
121.67     581.00
121.77     529.17
121.87     622.00
121.97     532.00
122.07     569.00
122.17     621.30
122.27     583.00
122.37     609.00
122.47     599.00
122.57     629.00
122.67     653.91
122.77     581.00
122.87     666.00
122.97     652.53
123.07     606.00
123.17     691.00
123.27     589.00
123.37     654.07
123.47     613.91
123.57     640.00
123.67     593.47
123.77     596.66
123.87     611.00
123.97     585.90
124.07     612.00
124.17     621.00
124.27     652.00
124.37     602.00
124.47     668.00
124.57     611.00
124.67     555.02
124.77     575.00
124.87     566.00
124.97     575.00
