  9.97     605.42
 10.07     604.00
 10.17     607.00
 10.27     578.00
 10.37     634.00
 10.47     568.14
 10.57     600.00
 10.67     545.03
 10.77     628.00
 10.87     580.00
 10.97     610.00
 11.07     578.20
 11.17     585.00
 11.27     533.08
 11.37     555.00
 11.47     543.69
 11.57     615.61
 11.67     625.00
 11.77     596.73
 11.87     643.00
 11.97     682.00
 12.07     663.62
 12.17     697.00
 12.27     685.00
 12.37     653.90
 12.47     614.00
 12.57     636.51
 12.67     581.00
 12.77     625.51
 12.87     607.00
 12.97     555.00
 13.07     592.00
 13.17     558.94
 13.27     583.96
 13.37     537.00
 13.47     549.00
 13.57     533.00
 13.67     566.00
 13.77     554.00
 13.87     533.35
 13.97     557.00
 14.07     598.64
 14.17     579.00
 14.27     546.00
 14.37     579.00
 14.47     560.00
 14.57     548.00
 14.67     569.00
 14.77     593.51
 14.87     534.18
 14.97     550.97
 15.07     525.00
 15.17     604.41
 15.27     542.00
 15.37     543.00
 15.47     589.00
 15.57     595.00
 15.67     559.00
 15.77     534.88
 15.87     563.00
 15.97     598.00
 16.07     558.13
 16.17     584.74
 16.27     560.97
 16.37     582.75
 16.47     525.00
 16.57     536.00
 16.67     566.00
 16.77     588.00
 16.87     587.28
 16.97     534.89
 17.07     538.00
 17.17     547.00
 17.27     546.94
 17.37     580.29
 17.47     566.00
 17.57     595.74
 17.67     569.00
 17.77     574.00
 17.87     574.00
 17.97     563.64
 18.07     529.37
 18.17     534.95
 18.27     549.00
 18.37     520.03
 18.47     553.00
 18.57     543.00
 18.67     566.00
 18.77     551.00
 18.87     521.00
 18.97     562.75
 19.07     589.00
 19.17     556.51
 19.27     601.00
 19.37     554.00
 19.47     539.00
 19.57     550.00
 19.67     551.00
 19.77     544.00
 19.87     585.00
 19.97     552.00
 20.07     573.00
 20.17     553.00
 20.27     571.00
 20.37     533.80
 20.47     543.00
 20.57     590.00
 20.67     520.00
 20.77     555.00
 20.87     570.00
 20.97     588.11
 21.07     537.00
 21.17     538.00
 21.27     555.00
 21.37     504.00
 21.47     560.81
 21.57     523.00
 21.67     542.00
 21.77     545.00
 21.87     553.00
 21.97     545.93
 22.07     529.35
 22.17     584.26
 22.27     513.00
 22.37     564.00
 22.47     529.78
 22.57     561.31
 22.67     564.00
 22.77     568.97
 22.87     552.74
 22.97     563.42
 23.07     537.00
 23.17     538.79
 23.27     535.00
 23.37     535.51
 23.47     553.00
 23.57     507.63
 23.67     590.10
 23.77     570.59
 23.87     547.00
 23.97     545.82
 24.07     542.87
 24.17     536.00
 24.27     564.00
 24.37     557.00
 24.47     563.00
 24.57     628.91
 24.67     661.33
 24.77     653.00
 24.87     647.02
 24.97     587.43
 25.07     626.00
 25.17     545.04
 25.27     557.00
 25.37     511.63
 25.47     566.00
 25.57     543.00
 25.67     506.32
 25.77     557.63
 25.87     519.63
 25.97     563.00
 26.07     540.00
 26.17     532.00
 26.27     565.00
 26.37     519.00
 26.47     545.00
 26.57     563.99
 26.67     545.00
 26.77     543.00
 26.87     594.00
 26.97     589.00
 27.07     576.00
 27.17     516.00
 27.27     563.00
 27.37     534.91
 27.47     548.00
 27.57     553.00
 27.67     557.00
 27.77     552.00
 27.87     637.50
 27.97     679.00
 28.07     798.00
 28.17     909.00
 28.27     879.00
 28.37     876.00
 28.47     810.00
 28.57     704.00
 28.67     729.00
 28.77     748.16
 28.87     830.00
 28.97     825.00
 29.07     761.00
 29.17     719.35
 29.27     663.00
 29.37     566.20
 29.47     573.84
 29.57     597.00
 29.67     608.00
 29.77     565.00
 29.87     548.18
 29.97     568.29
 30.07     563.00
 30.17     591.00
 30.27     584.00
 30.37     543.00
 30.47     546.95
 30.57     566.00
 30.67     535.28
 30.77     640.00
 30.87     606.00
 30.97     613.00
 31.07     633.00
 31.17     562.73
 31.27     547.00
 31.37     575.00
 31.47     532.56
 31.57     546.00
 31.67     562.00
 31.77     546.49
 31.87     572.00
 31.97     548.00
 32.07     557.00
 32.17     499.94
 32.27     537.00
 32.37     504.28
 32.47     508.00
 32.57     554.00
 32.67     523.56
 32.77     562.00
 32.87     539.00
 32.97     577.00
 33.07     524.00
 33.17     552.00
 33.27     530.86
 33.37     538.00
 33.47     577.00
 33.57     609.00
 33.67     631.00
 33.77     687.17
 33.87     840.98
 33.97     971.22
 34.07    1029.54
 34.17    1015.00
 34.27     866.00
 34.37     791.44
 34.47     639.00
 34.57     561.00
 34.67     561.00
 34.77     526.00
 34.87     529.51
 34.97     539.00
 35.07     539.00
 35.17     491.45
 35.27     489.82
 35.37     531.00
 35.47     534.00
 35.57     480.86
 35.67     523.67
 35.77     508.00
 35.87     533.00
 35.97     477.68
 36.07     510.00
 36.17     548.86
 36.27     500.00
 36.37     540.39
 36.47     481.00
 36.57     503.00
 36.67     500.01
 36.77     500.00
 36.87     502.00
 36.97     493.00
 37.07     549.00
 37.17     490.00
 37.27     568.00
 37.37     578.00
 37.47     506.94
 37.57     537.00
 37.67     520.42
 37.77     478.00
 37.87     507.36
 37.97     518.00
 38.07     497.00
 38.17     494.11
 38.27     486.00
 38.37     511.00
 38.47     496.54
 38.57     476.06
 38.67     480.56
 38.77     551.03
 38.87     529.00
 38.97     485.00
 39.07     455.00
 39.17     506.00
 39.27     519.00
 39.37     486.29
 39.47     544.01
 39.57     500.90
 39.67     524.00
 39.77     516.00
 39.87     509.00
 39.97     514.00
 40.07     472.08
 40.17     499.00
 40.27     473.00
 40.37     486.00
 40.47     510.00
 40.57     515.00
 40.67     513.00
 40.77     496.83
 40.87     512.00
 40.97     529.14
 41.07     518.49
 41.17     511.00
 41.27     498.00
 41.37     516.00
 41.47     494.00
 41.57     506.00
 41.67     518.00
 41.77     504.00
 41.87     497.00
 41.97     539.96
 42.07     476.93
 42.17     519.77
 42.27     498.69
 42.37     524.00
 42.47     561.00
 42.57     589.00
 42.67     619.00
 42.77     590.47
 42.87     579.00
 42.97     609.45
 43.07     562.55
 43.17     518.00
 43.27     536.72
 43.37     510.00
 43.47     545.01
 43.57     516.00
 43.67     514.00
 43.77     491.01
 43.87     546.31
 43.97     515.25
 44.07     509.00
 44.17     534.30
 44.27     504.00
 44.37     463.00
 44.47     512.00
 44.57     534.12
 44.67     477.00
 44.77     473.75
 44.87     522.00
 44.97     523.00
 45.07     507.00
 45.17     496.80
 45.27     530.00
 45.37     504.43
 45.47     486.00
 45.57     493.00
 45.67     542.00
 45.77     535.90
 45.87     486.00
 45.97     464.00
 46.07     523.16
 46.17     490.00
 46.27     525.00
 46.37     521.39
 46.47     495.00
 46.57     525.00
 46.67     502.00
 46.77     499.35
 46.87     545.85
 46.97     527.00
 47.07     514.00
 47.17     487.00
 47.27     571.00
 47.37     539.57
 47.47     499.00
 47.57     559.00
 47.67     638.00
 47.77     590.00
 47.87     617.00
 47.97     598.00
 48.07     550.78
 48.17     586.86
 48.27     592.00
 48.37     509.00
 48.47     532.00
 48.57     539.00
 48.67     548.00
 48.77     553.25
 48.87     527.00
 48.97     543.00
 49.07     545.00
 49.17     604.00
 49.27     574.00
 49.37     616.00
 49.47     708.57
 49.57     823.00
 49.67     872.00
 49.77    1098.00
 49.87    1496.00
 49.97    1904.11
 50.07    2262.69
 50.17    2477.04
 50.27    2418.00
 50.37    2231.00
 50.47    1898.55
 50.57    1449.00
 50.67    1060.00
 50.77     793.00
 50.87     708.00
 50.97     707.78
 51.07     670.00
 51.17     622.00
 51.27     624.00
 51.37     590.00
 51.47     589.00
 51.57     571.00
 51.67     578.00
 51.77     547.00
 51.87     556.00
 51.97     566.00
 52.07     563.00
 52.17     542.04
 52.27     560.68
 52.37     553.00
 52.47     533.00
 52.57     567.32
 52.67     642.00
 52.77     612.00
 52.87     630.11
 52.97     686.00
 53.07     872.00
 53.17     940.00
 53.27    1058.00
 53.37    1109.30
 53.47    1201.00
 53.57    1224.00
 53.67    1135.34
 53.77    1012.00
 53.87     861.89
 53.97     812.39
 54.07     633.00
 54.17     627.00
 54.27     602.00
 54.37     572.00
 54.47     567.00
 54.57     556.00
 54.67     547.92
 54.77     578.00
 54.87     578.00
 54.97     514.20
 55.07     579.00
 55.17     605.00
 55.27     545.83
 55.37     592.00
 55.47     576.00
 55.57     578.46
 55.67     580.00
 55.77     617.34
 55.87     593.00
 55.97     622.00
 56.07     645.76
 56.17     734.00
 56.27     864.00
 56.37    1132.36
 56.47    1422.00
 56.57    1794.53
 56.67    2146.47
 56.77    2466.00
 56.87    2696.00
 56.97    2580.00
 57.07    2459.53
 57.17    2063.00
 57.27    1623.37
 57.37    1326.02
 57.47    1029.00
 57.57     881.00
 57.67     775.79
 57.77     645.29
 57.87     616.72
 57.97     659.00
 58.07     706.00
 58.17     668.43
 58.27     768.23
 58.37     836.00
 58.47     907.00
 58.57    1023.00
 58.67    1131.16
 58.77    1325.00
 58.87    1398.39
 58.97    1491.00
 59.07    1532.54
 59.17    1416.52
 59.27    1349.16
 59.37    1318.00
 59.47    1242.67
 59.57    1148.81
 59.67    1165.00
 59.77    1170.26
 59.87    1180.05
 59.97    1338.78
 60.07    1467.00
 60.17    1556.00
 60.27    1596.00
 60.37    1601.00
 60.47    1424.98
 60.57    1257.83
 60.67    1030.33
 60.77     931.00
 60.87     828.76
 60.97     758.00
 61.07     650.00
 61.17     649.00
 61.27     616.00
 61.37     706.00
 61.47     676.00
 61.57     711.00
 61.67     818.00
 61.77     937.54
 61.87    1125.00
 61.97    1285.00
 62.07    1352.68
 62.17    1400.00
 62.27    1393.00
 62.37    1339.40
 62.47    1153.00
 62.57    1043.00
 62.67     849.00
 62.77     765.00
 62.87     690.00
 62.97     673.65
 63.07     613.00
 63.17     567.00
 63.27     562.50
 63.37     545.00
 63.47     570.15
 63.57     575.00
 63.67     596.06
 63.77     585.00
 63.87     605.02
 63.97     671.00
 64.07     665.15
 64.17     785.55
 64.27     832.00
 64.37     858.76
 64.47    1007.00
 64.57    1023.00
 64.67    1043.17
 64.77     984.39
 64.87     984.00
 64.97     911.00
 65.07     850.00
 65.17     814.00
 65.27     726.00
 65.37     692.00
 65.47     612.00
 65.57     654.00
 65.67     563.00
 65.77     622.93
 65.87     568.00
 65.97     537.96
 66.07     540.08
 66.17     601.87
 66.27     556.00
 66.37     543.00
 66.47     542.65
 66.57     512.00
 66.67     603.30
 66.77     557.81
 66.87     595.00
 66.97     580.00
 67.07     632.88
 67.17     639.00
 67.27     769.00
 67.37     901.00
 67.47    1049.00
 67.57    1272.08
 67.67    1526.56
 67.77    1783.00
 67.87    2116.12
 67.97    2310.00
 68.07    2375.00
 68.17    2422.00
 68.27    2255.00
 68.37    2056.11
 68.47    1866.00
 68.57    1531.85
 68.67    1320.00
 68.77    1063.00
 68.87     914.00
 68.97     815.00
 69.07     717.14
 69.17     657.00
 69.27     645.23
 69.37     569.00
 69.47     611.00
 69.57     531.79
 69.67     562.86
 69.77     534.84
 69.87     547.73
 69.97     578.86
 70.07     540.00
 70.17     524.41
 70.27     586.00
 70.37     522.94
 70.47     582.00
 70.57     581.48
 70.67     548.00
 70.77     564.00
 70.87     621.20
 70.97     635.75
 71.07     675.00
 71.17     725.00
 71.27     798.49
 71.37     988.21
 71.47    1092.00
 71.57    1213.00
 71.67    1511.45
 71.77    1636.96
 71.87    1857.00
 71.97    1943.00
 72.07    2109.00
 72.17    1905.00
 72.27    1790.00
 72.37    1578.00
 72.47    1466.00
 72.57    1245.94
 72.67    1213.16
 72.77    1071.49
 72.87     954.00
 72.97     795.00
 73.07     816.00
 73.17     750.90
 73.27     704.00
 73.37     621.00
 73.47     600.00
 73.57     571.00
 73.67     578.90
 73.77     573.23
 73.87     611.00
 73.97     558.00
 74.07     591.80
 74.17     587.00
 74.27     624.00
 74.37     569.21
 74.47     637.00
 74.57     595.95
 74.67     643.00
 74.77     612.00
 74.87     643.00
 74.97     590.00
 75.07     599.00
 75.17     584.00
 75.27     544.00
 75.37     550.00
 75.47     535.00
 75.57     601.00
 75.67     549.00
 75.77     612.33
 75.87     597.03
 75.97     623.00
 76.07     578.00
 76.17     694.24
 76.27     680.00
 76.37     674.86
 76.47     676.83
 76.57     719.38
 76.67     691.68
 76.77     652.90
 76.87     625.00
 76.97     647.00
 77.07     637.73
 77.17     586.00
 77.27     576.30
 77.37     546.61
 77.47     564.00
 77.57     530.00
 77.67     520.00
 77.77     527.00
 77.87     552.99
 77.97     544.00
 78.07     540.00
 78.17     541.00
 78.27     552.00
 78.37     552.00
 78.47     524.74
 78.57     552.57
 78.67     536.00
 78.77     567.00
 78.87     499.00
 78.97     497.00
 79.07     539.00
 79.17     540.78
 79.27     537.00
 79.37     524.00
 79.47     571.93
 79.57     538.44
 79.67     573.75
 79.77     523.00
 79.87     508.00
 79.97     552.00
 80.07     557.22
 80.17     566.00
 80.27     590.05
 80.37     586.00
 80.47     573.92
 80.57     633.00
 80.67     625.00
 80.77     671.00
 80.87     636.00
 80.97     706.00
 81.07     711.00
 81.17     738.00
 81.27     749.00
 81.37     701.59
 81.47     791.55
 81.57     761.00
 81.67     741.00
 81.77     711.10
 81.87     699.21
 81.97     704.97
 82.07     722.00
 82.17     632.86
 82.27     637.00
 82.37     605.36
 82.47     616.23
 82.57     560.72
 82.67     550.00
 82.77     607.98
 82.87     549.00
 82.97     525.00
 83.07     541.00
 83.17     560.00
 83.27     555.61
 83.37     562.23
 83.47     567.71
 83.57     568.18
 83.67     598.00
 83.77     535.00
 83.87     545.00
 83.97     582.80
 84.07     562.00
 84.17     588.91
 84.27     608.00
 84.37     550.00
 84.47     570.00
 84.57     559.69
 84.67     510.00
 84.77     563.00
 84.87     574.00
 84.97     547.00
 85.07     516.00
 85.17     551.00
 85.27     558.00
 85.37     510.00
 85.47     560.46
 85.57     562.00
 85.67     549.00
 85.77     542.00
 85.87     511.00
 85.97     507.00
 86.07     498.65
 86.17     547.00
 86.27     514.95
 86.37     545.00
 86.47     525.45
 86.57     560.00
 86.67     546.00
 86.77     547.12
 86.87     613.09
 86.97     635.00
 87.07     637.00
 87.17     612.00
 87.27     660.00
 87.37     640.00
 87.47     671.00
 87.57     606.78
 87.67     680.00
 87.77     624.88
 87.87     600.12
 87.97     631.00
 88.07     616.00
 88.17     646.00
 88.27     529.00
 88.37     534.43
 88.47     577.00
 88.57     595.00
 88.67     563.22
 88.77     584.00
 88.87     547.68
 88.97     551.15
 89.07     612.00
 89.17     557.00
 89.27     604.00
 89.37     594.00
 89.47     588.00
 89.57     592.00
 89.67     588.00
 89.77     559.72
 89.87     543.00
 89.97     606.57
 90.07     542.14
 90.17     535.00
 90.27     522.54
 90.37     575.86
 90.47     572.00
 90.57     511.48
 90.67     511.21
 90.77     553.00
 90.87     508.75
 90.97     541.00
 91.07     494.00
 91.17     510.35
 91.27     525.00
 91.37     535.20
 91.47     508.43
 91.57     504.00
 91.67     487.00
 91.77     489.00
 91.87     511.00
 91.97     572.00
 92.07     535.00
 92.17     542.00
 92.27     550.00
 92.37     621.00
 92.47     595.00
 92.57     662.00
 92.67     627.00
 92.77     672.36
 92.87     667.09
 92.97     758.00
 93.07     693.61
 93.17     718.30
 93.27     807.00
 93.37     777.00
 93.47     776.00
 93.57     794.00
 93.67     859.00
 93.77     818.27
 93.87     881.00
 93.97     810.00
 94.07     853.00
 94.17     804.03
 94.27     902.16
 94.37     888.00
 94.47     884.00
 94.57     944.00
 94.67     860.52
 94.77     912.00
 94.87     902.43
 94.97     855.57
 95.07     855.52
 95.17     906.00
 95.27     866.00
 95.37     803.00
 95.47     782.00
 95.57     743.00
 95.67     712.70
 95.77     690.00
 95.87     658.00
 95.97     674.00
 96.07     663.17
 96.17     725.00
 96.27     726.00
 96.37     780.79
 96.47     838.23
 96.57     885.00
 96.67     927.00
 96.77     953.00
 96.87    1117.75
 96.97    1174.00
 97.07    1217.00
 97.17    1242.56
 97.27    1402.55
 97.37    1365.00
 97.47    1415.00
 97.57    1390.03
 97.67    1421.00
 97.77    1410.44
 97.87    1394.00
 97.97    1335.32
 98.07    1271.72
 98.17    1154.76
 98.27    1110.31
 98.37    1015.00
 98.47    1011.00
 98.57     934.00
 98.67     837.00
 98.77     847.00
 98.87     781.79
 98.97     758.00
 99.07     826.10
 99.17     858.00
 99.27     912.00
 99.37     914.00
 99.47     989.00
 99.57    1083.00
 99.67    1161.00
 99.77    1325.00
 99.87    1397.49
 99.97    1570.25
100.07    1598.00
100.17    1778.00
100.27    1896.29
100.37    1903.00
100.47    1965.09
100.57    1990.76
100.67    2068.00
100.77    2087.70
100.87    2070.00
100.97    2022.41
101.07    1960.62
101.17    1897.00
101.27    1754.01
101.37    1650.57
101.47    1575.00
101.57    1464.84
101.67    1402.92
101.77    1369.00
101.87    1310.00
101.97    1285.91
102.07    1170.00
102.17    1206.00
102.27    1161.80
102.37    1123.00
102.47    1071.00
102.57    1118.69
102.67    1041.00
102.77    1027.00
102.87    1017.00
102.97     976.00
103.07     944.49
103.17     827.00
103.27     844.00
103.37     858.00
103.47     766.81
103.57     745.00
103.67     692.47
103.77     684.00
103.87     621.00
103.97     545.00
104.07     602.00
104.17     558.61
104.27     549.90
104.37     595.17
104.47     590.00
104.57     563.06
104.67     503.38
104.77     552.00
104.87     520.66
104.97     540.00
105.07     542.00
105.17     532.00
105.27     534.00
105.37     554.00
105.47     534.00
105.57     495.38
105.67     583.00
105.77     548.00
105.87     576.00
105.97     555.00
106.07     572.00
106.17     553.39
106.27     638.00
106.37     557.23
106.47     588.00
106.57     660.24
106.67     614.00
106.77     651.00
106.87     625.00
106.97     652.00
107.07     687.39
107.17     673.00
107.27     720.90
107.37     683.73
107.47     707.03
107.57     661.35
107.67     692.00
107.77     738.69
107.87     712.00
107.97     722.69
108.07     712.04
108.17     629.00
108.27     647.59
108.37     686.00
108.47     686.55
108.57     731.05
108.67     665.52
108.77     691.00
108.87     746.00
108.97     718.00
109.07     689.00
109.17     643.09
109.27     668.84
109.37     669.96
109.47     678.83
109.57     596.36
109.67     586.08
109.77     636.00
109.87     608.45
109.97     599.00
110.07     553.86
110.17     585.00
110.27     562.00
110.37     553.00
110.47     555.00
110.57     555.00
110.67     521.60
110.77     547.00
110.87     538.00
110.97     570.00
111.07     540.00
111.17     567.68
111.27     541.78
111.37     548.24
111.47     514.00
111.57     531.00
111.67     551.00
111.77     525.11
111.87     540.00
111.97     561.00
112.07     534.00
112.17     613.20
112.27     603.18
112.37     546.24
112.47     644.00
112.57     600.00
112.67     630.41
112.77     596.00
112.87     644.00
112.97     665.69
113.07     665.00
113.17     651.67
113.27     677.01
113.37     722.00
113.47     785.63
113.57     760.00
113.67     780.00
113.77     873.00
113.87     872.00
113.97     874.00
114.07     956.50
114.17    1070.00
114.27    1181.00
114.37    1169.00
114.47    1271.09
114.57    1452.47
114.67    1564.00
114.77    1728.00
114.87    1868.00
114.97    1967.71
115.07    2344.00
115.17    2508.00
115.27    2888.00
115.37    3102.00
115.47    3526.00
115.57    3778.00
115.67    4092.00
115.77    4583.56
115.87    4806.00
115.97    5246.00
116.07    5691.77
116.17    5983.40
116.27    6309.00
116.37    6557.00
116.47    6834.00
116.57    6838.63
116.67    6962.00
116.77    6965.55
116.87    6749.24
116.97    6486.85
117.07    6394.00
117.17    5976.00
117.27    5708.00
117.37    5291.00
117.47    5006.00
117.57    4494.00
117.67    4243.12
117.77    3935.07
117.87    3478.61
117.97    3309.00
118.07    2945.00
118.17    2605.00
118.27    2331.00
118.37    1980.06
118.47    1770.00
118.57    1567.00
118.67    1395.00
118.77    1280.00
118.87    1095.00
118.97    1017.00
119.07     994.42
119.17     876.00
119.27     813.33
119.37     755.00
119.47     790.53
119.57     727.41
119.67     682.00
119.77     678.58
119.87     626.98
119.97     617.00
120.07     597.00
120.17     578.00
120.27     640.98
120.37     626.65
120.47     525.00
120.57     564.00
120.67     580.00
120.77     595.00
120.87     594.64
120.97     601.00
121.07     545.00
121.17     589.00
121.27     560.96
121.37     570.50
121.47     615.00
121.57     588.00
121.67     588.00
121.77     593.00
121.87     558.44
121.97     651.00
122.07     630.00
122.17     667.00
122.27     581.76
122.37     588.59
122.47     653.09
122.57     633.85
122.67     632.26
122.77     655.95
122.87     645.00
122.97     640.00
123.07     608.62
123.17     686.84
123.27     624.00
123.37     611.00
123.47     616.41
123.57     656.00
123.67     643.38
123.77     618.08
123.87     677.00
123.97     601.00
124.07     665.00
124.17     647.00
124.27     594.98
124.37     605.35
124.47     591.03
124.57     605.00
124.67     618.00
124.77     602.66
124.87     639.00
124.97     586.00
